Ga-71(n,tot) ENDF/B-VII.1
Energy(eV) XS(b)
1.00000E-05 243.119
1.25000E-05 218.005
1.50000E-05 199.467
2.00000E-05 173.446
2.75000E-05 148.686
3.50000E-05 132.391
4.25000E-05 120.628
5.00000E-05 111.622
6.25000E-05 100.391
7.50000E-05 92.1007
0.000100000 80.4635
0.000125000 72.5218
0.000150000 66.6596
0.000200000 58.4308
0.000275000 50.6012
0.000350000 45.4484
0.000425000 41.7284
0.000500000 38.8806
0.000625000 35.3291
0.000750000 32.7074
0.00100000 29.0274
0.00125000 26.5160
0.00150000 24.6622
0.00200000 22.0601
0.00275000 19.5842
0.00350000 17.9547
0.00425000 16.7784
0.00500000 15.8779
0.00625000 14.7548
0.00750000 13.9257
0.0100000 12.7620
0.0125000 11.9679
0.0150000 11.3817
0.0200000 10.5588
0.0253000 9.96900
0.0314750 9.47979
0.0376500 9.11651
0.0500000 8.60380
0.0625000 8.24860
0.0750000 7.98638
0.100000 7.61824
0.125000 7.36695
0.150000 7.18140
0.200000 6.92080
0.275000 6.67258
0.350000 6.50896
0.500000 6.29984
0.750000 6.10208
1.00000 5.98306
1.50000 5.83951
2.00000 5.75154
2.75000 5.66454
3.50000 5.60415
5.00000 5.52045
7.50000 5.42807
10.0000 5.36011
15.0000 5.25299
20.0000 5.16228
27.5000 5.03848
35.0000 4.92098
50.0000 4.69323
61.3867 4.52900
67.0801 4.45757
72.7734 4.40937
78.4668 4.43137
81.3134 4.51596
84.1601 4.73283
85.5834 4.94684
87.0068 5.30319
88.4301 5.93139
89.8535 7.14242
90.5651 8.19669
91.2768 9.83826
91.9885 12.5718
92.7001 17.5751
93.0560 21.7750
93.4118 28.1351
93.7676 38.3962
94.1235 56.4538
94.4793 92.5386
94.6572 125.735
94.8351 180.884
95.0131 281.977
95.1020 367.003
95.1910 495.714
95.2799 702.144
95.3689 1057.41
95.4579 1719.43
95.5468 3018.13
95.6234 4844.96
95.7000 6077.17
95.7766 4880.16
95.8532 3063.14
95.9180 2033.26
95.9828 1401.30
96.0476 1008.99
96.1124 755.731
96.2420 465.616
96.3716 314.615
96.5011 226.937
96.6307 171.769
96.8899 109.030
97.1491 76.0979
97.4083 56.6938
97.6674 44.2967
97.9266 35.8899
98.4450 25.5267
98.9633 19.6055
99.4817 15.8944
100.000 13.4081
100.781 10.9580
101.563 9.38824
103.125 7.54863
104.688 6.53792
106.250 5.91325
109.375 5.19400
112.500 4.79366
115.625 4.53528
118.750 4.35058
125.000 4.09305
137.500 3.76690
150.000 3.54845
175.000 3.35401
200.000 3.83262
210.448 4.53950
220.895 5.92523
231.343 8.65561
236.566 10.9546
241.790 14.3330
247.014 19.4502
252.238 27.5228
257.461 40.9821
262.685 65.2200
265.297 85.0269
267.909 114.063
270.521 158.655
273.133 231.372
275.744 359.815
278.356 612.707
279.662 837.232
280.968 1189.03
282.274 1762.46
283.580 2708.60
285.140 4433.26
286.700 5649.22
288.260 4603.70
289.820 2939.33
291.132 1985.67
292.444 1391.94
293.755 1018.65
295.067 774.836
297.690 491.433
300.314 341.104
302.937 252.287
305.561 195.477
310.808 129.418
316.054 93.6766
321.301 72.0077
326.548 57.8082
331.795 48.0030
342.289 36.1810
347.536 33.2203
352.783 32.7074
358.029 36.9878
360.653 43.1584
363.276 55.4573
365.900 81.4084
367.212 105.278
368.523 143.837
369.835 210.257
371.147 334.782
371.803 439.376
372.458 594.208
373.114 828.716
373.770 1184.08
374.735 1963.50
375.700 2548.11
376.665 2119.41
377.630 1382.05
378.586 893.441
379.542 610.544
380.498 442.786
381.454 337.625
382.410 267.996
383.366 219.677
385.278 158.757
387.190 123.100
389.102 100.290
392.926 73.4989
396.750 58.6490
400.574 49.3581
408.223 38.4705
415.871 32.3019
423.519 28.3069
438.815 23.3715
454.111 20.3802
469.408 18.3362
500.000 15.6672
525.558 14.1972
551.117 13.0981
602.234 11.4840
627.792 10.8043
640.571 10.4574
653.350 10.0772
666.130 9.61578
672.519 9.32291
678.909 8.95222
682.104 8.72130
685.298 8.44579
688.493 8.11013
691.688 7.69709
693.285 7.46036
694.883 7.21370
696.480 6.99204
698.078 6.91132
698.876 7.02688
699.675 7.39130
700.474 8.27829
701.272 10.3569
701.672 12.3350
702.071 15.5364
702.470 20.9596
702.870 30.7553
703.069 38.7029
703.269 50.2034
703.469 67.4814
703.668 94.6678
703.868 140.090
704.068 221.700
704.168 287.612
704.267 381.585
704.367 517.715
704.467 714.240
704.634 1194.08
704.800 1561.96
704.967 1310.33
705.133 859.793
705.277 587.880
705.421 418.127
705.565 311.276
705.709 241.330
705.997 159.608
706.285 115.846
706.573 89.6909
706.861 72.7701
707.437 52.7655
708.013 41.6979
708.589 34.8448
709.164 30.2565
709.740 27.0038
710.892 22.7489
712.044 20.1229
713.196 18.3570
714.348 17.0948
716.651 15.4186
718.955 14.3593
721.259 13.6292
723.562 13.0945
728.170 12.3591
732.777 11.8715
737.384 11.5191
741.991 11.2488
751.206 10.8518
760.421 10.5645
778.850 10.1535
797.279 9.85360
815.708 9.61231
852.567 9.22655
926.283 8.64824
1000.00 8.19481
1045.94 7.94539
1068.91 7.82725
1074.65 7.79895
1080.40 7.77276
1083.27 7.76241
1086.14 7.75972
1087.57 7.76871
1088.29 7.78113
1089.01 7.80638
1089.73 7.86310
1090.09 7.91976
1090.44 8.02111
1090.62 8.10452
1090.80 8.22745
1090.98 8.42147
1091.16 8.74851
1091.34 9.37086
1091.43 9.91324
1091.52 10.7535
1091.61 12.1851
1091.70 14.8061
1091.75 17.0296
1091.79 20.3471
1091.84 25.4356
1091.88 33.0418
1091.94 48.3369
1092.00 58.2966
1092.06 48.0743
1092.12 33.0469
1092.16 25.7219
1092.21 20.8131
1092.25 17.5267
1092.29 15.3208
1092.37 12.5633
1092.46 11.0597
1092.54 10.1421
1092.62 9.55730
1092.79 8.87192
1092.96 8.50496
1093.12 8.28623
1093.46 8.04959
1093.79 7.93078
1094.13 7.86246
1094.79 7.79015
1095.46 7.75360
1096.13 7.73179
1097.46 7.70639
1100.13 7.67937
1102.80 7.66121
1108.15 7.63135
1113.49 7.60426
1118.83 7.57898
1124.17 7.55788
1126.84 7.55270
1128.18 7.55423
1129.51 7.56253
1130.85 7.58761
1131.52 7.61550
1132.18 7.66801
1132.52 7.71259
1132.85 7.78025
1133.18 7.88928
1133.52 8.07965
1133.85 8.45817
1134.02 8.80404
1134.19 9.37517
1134.35 10.4140
1134.44 11.2879
1134.52 12.5872
1134.60 14.6802
1134.69 18.2012
1134.77 24.6414
1134.85 36.9690
1134.93 54.6849
1135.00 66.5083
1135.07 54.6897
1135.15 36.9760
1135.21 27.6912
1135.26 21.8338
1135.32 17.9855
1135.37 15.4713
1135.49 12.4738
1135.60 10.8706
1135.71 9.92419
1135.83 9.32237
1136.05 8.63175
1136.28 8.26663
1136.50 8.05071
1136.73 7.91248
1136.96 7.81893
1137.41 7.70270
1137.86 7.63588
1138.76 7.56479
1139.67 7.52832
1140.57 7.50607
1142.38 7.47901
1145.99 7.44765
1149.60 7.42470
1156.83 7.38464
1164.06 7.34659
1192.97 7.19521
1250.78 6.86751
1279.69 6.67662
1308.60 6.44647
1323.05 6.30180
1330.28 6.21497
1337.51 6.11120
1344.73 5.97736
1348.35 5.89030
1351.96 5.77955
1353.77 5.71060
1355.58 5.62855
1357.38 5.52885
1359.19 5.40636
1360.09 5.33586
1361.00 5.26183
1361.90 5.19332
1362.80 5.16167
1363.25 5.18764
1363.71 5.28116
1364.16 5.51754
1364.61 6.07979
1365.06 7.49897
1365.29 8.99443
1365.51 11.6931
1365.74 17.0942
1365.85 21.9134
1365.96 29.5307
1366.08 42.3173
1366.19 65.4640
1366.25 84.4573
1366.30 111.232
1366.36 150.136
1366.42 206.476
1366.51 343.560
1366.60 447.128
1366.69 375.149
1366.79 246.747
1366.84 189.342
1366.90 147.864
1367.01 96.9347
1367.12 68.8136
1367.23 52.2773
1367.34 41.6349
1367.46 34.5069
1367.68 25.6997
1367.90 20.6653
1368.12 17.4932
1368.57 13.8284
1369.02 11.8248
1369.46 10.5905
1369.91 9.76422
1370.35 9.17808
1371.24 8.40448
1372.14 7.92180
1373.03 7.59265
1373.92 7.35378
1375.70 7.02883
1377.48 6.81591
1379.27 6.66317
1381.05 6.54631
1384.61 6.37379
1388.18 6.24645
1395.31 6.05383
1409.57 5.75297
1423.83 5.46596
1438.09 5.14871
1452.35 4.77344
1466.62 4.31435
1473.75 4.04933
1475.53 3.98212
1477.31 3.92374
1478.20 3.91072
1478.65 3.91833
1479.09 3.95025
1479.54 4.04406
1479.76 4.14748
1479.99 4.33876
1480.21 4.73447
1480.32 5.10294
1480.43 5.70500
1480.54 6.79374
1480.65 8.96242
1480.71 10.9467
1480.77 14.0602
1480.82 19.3690
1480.88 28.2529
1480.94 43.7368
1481.00 54.7331
1481.06 45.3405
1481.12 30.2536
1481.17 22.9856
1481.21 18.1161
1481.29 12.3778
1481.37 9.44718
1481.46 7.80577
1481.54 6.78114
1481.62 6.11487
1481.79 5.31343
1481.95 4.86906
1482.12 4.59499
1482.45 4.28355
1482.78 4.11473
1483.11 4.00996
1483.77 3.88451
1485.09 3.75417
1486.41 3.67553
1491.69 3.50135
1496.97 3.51557
1502.26 3.96902
1504.90 4.57600
1507.54 5.71440
1510.18 7.86909
1512.82 12.1312
1514.15 15.7965
1515.47 21.3168
1516.79 29.9595
1518.11 44.1749
1519.43 69.1900
1520.75 117.173
1521.41 158.233
1522.07 219.783
1522.73 314.404
1523.39 460.202
1524.35 780.787
1525.30 1035.07
1526.26 879.647
1527.21 584.307
1527.88 431.584
1528.55 326.436
1529.22 254.244
1529.89 203.809
1531.23 140.675
1532.57 104.576
1533.90 82.0386
1535.24 67.0187
1537.92 48.7308
1540.60 38.3280
1543.27 31.7677
1545.95 27.3181
1548.63 24.1329
1553.98 19.9232
1559.34 17.2987
1564.69 15.5211
1570.04 14.2438
1580.75 12.5385
1591.46 11.4555
1602.17 10.7067
1612.88 10.1571
1634.29 9.39999
1655.71 8.89703
1677.13 8.53277
1698.54 8.25203
1741.38 7.83412
1784.21 7.51890
1827.04 7.24689
1837.75 7.17986
1848.46 7.11146
1853.81 7.07672
1859.17 7.04289
1861.84 7.02833
1864.52 7.02166
1865.86 7.02942
1867.20 7.06831
1867.87 7.12888
1868.20 7.18976
1868.54 7.29826
1868.87 7.51883
1869.04 7.72350
1869.21 8.06723
1869.37 8.71331
1869.46 9.26875
1869.54 10.1162
1869.63 11.5320
1869.71 14.0432
1869.75 16.1095
1869.79 19.1025
1869.83 23.5278
1869.88 29.8684
1869.94 43.7813
1870.00 52.8818
1870.06 43.5511
1870.13 29.8746
1870.18 21.4198
1870.24 16.5358
1870.30 13.6501
1870.36 11.8545
1870.48 9.87112
1870.60 8.88036
1870.71 8.31204
1870.83 7.96030
1871.07 7.56771
1871.30 7.36349
1871.54 7.24451
1872.01 7.11677
1872.48 7.05234
1872.95 7.01441
1873.89 6.97168
1875.78 6.92988
1877.66 6.90410
1881.43 6.86258
1885.19 6.82259
1892.73 6.73388
1900.26 6.62130
1907.80 6.46160
1911.56 6.34881
1915.33 6.19642
1917.22 6.09737
1919.10 5.97626
1920.98 5.82534
1922.87 5.63614
1923.81 5.52615
1924.75 5.41019
1925.69 5.30336
1926.63 5.25567
1927.10 5.29779
1927.57 5.44440
1928.05 5.80687
1928.52 6.64821
1928.99 8.67989
1929.22 10.7311
1929.46 14.2583
1929.69 20.8213
1929.81 26.2585
1929.93 34.1618
1930.05 46.2574
1930.16 65.1415
1930.28 96.1799
1930.40 146.843
1930.55 250.237
1930.70 334.360
1930.85 287.353
1931.00 194.087
1931.14 134.540
1931.27 97.4901
1931.41 74.2350
1931.54 59.0187
1931.81 41.1914
1932.08 31.5981
1932.35 25.7866
1932.62 22.0001
1933.16 17.4484
1933.70 14.8802
1934.24 13.2616
1934.78 12.1604
1935.31 11.3685
1936.39 10.3137
1937.47 9.64837
1938.55 9.19272
1939.63 8.86197
1941.78 8.41443
1943.94 8.12577
1946.10 7.92347
1948.25 7.77320
1952.56 7.56305
1956.88 7.42099
1965.50 7.23519
1974.13 7.11295
1982.75 7.02163
2000.00 6.88430
2024.81 6.73386
2049.62 6.60569
2099.23 6.36728
2148.85 6.11762
2198.47 5.82327
2248.08 5.43412
2272.89 5.17522
2297.70 4.84567
2310.10 4.64499
2322.51 4.41591
2334.91 4.16113
2347.31 3.90748
2353.52 3.81177
2359.72 3.78493
2365.92 3.92294
2372.12 4.46623
2378.32 6.10206
2381.43 7.91934
2384.53 11.2476
2387.63 17.7702
2389.18 23.3995
2390.73 31.9284
2392.28 45.3843
2393.83 67.5527
2395.38 105.769
2396.93 172.850
2398.72 299.626
2400.50 406.404
2402.29 352.974
2404.07 239.668
2405.57 170.520
2407.06 125.790
2408.56 96.8012
2410.05 77.3744
2413.05 54.0260
2416.04 41.1213
2419.03 33.2077
2422.02 27.9742
2428.00 21.6204
2433.98 17.9889
2439.97 15.6780
2445.95 14.0927
2451.93 12.9444
2463.90 11.3998
2475.86 10.4124
2487.83 9.72668
2499.79 9.22132
2523.72 8.52010
2547.65 8.04729
2595.51 7.41561
2643.37 6.95454
2667.30 6.73676
2691.23 6.50060
2715.16 6.20967
2727.13 6.02040
2739.09 5.77464
2745.08 5.61758
2751.06 5.42559
2757.04 5.18314
2763.02 4.86603
2766.02 4.66879
2769.01 4.43998
2772.00 4.17987
2774.99 3.91041
2776.48 3.79986
2777.98 3.75082
2779.48 3.85629
2780.97 4.35423
2782.47 5.94574
2783.22 7.76981
2783.96 11.1880
2784.71 18.1044
2785.08 24.2441
2785.46 33.8049
2785.83 49.4114
2786.21 76.3622
2786.58 125.791
2786.95 219.301
2787.33 377.868
2787.70 508.703
2788.07 438.567
2788.45 295.720
2788.77 207.968
2789.08 151.854
2789.40 115.831
2789.72 91.9218
2790.35 63.3697
2790.99 47.7114
2791.62 38.1594
2792.26 31.8832
2793.53 24.3069
2794.80 20.0036
2796.07 17.2825
2797.34 15.4242
2798.61 14.0852
2801.15 12.2951
2803.69 11.1605
2806.23 10.3795
2808.77 9.80937
2813.86 9.02908
2818.94 8.51445
2824.02 8.14181
2829.10 7.85143
2839.26 7.39398
2844.35 7.18628
2849.43 6.96548
2854.51 6.69699
2857.05 6.52377
2859.59 6.30119
2860.86 6.16086
2862.13 5.99246
2863.40 5.78612
2864.67 5.53174
2865.31 5.38562
2865.94 5.23343
2866.58 5.09531
2867.21 5.03669
2867.85 5.28336
2868.17 5.74453
2868.48 6.78879
2868.80 9.24682
2868.96 11.6549
2869.12 15.6650
2869.28 22.8327
2869.36 28.5781
2869.44 36.6033
2869.52 48.3905
2869.59 65.6918
2869.67 91.8511
2869.75 131.423
2869.88 226.935
2870.00 308.047
2870.12 268.476
2870.25 183.294
2870.37 126.093
2870.48 91.0850
2870.60 69.4088
2870.72 55.3524
2870.95 38.9945
2871.18 30.1968
2871.42 24.8879
2871.65 21.4087
2872.12 17.2159
2872.59 14.8321
2873.06 13.3177
2873.52 12.2797
2873.99 11.5277
2874.93 10.5164
2875.86 9.87034
2876.80 9.42278
2877.74 9.09433
2879.61 8.64338
2881.48 8.34649
2883.35 8.13442
2885.22 7.97397
2888.97 7.74388
2892.71 7.58319
2900.20 7.36481
2907.69 7.21548
2915.18 7.10156
2930.15 6.92938
2960.10 6.68565
2990.05 6.49720
3020.01 6.33029
3049.96 6.16974
3064.93 6.08877
3079.91 6.00633
3087.40 5.96490
3094.88 5.92529
3098.63 5.90894
3102.37 5.90337
3104.24 5.91553
3106.12 5.96973
3107.05 6.05275
3107.52 6.13629
3107.99 6.28663
3108.46 6.59520
3108.69 6.88666
3108.92 7.38494
3109.16 8.33979
3109.27 9.18180
3109.39 10.5213
3109.51 12.8271
3109.63 17.2430
3109.68 21.1199
3109.74 26.9870
3109.80 36.3198
3109.86 51.2904
3109.93 78.4806
3110.00 96.5763
3110.07 78.5080
3110.14 51.3246
3110.19 39.3578
3110.23 30.9707
3110.32 20.9834
3110.41 15.7670
3110.49 12.8143
3110.58 10.9682
3110.67 9.76973
3110.84 8.34130
3111.02 7.56386
3111.19 7.09561
3111.54 6.58446
3111.89 6.32555
3112.24 6.17690
3112.94 6.01987
3113.65 5.94158
3114.35 5.89596
3115.75 5.84499
3118.55 5.79594
3121.35 5.76639
3126.95 5.72054
3132.56 5.67871
3143.77 5.59482
3154.97 5.50637
3166.18 5.41169
3177.39 5.31139
3182.99 5.26191
3188.60 5.22278
3191.40 5.22024
3192.80 5.23274
3194.20 5.26807
3195.60 5.35991
3196.30 5.45730
3197.00 5.63654
3197.70 6.01160
3198.05 6.36917
3198.40 6.98512
3198.75 8.17648
3198.93 9.23636
3199.10 10.9374
3199.28 13.9032
3199.45 19.6974
3199.54 24.8750
3199.63 32.9274
3199.72 46.3223
3199.80 68.4177
3199.90 106.369
3200.00 131.648
3200.10 106.404
3200.20 68.4632
3200.31 41.6597
3200.42 27.7853
3200.54 20.2526
3200.65 15.8677
3200.76 13.0848
3200.87 11.2504
3201.10 9.03961
3201.33 7.81718
3201.55 7.07866
3202.00 6.26535
3202.45 5.84960
3202.90 5.60874
3203.80 5.35103
3204.70 5.22007
3205.60 5.14157
3207.41 5.04956
3211.01 4.95007
3214.61 4.88056
3221.82 4.75738
3229.03 4.63215
3243.44 4.35055
3257.86 4.01519
3265.07 3.83016
3272.28 3.64669
3279.48 3.50001
3286.69 3.49316
3293.90 3.95800
3297.50 4.67668
3301.11 6.19433
3304.71 9.52694
3306.51 12.6225
3308.31 17.5778
3310.12 25.8725
3311.92 40.5384
3313.72 68.0651
3315.52 121.570
3317.31 213.962
3319.10 294.793
3320.89 260.117
3322.68 179.333
3324.12 130.672
3325.57 98.3563
3327.01 76.9536
3328.46 62.3565
3331.34 44.5054
3334.23 34.4482
3337.12 28.1972
3340.01 24.0164
3345.78 18.8766
3351.56 15.8945
3357.34 13.9690
3363.11 12.6273
3368.89 11.6362
3380.44 10.2419
3386.22 9.70807
3391.99 9.22187
3397.77 8.73387
3400.66 8.46514
3403.54 8.15624
3404.99 7.97697
3406.43 7.77340
3407.88 7.53823
3409.32 7.26686
3410.04 7.12133
3410.76 6.98078
3411.49 6.87481
3412.21 6.88931
3412.93 7.30240
3413.29 7.92152
3413.65 9.22927
3414.01 12.1392
3414.19 14.9038
3414.37 19.4018
3414.55 27.2189
3414.73 41.6198
3414.82 53.4485
3414.91 70.5239
3415.00 95.5394
3415.09 132.100
3415.25 225.943
3415.40 305.056
3415.55 265.635
3415.71 181.707
3415.80 142.808
3415.89 114.181
3416.07 78.0746
3416.26 57.8954
3416.44 45.6978
3416.63 37.7899
3416.81 32.3632
3417.18 25.5599
3417.55 21.5705
3417.91 18.9983
3418.65 15.9371
3419.39 14.2029
3420.12 13.0992
3420.86 12.3383
3421.59 11.7832
3423.06 11.0242
3424.54 10.5275
3426.01 10.1737
3427.48 9.90624
3430.42 9.52183
3433.36 9.25205
3439.25 8.88179
3445.13 8.62573
3451.02 8.42942
3462.79 8.13436
3474.56 7.91331
3486.33 7.73662
3492.22 7.66069
3498.10 7.59334
3501.04 7.56503
3503.99 7.54754
3505.46 7.55221
3506.93 7.59323
3507.66 7.66146
3508.03 7.73110
3508.40 7.85625
3508.77 8.11239
3508.95 8.35225
3509.14 8.75786
3509.32 9.52134
3509.41 10.1817
3509.50 11.2110
3509.60 12.9312
3509.69 16.0792
3509.73 18.6893
3509.78 22.5285
3509.83 28.3136
3509.87 36.7998
3509.94 54.4614
3510.00 66.2635
3510.07 54.4779
3510.13 36.8196
3510.20 25.0128
3510.27 18.7017
3510.34 15.0958
3510.40 12.9608
3510.47 11.5757
3510.54 10.6573
3510.68 9.53958
3510.81 8.91094
3510.95 8.52873
3511.22 8.10285
3511.50 7.88358
3511.77 7.75638
3512.32 7.62025
3513.41 7.51022
3514.50 7.46322
3516.69 7.41559
3518.87 7.38569
3523.24 7.33948
3527.61 7.29946
3536.36 7.22699
3545.10 7.16083
3580.07 6.93660
3650.00 6.59629
3719.94 6.31003
3737.42 6.23672
3754.90 6.15853
3763.65 6.11654
3772.39 6.07230
3781.13 6.03040
3783.32 6.02559
3785.50 6.03608
3786.59 6.06226
3787.69 6.14611
3788.23 6.26310
3788.51 6.37627
3788.78 6.57385
3789.05 6.96340
3789.19 7.31845
3789.32 7.89589
3789.46 8.94190
3789.53 9.79918
3789.60 11.0717
3789.67 13.0963
3789.73 16.4212
3789.80 22.3133
3789.87 33.1295
3789.94 49.4876
3790.00 60.4225
3790.07 49.5126
3790.13 33.1601
3790.19 22.9321
3790.26 17.1765
3790.32 13.7880
3790.38 11.6841
3790.44 10.2894
3790.50 9.35210
3790.63 8.19393
3790.75 7.53258
3790.88 7.12697
3791.13 6.67241
3791.37 6.43632
3791.62 6.29894
3792.12 6.15183
3793.11 6.03488
3794.11 5.98695
3796.10 5.94163
3798.08 5.91481
3806.04 5.83187
3813.99 5.73886
3821.94 5.61551
3825.92 5.53444
3829.89 5.43278
3833.87 5.29994
3837.85 5.11706
3839.83 4.99661
3841.82 4.84775
3843.81 4.66004
3845.80 4.42004
3846.79 4.27700
3847.79 4.12063
3848.78 3.96311
3849.77 3.84882
3850.77 3.93882
3851.26 4.22130
3851.76 4.92220
3852.26 6.62339
3852.51 8.29918
3852.76 11.0753
3853.00 15.9344
3853.25 24.8951
3853.38 32.2780
3853.50 42.7741
3853.63 57.9729
3853.75 79.9069
3853.98 140.971
3854.20 195.248
3854.43 173.844
3854.65 121.327
3854.81 93.4519
3854.96 73.5890
3855.11 59.5942
3855.27 49.5733
3855.58 36.6923
3855.88 29.0848
3856.19 24.2140
3856.50 20.8924
3857.11 16.7445
3857.73 14.3035
3858.35 12.7248
3858.96 11.6276
3859.58 10.8277
3860.81 9.74408
3862.04 9.04923
3863.27 8.56789
3864.50 8.21554
3866.96 7.73482
3869.43 7.42247
3871.89 7.20274
3874.35 7.03931
3879.27 6.81103
3884.20 6.65754
3889.12 6.54569
3894.05 6.45941
3903.90 6.33202
3913.74 6.23921
3933.44 6.10432
3972.84 5.91593
4012.23 5.76350
4051.63 5.61829
4091.02 5.46404
4110.72 5.37560
4130.42 5.26656
4140.27 5.19320
4145.19 5.14592
4150.11 5.08523
4155.04 4.99927
4157.50 4.93865
4159.96 4.85653
4161.19 4.80283
4162.42 4.73652
4163.66 4.65255
4164.89 4.54369
4166.12 4.40281
4166.73 4.32317
4167.35 4.25415
4167.96 4.25925
4168.27 4.35871
4168.58 4.64202
4168.89 5.40508
4169.04 6.21321
4169.20 7.65141
4169.35 10.3908
4169.50 16.1451
4169.58 21.4570
4169.66 29.9840
4169.73 44.1872
4169.81 67.7479
4169.91 114.928
4170.00 154.465
4170.10 134.482
4170.19 92.2175
4170.30 59.7952
4170.40 41.8965
4170.51 31.5633
4170.62 25.1825
4170.72 20.9870
4170.83 18.0804
4171.04 14.4058
4171.25 12.2371
4171.46 10.8352
4171.89 9.16508
4172.31 8.22402
4172.74 7.62888
4173.16 7.22186
4173.58 6.92738
4174.43 6.53161
4175.28 6.27883
4176.13 6.10364
4176.98 5.97501
4178.67 5.79813
4180.37 5.68152
4182.06 5.59796
4183.76 5.53445
4187.15 5.44247
4190.55 5.37702
4197.33 5.28442
4204.12 5.21626
4210.90 5.15953
4224.47 5.06099
4251.61 4.87627
4278.75 4.67070
4305.89 4.40656
4319.46 4.23200
4333.03 4.00590
4346.60 3.68997
4353.39 3.47572
4360.17 3.20360
4363.56 3.04009
4366.96 2.85753
4370.35 2.66321
4373.74 2.49112
4377.13 2.47663
4378.83 2.67079
4380.53 3.23813
4382.22 4.73446
4383.07 6.26955
4383.92 8.90251
4384.77 13.6506
4385.61 22.8190
4386.04 30.5910
4386.46 42.0835
4386.89 59.3644
4387.31 85.3329
4388.01 151.474
4388.70 210.355
4389.40 186.827
4390.09 129.505
4390.67 93.5684
4391.26 70.0393
4391.84 54.6484
4392.43 44.2469
4393.59 31.6327
4394.76 24.5733
4395.93 20.1996
4397.10 17.2785
4399.43 13.6900
4401.77 11.6092
4404.11 10.2680
4406.44 9.33778
4408.78 8.65731
4413.45 7.72960
4418.12 7.12657
4422.79 6.70134
4427.46 6.38342
4436.81 5.93341
4446.15 5.62239
4464.84 5.19725
4483.53 4.89370
4502.21 4.64285
4539.59 4.19338
4576.96 3.72780
4614.33 3.16019
4633.02 2.79107
4642.37 2.56579
4651.71 2.29579
4661.05 1.95344
4665.72 1.73983
4670.40 1.48574
4675.07 1.18683
4677.40 1.03256
4679.74 0.913713
4682.08 0.958995
4683.24 1.17330
4683.83 1.38926
4684.41 1.72981
4685.00 2.26628
4685.58 3.12202
4686.16 4.52171
4686.75 6.90133
4687.33 11.1745
4687.62 14.5912
4687.92 19.4366
4688.21 26.4754
4688.50 36.9497
4688.79 52.8343
4689.08 76.8280
4689.54 135.266
4690.00 185.669
4690.46 162.767
4690.92 111.207
4691.30 79.4025
4691.69 58.7215
4692.07 45.2280
4692.45 36.1302
4693.22 25.1326
4693.98 19.0040
4694.75 15.2166
4695.52 12.6981
4697.05 9.61168
4698.58 7.82216
4700.11 6.66646
4703.18 5.26438
4706.24 4.43682
4709.31 3.87910
4715.44 3.14132
4721.57 2.63445
4727.70 2.22897
4739.95 1.53502
4752.21 0.882685
4758.34 0.572546
4764.47 0.324276
4766.01 0.286700
4767.54 0.267325
4769.07 0.273501
4770.60 0.315854
4772.14 0.410061
4773.67 0.579364
4775.20 0.859581
4776.73 1.30701
4778.26 2.01367
4779.80 3.13288
4781.33 4.93794
4782.86 7.92991
4784.39 13.1030
4785.93 22.5204
4786.69 30.0794
4787.46 40.7297
4788.22 55.8686
4788.99 77.2968
4790.50 141.823
4792.00 201.975
4793.51 183.076
4795.01 129.106
4796.38 92.2981
4797.74 68.7966
4799.11 53.8111
4800.47 43.9261
4803.20 32.3580
4805.93 26.3604
4811.39 21.6203
4816.85 22.0247
4822.30 27.0814
4827.76 39.9700
4830.49 52.0789
4833.22 71.1898
4835.95 102.020
4838.68 151.872
4842.34 256.647
4846.00 342.091
4849.66 293.672
4853.32 197.784
4855.61 152.335
4857.90 119.506
4862.49 78.9855
4867.07 56.8091
4871.66 43.5646
4876.24 35.0240
4880.82 29.1692
4889.99 21.7929
4899.16 17.3937
4908.33 14.4778
4926.66 10.7886
4945.00 8.42632
4963.33 6.64417
4981.67 5.16362
5000.00 4.04283
5012.37 3.95337
5018.55 4.52946
5024.73 6.12123
5027.82 7.63502
5030.91 9.97773
5034.00 13.6379
5037.10 19.4660
5040.19 29.0097
5043.28 45.1727
5046.37 73.5190
5049.46 123.922
5053.23 229.225
5057.00 329.758
5060.77 301.984
5064.54 214.913
5067.80 156.895
5071.06 118.613
5074.32 93.4502
5077.58 76.3637
5084.09 55.4675
5090.61 43.6283
5097.13 36.1963
5103.65 31.1690
5116.68 24.8803
5129.72 21.1436
5142.75 18.6786
5168.82 15.6247
5194.89 13.7920
5220.96 12.5522
5273.10 10.9276
5325.24 9.81840
5351.31 9.33516
5377.38 8.84657
5403.45 8.29419
5416.49 7.96156
5429.52 7.55814
5442.56 7.03787
5449.07 6.71358
5455.59 6.34063
5462.11 5.95604
5465.37 5.82059
5468.63 5.84824
5471.88 6.36922
5473.51 7.09932
5475.14 8.54124
5476.77 11.4613
5478.40 17.7379
5479.22 23.5015
5480.03 32.5636
5480.85 47.1915
5481.66 70.8508
5482.83 126.382
5484.00 178.547
5485.17 162.738
5486.34 116.298
5487.48 82.4756
5488.63 61.4960
5489.77 48.3849
5490.91 39.8090
5493.20 29.6772
5495.48 24.1154
5497.77 20.6860
5500.05 18.3915
5504.62 15.5404
5509.19 13.8429
5513.76 12.7081
5522.91 11.2399
5527.48 10.7127
5532.05 10.2612
5536.62 9.86610
5541.19 9.53354
5545.76 9.33636
5548.04 9.36981
5550.33 9.62288
5552.62 10.3812
5554.90 12.4525
5556.04 14.6601
5557.19 18.5649
5558.33 25.7782
5559.47 39.3635
5560.10 51.1114
5560.74 65.8280
5562.00 91.0677
5563.27 83.9527
5564.53 61.9546
5565.64 47.1647
5566.75 37.4839
5567.86 31.1495
5568.96 26.8667
5571.18 21.6415
5573.40 18.6821
5575.62 16.8208
5577.83 15.5565
5582.27 13.9623
5586.70 13.0008
5591.13 12.3556
5595.57 11.8894
5600.00 11.5344
5600.00 11.3080
7500.00 10.7260
9000.00 10.2670
10000.0 9.96120
50000.0 7.60090
100000 6.85290
395550 5.16590
494230 4.82600
494230 4.82600
518770 4.74960
518775 4.74959
600000 4.51580
700000 4.26310
800000 4.04360
923040 3.81251
923043 3.81250
978420 3.72110
1.12310E+06 3.51550
1.12315E+06 3.51522
1.12510E+06 3.51290
1.20000E+06 3.43190
1.30000E+06 3.33160
1.41480E+06 3.22540
1.41484E+06 3.22536
1.49690E+06 3.16970
1.51490E+06 3.15890
1.51494E+06 3.15885
1.80000E+06 3.04790
2.06250E+06 3.02580
2.50000E+06 3.11750
3.00000E+06 3.28609
3.50000E+06 3.44380
4.00000E+06 3.60160
4.50000E+06 3.70121
5.00000E+06 3.79330
5.33600E+06 3.83231
5.50000E+06 3.85080
5.72300E+06 3.87550
6.00000E+06 3.90530
6.50000E+06 3.92859
7.00000E+06 3.95039
7.50000E+06 3.94170
7.97920E+06 3.93340
8.00000E+06 3.93300
8.72300E+06 3.88350
9.00000E+06 3.86580
9.43770E+06 3.82100
9.43774E+06 3.82100
9.80000E+06 3.78610
1.00000E+07 3.76701
1.10000E+07 3.65160
1.14180E+07 3.59490
1.20000E+07 3.52790
1.30000E+07 3.40070
1.34450E+07 3.34570
1.40000E+07 3.27710
1.50000E+07 3.16580
1.60000E+07 3.07400
1.72000E+07 2.99450
1.72002E+07 2.99449
1.80000E+07 2.95620
1.90000E+07 2.92690
2.00000E+07 2.91360