Ge-73(n,tot) ENDF/B-VII.1
Energy(eV) XS(b)
1.00000E-05 744.345
1.25000E-05 666.267
1.50000E-05 608.633
2.00000E-05 527.732
2.75000E-05 450.755
3.50000E-05 400.095
4.25000E-05 363.523
5.00000E-05 335.525
6.25000E-05 300.607
7.50000E-05 274.832
0.000100000 238.653
0.000125000 213.962
0.000150000 195.737
0.000200000 170.154
0.000275000 145.811
0.000350000 129.791
0.000425000 118.226
0.000500000 109.372
0.000625000 98.3302
0.000750000 90.1794
0.00100000 78.7382
0.00125000 70.9303
0.00150000 65.1668
0.00200000 57.0766
0.00275000 49.3787
0.00350000 44.3125
0.00425000 40.6552
0.00500000 37.8552
0.00625000 34.3632
0.00750000 31.7855
0.0100000 28.1671
0.0125000 25.6977
0.0150000 23.8748
0.0200000 21.3158
0.0253000 19.4814
0.0314750 17.9597
0.0376500 16.8296
0.0500000 15.2344
0.0625000 14.1290
0.0750000 13.3128
0.100000 12.1665
0.125000 11.3836
0.150000 10.8052
0.200000 9.99231
0.275000 9.21695
0.350000 8.70498
0.500000 8.04895
0.750000 7.42562
1.00000 7.04807
1.50000 6.58871
2.00000 6.30391
2.75000 6.01880
3.50000 5.81862
5.00000 5.53868
7.50000 5.23081
10.0000 5.01135
15.0000 4.69332
20.0000 4.46292
27.5000 4.21965
35.0000 4.07778
50.0000 4.17019
62.5000 5.05102
68.7500 6.19604
75.0000 8.50077
78.1250 10.5195
81.2500 13.6316
84.3750 18.6891
87.5000 27.5371
90.6250 44.7738
92.1875 60.0874
93.7500 84.5299
95.3125 126.763
96.8750 208.502
97.6563 281.054
98.4375 396.993
99.2188 597.604
100.000 984.840
100.433 1370.65
100.865 2006.86
101.298 3120.97
101.730 5132.84
102.160 8287.32
102.590 10424.0
103.020 8369.59
103.450 5258.69
103.827 3447.56
104.204 2355.59
104.582 1686.80
104.959 1259.22
105.713 773.502
106.467 522.360
107.222 376.965
107.976 285.553
109.484 181.501
110.993 126.707
112.502 94.2736
114.010 73.4439
115.519 59.2377
118.536 41.5741
121.553 31.3510
124.570 24.8564
127.588 20.4427
133.622 14.9333
139.656 11.6891
145.691 9.56630
151.725 8.06184
163.794 6.01046
175.863 4.54615
181.897 3.89578
187.931 3.26912
190.949 2.98931
193.966 2.82341
195.474 2.87256
196.983 3.16361
198.492 4.07268
199.246 5.07816
200.000 6.90985
200.474 8.85810
200.948 11.9526
201.421 17.1667
201.658 21.1679
201.895 26.7077
202.132 34.6391
202.369 46.4653
202.606 65.0526
202.843 96.3639
203.079 154.501
203.198 203.780
203.316 278.610
203.435 398.987
203.553 605.939
203.672 990.091
203.731 1302.87
203.790 1738.67
203.895 2831.25
204.000 3600.35
204.105 2925.50
204.210 1856.87
204.289 1300.56
204.367 937.031
204.446 698.953
204.525 538.576
204.682 346.503
204.840 241.909
204.997 179.131
205.154 138.655
205.469 91.3198
205.784 65.6835
206.098 50.1861
206.728 33.0568
207.357 24.1932
207.987 18.9571
209.245 13.2522
210.504 10.3337
211.763 8.65434
214.281 7.14654
216.798 7.56849
218.057 8.98619
219.316 12.2791
219.945 15.3382
220.575 20.2141
221.204 28.3948
221.833 43.2002
222.148 55.3464
222.463 73.2185
222.778 100.806
223.092 146.136
223.407 227.140
223.564 293.184
223.722 389.728
223.879 537.183
224.036 773.187
224.194 1169.65
224.351 1847.61
224.526 3014.53
224.700 3842.49
224.875 3135.50
225.049 2000.07
225.235 1220.22
225.421 793.236
225.608 551.076
225.794 404.365
225.980 309.816
226.166 245.636
226.539 166.829
226.911 122.108
227.283 94.2628
228.028 62.6729
228.773 45.9454
229.518 35.9271
230.262 29.3933
231.007 24.8607
232.497 19.0739
233.986 15.5919
235.476 13.2905
236.965 11.6636
239.944 9.51762
242.923 8.15696
248.881 6.48980
254.839 5.45602
260.797 4.70607
272.713 3.57559
284.629 2.62545
290.587 2.16614
296.545 1.71368
302.503 1.30293
305.482 1.15337
308.461 1.10752
309.951 1.16429
310.695 1.22712
311.440 1.32288
312.185 1.46327
312.930 1.66566
313.674 1.95719
314.419 2.38205
315.164 3.01705
315.909 4.00504
316.653 5.63939
317.026 6.88234
317.398 8.59955
317.770 11.0631
318.143 14.7672
318.515 20.6889
318.888 30.9696
319.074 39.1850
319.260 51.0579
319.446 69.0531
319.632 98.0439
319.819 148.665
320.005 247.227
320.098 334.044
320.191 469.295
320.284 688.424
320.377 1047.28
320.489 1700.35
320.600 2158.08
320.712 1753.27
320.823 1113.84
320.911 766.962
320.999 545.519
321.087 403.424
321.175 309.247
321.351 198.383
321.527 139.063
321.703 103.979
321.879 81.6309
322.231 56.0035
322.583 42.6123
322.935 34.9524
323.639 27.6516
324.343 25.5263
325.047 26.2775
326.455 34.8773
327.159 43.7567
327.863 57.7068
328.567 80.1640
329.271 118.287
329.975 188.580
330.327 247.316
330.679 335.079
331.031 472.596
331.383 700.402
331.735 1100.23
332.087 1822.93
332.444 2991.71
332.800 3834.13
333.157 3145.47
333.513 2017.16
333.779 1426.18
334.044 1036.58
334.310 779.442
334.575 605.083
335.106 394.594
335.637 278.851
336.168 208.847
336.699 163.356
337.761 109.646
338.824 80.1743
339.886 62.1372
342.010 41.8701
344.134 31.1509
346.258 24.6978
350.507 17.5748
354.755 14.2387
356.879 13.6530
359.003 14.1668
361.128 17.0873
362.190 20.6867
363.252 27.6851
364.314 42.6675
364.845 56.9396
365.376 81.0704
365.907 125.795
366.173 163.486
366.438 220.372
366.704 310.816
366.969 463.850
367.235 740.812
367.500 1261.98
367.750 2058.05
368.000 2625.06
368.250 2145.74
368.500 1372.36
368.659 1018.43
368.818 770.488
369.135 475.073
369.453 320.273
369.771 231.324
370.088 175.989
370.406 139.355
371.041 95.4058
371.677 70.9677
372.312 55.9142
373.583 38.9270
374.853 29.9124
376.124 24.4592
378.665 18.2962
381.207 14.9287
383.748 12.7899
388.831 10.1435
393.913 8.44896
396.455 7.76976
398.996 7.17034
401.537 6.70305
402.808 6.60497
404.078 6.77433
404.714 7.08578
405.349 7.71477
405.984 8.96216
406.620 11.5411
407.255 17.4419
407.573 23.3584
407.890 33.8040
408.208 54.2412
408.367 72.3217
408.526 100.864
408.685 149.020
408.843 237.299
408.923 310.194
409.002 416.662
409.082 575.443
409.161 812.090
409.281 1334.84
409.400 1716.18
409.520 1413.37
409.639 910.381
409.718 671.129
409.797 505.232
409.955 310.400
410.112 209.537
410.270 152.006
410.428 116.331
410.586 92.7605
410.901 64.4767
411.216 48.7179
411.532 38.9862
412.163 27.9602
412.794 22.0830
413.425 18.5196
414.056 16.1600
414.686 14.4945
415.948 12.3107
417.210 10.9431
419.734 9.30447
422.257 8.32669
424.781 7.65034
429.828 6.71980
439.923 5.53025
450.018 4.70145
460.112 4.19722
465.160 4.23863
470.207 4.84464
472.731 5.61935
475.254 7.04538
477.778 9.72125
480.301 15.0368
481.563 19.6654
482.825 26.7583
484.087 38.1696
485.349 57.7696
486.611 94.6360
487.242 126.012
487.872 173.663
488.503 249.844
489.134 379.331
489.765 614.431
490.396 1057.95
490.998 1751.48
491.600 2263.98
492.202 1872.57
492.804 1210.78
493.254 860.615
493.704 628.996
494.153 475.691
494.603 371.502
495.503 245.280
496.402 175.513
497.302 133.116
498.201 105.426
500.000 72.5135
502.236 51.0674
504.471 38.9916
506.707 31.3909
508.942 26.1902
511.178 22.3598
513.413 19.2819
514.531 17.8599
515.090 17.1466
515.649 16.4273
516.207 15.7460
516.487 15.4898
516.766 15.4366
517.046 15.9988
517.185 16.8937
517.325 18.7940
517.465 23.0093
517.535 26.9886
517.605 33.4733
517.674 44.6751
517.744 65.3951
517.779 82.5120
517.814 107.235
517.849 143.594
517.884 196.952
517.913 257.715
517.942 330.551
518.000 440.604
518.029 430.554
518.058 381.184
518.116 260.485
518.155 199.590
518.194 156.691
518.272 105.172
518.349 77.8273
518.427 61.8389
518.505 51.6974
518.582 44.8389
518.738 36.3526
518.893 31.4144
519.048 28.2355
519.359 24.4182
519.670 22.2107
519.981 20.7605
520.602 18.9269
521.223 17.7648
521.845 16.9234
523.088 15.7112
525.573 14.0909
528.059 12.9214
533.031 11.1492
538.002 9.71132
542.974 8.34484
545.459 7.61793
547.945 6.82417
549.188 6.40027
550.431 5.97283
551.674 5.59043
552.917 5.41136
553.538 5.53684
554.160 5.99811
554.781 7.15369
555.402 9.86573
555.713 12.4290
556.024 16.5390
556.335 23.4063
556.645 35.5736
556.801 45.2602
556.956 59.0195
557.111 79.2346
557.267 110.090
557.422 159.560
557.577 243.381
557.733 394.348
557.888 675.046
558.044 1141.30
558.200 1507.53
558.356 1273.50
558.512 840.346
558.619 622.447
558.726 471.636
558.833 367.736
558.939 294.749
559.153 203.077
559.367 150.495
559.580 117.639
559.794 95.7325
560.221 69.0848
560.648 53.9456
561.076 44.4152
561.930 33.3488
562.785 27.2599
563.639 23.4658
564.494 20.8942
565.348 19.0431
567.058 16.5606
568.767 14.9697
570.476 13.8576
572.185 13.0310
575.603 11.8704
579.021 11.0796
585.857 10.0368
592.694 9.35106
599.530 8.84764
613.203 8.12817
626.875 7.61394
640.548 7.20661
647.384 7.02305
654.221 6.83752
657.639 6.73474
659.348 6.67694
661.057 6.61177
662.766 6.53620
663.621 6.49477
664.475 6.45541
664.902 6.44119
665.330 6.43800
665.757 6.46092
666.184 6.54940
666.398 6.64901
666.612 6.82497
666.825 7.14713
667.039 7.77679
667.252 9.14874
667.359 10.4728
667.466 12.7308
667.573 16.9382
667.626 20.4876
667.680 25.8327
667.733 34.2824
667.786 48.4238
667.840 73.5503
667.867 93.1716
667.893 119.651
667.920 154.038
667.947 194.322
668.000 249.856
668.053 208.151
668.107 136.939
668.142 103.194
668.176 79.5927
668.246 51.6087
668.315 36.9621
668.385 28.5304
668.454 23.2703
668.524 19.7734
668.663 15.5507
668.802 13.1797
668.941 11.7072
669.219 10.0275
669.497 9.12510
669.775 8.57521
670.053 8.20976
670.331 7.95151
670.887 7.61295
671.443 7.40185
672.000 7.25750
672.556 7.15208
673.668 7.00661
674.780 6.90868
677.004 6.77886
679.229 6.69037
681.453 6.62160
685.902 6.51310
694.799 6.34620
703.696 6.20835
712.594 6.08615
721.491 5.97598
725.940 5.92662
728.164 5.90475
730.388 5.88683
732.613 5.87821
733.725 5.88226
734.837 5.89990
735.393 5.91891
735.949 5.95104
736.505 6.00719
737.061 6.11266
737.339 6.20200
737.617 6.33753
737.896 6.55623
738.174 6.94031
738.452 7.70643
738.591 8.41035
738.730 9.58036
738.869 11.7303
738.938 13.5454
739.008 16.3067
739.077 20.7680
739.147 28.5366
739.216 43.2841
739.251 55.5907
739.286 72.9909
739.343 113.314
739.400 140.185
739.457 113.291
739.514 72.9633
739.582 43.7330
739.650 28.9982
739.718 21.1502
739.786 16.6149
739.854 13.7882
739.922 11.9230
740.057 9.70636
740.193 8.49373
740.329 7.76201
740.600 6.96154
740.872 6.55634
741.143 6.32306
741.415 6.17611
741.686 6.07732
742.229 5.95587
742.772 5.88586
743.858 5.80978
744.944 5.76898
746.029 5.74291
748.201 5.71143
750.373 5.69971
751.458 5.70510
752.544 5.72701
753.087 5.75014
753.630 5.78881
754.173 5.85593
754.716 5.98142
754.987 6.08745
755.259 6.24810
755.530 6.50708
755.802 6.96151
756.073 7.86716
756.209 8.69858
756.344 10.0794
756.480 12.6158
756.548 14.7554
756.616 18.0011
756.684 23.2435
756.752 32.3338
756.820 49.5471
756.853 63.8119
756.887 83.9730
756.944 131.089
757.000 162.441
757.056 131.011
757.113 83.9882
757.161 56.9732
757.210 40.6388
757.259 30.6031
757.307 24.1751
757.404 16.8742
757.502 13.1079
757.599 10.9359
757.696 9.57664
757.890 8.04045
758.085 7.23969
758.279 6.77091
758.474 6.47281
758.668 6.27138
759.057 6.02376
759.446 5.88237
759.835 5.79332
760.223 5.73303
761.001 5.65745
761.779 5.61193
763.334 5.55782
764.890 5.52377
766.445 5.49781
769.555 5.45581
775.777 5.38487
781.998 5.31898
788.219 5.25503
794.441 5.19467
797.551 5.16995
799.107 5.16218
800.662 5.16223
802.217 5.18213
802.995 5.21053
803.773 5.26913
804.162 5.32111
804.550 5.40206
804.939 5.53575
805.328 5.77636
805.523 5.97492
805.717 6.27053
805.911 6.73740
806.106 7.53595
806.300 9.06742
806.397 10.4191
806.495 12.5715
806.592 16.2824
806.689 23.4080
806.738 29.6174
806.786 39.2101
806.835 54.6061
806.883 79.5766
806.942 124.414
807.000 154.278
807.058 124.381
807.117 79.6384
807.160 56.9727
807.203 42.1793
807.246 32.5014
807.289 25.9942
807.375 18.2328
807.461 14.0360
807.547 11.5410
807.633 9.94646
807.805 8.10890
807.977 7.13261
808.149 6.55389
808.321 6.18292
808.493 5.93094
808.837 5.61941
809.180 5.44076
809.524 5.32806
809.868 5.25181
810.556 5.15654
811.244 5.09960
812.620 5.03278
813.996 4.99127
815.371 4.95964
818.123 4.90727
823.626 4.80972
829.129 4.69932
834.632 4.55624
837.384 4.46211
840.135 4.34243
841.511 4.26900
842.887 4.18397
844.263 4.08652
845.638 3.98231
846.326 3.93616
847.014 3.90899
847.702 3.93341
848.390 4.09801
848.734 4.30376
849.078 4.68462
849.422 5.40777
849.766 6.86451
850.110 10.1294
850.282 13.3471
850.454 18.9245
850.540 23.3194
850.626 29.5406
850.712 38.6650
850.798 52.6211
850.884 75.1893
850.970 114.076
851.056 185.988
851.099 244.186
851.141 324.675
851.221 537.229
851.300 696.153
851.379 578.652
851.459 376.475
851.526 257.805
851.593 183.417
851.660 136.425
851.727 105.636
851.861 69.5904
851.995 50.3008
852.129 38.8071
852.263 31.3945
852.532 22.6808
852.800 17.8970
853.068 14.9591
853.336 13.0065
853.604 11.6316
854.141 9.84895
854.677 8.76103
855.214 8.03642
855.750 7.52280
856.823 6.84757
857.896 6.42576
858.969 6.13760
860.042 5.92793
862.187 5.64133
864.333 5.45185
868.624 5.20811
872.916 5.04798
877.207 4.92572
885.790 4.72741
894.373 4.53843
898.665 4.43174
902.956 4.30452
907.248 4.13826
909.393 4.03004
911.539 3.89631
912.612 3.81798
913.685 3.73297
914.758 3.64785
915.830 3.58802
916.367 3.59171
916.903 3.65315
917.440 3.84123
917.976 4.32921
918.244 4.81652
918.513 5.62890
918.781 7.04590
919.049 9.69119
919.183 11.8964
919.317 15.1633
919.451 20.2153
919.585 28.4719
919.719 42.9821
919.787 54.5609
919.854 71.0692
919.921 95.4630
919.988 132.668
920.055 191.336
920.122 284.147
920.211 472.096
920.300 613.950
920.389 512.142
920.478 334.498
920.556 227.295
920.634 160.889
920.711 119.351
920.789 92.3245
920.944 60.8905
921.100 44.1536
921.255 34.1977
921.410 27.7859
921.721 20.2445
922.032 16.0961
922.342 13.5413
922.653 11.8383
922.963 10.6356
923.585 9.06979
924.206 8.10868
924.827 7.46525
925.449 7.00705
926.691 6.40076
927.934 6.01888
929.176 5.75604
930.419 5.56342
932.904 5.29765
935.389 5.11985
940.359 4.88805
945.329 4.73411
950.299 4.61680
960.239 4.43300
980.120 4.13141
990.060 3.98103
1000.00 3.81537
1000.00 3.81535
1000.01 3.81528
1000.01 3.81521
1000.02 3.81507
1000.03 3.81480
1000.06 3.81426
1000.12 3.81318
1000.24 3.81100
1000.48 3.80664
1000.97 3.79785
1001.93 3.78004
1003.86 3.74326
1007.72 3.66419
1011.58 3.57510
1015.43 3.47080
1019.29 3.34153
1021.22 3.26204
1023.15 3.16810
1025.08 3.05767
1026.04 3.00032
1027.01 2.95613
1027.49 2.95165
1027.97 2.97760
1028.45 3.07050
1028.94 3.32288
1029.18 3.57924
1029.42 4.01115
1029.66 4.77257
1029.90 6.21285
1030.14 9.24982
1030.26 12.1249
1030.38 16.8835
1030.50 25.5831
1030.56 32.6809
1030.62 43.1019
1030.68 59.3786
1030.74 85.1482
1030.80 128.403
1030.86 202.352
1030.93 333.802
1031.00 431.444
1031.07 357.677
1031.14 232.187
1031.19 161.361
1031.25 116.765
1031.30 87.9163
1031.35 68.6428
1031.46 45.6964
1031.57 33.2162
1031.68 25.7082
1031.79 20.8374
1032.00 15.0843
1032.22 11.9163
1032.43 9.96736
1032.65 8.67154
1032.87 7.75905
1033.30 6.57371
1033.73 5.85125
1034.16 5.36860
1034.59 5.02481
1035.46 4.56749
1036.32 4.27563
1038.05 3.91360
1039.78 3.68340
1041.51 3.50965
1044.97 3.22458
1048.43 2.94629
1050.16 2.79395
1051.88 2.63336
1052.75 2.55713
1053.61 2.49791
1054.48 2.48767
1055.34 2.61537
1055.78 2.80333
1056.21 3.16849
1056.64 3.88270
1057.07 5.35009
1057.29 6.66192
1057.50 8.69286
1057.72 12.0050
1057.94 17.7724
1058.04 22.3257
1058.15 28.7801
1058.26 38.2581
1058.37 52.7908
1058.48 76.2897
1058.58 116.804
1058.69 191.759
1058.75 252.441
1058.80 336.645
1058.90 560.229
1059.00 728.764
1059.10 606.133
1059.20 393.965
1059.29 267.862
1059.37 190.149
1059.46 140.655
1059.54 108.653
1059.71 71.0494
1059.88 50.9618
1060.06 38.9992
1060.23 31.2832
1060.57 22.2052
1060.91 17.2140
1061.25 14.1407
1061.59 12.0932
1061.94 10.6478
1062.62 8.76660
1063.30 7.61135
1063.99 6.83682
1064.67 6.28384
1066.04 5.54840
1067.41 5.08027
1070.14 4.51013
1072.88 4.16373
1075.61 3.92020
1081.09 3.57445
1086.56 3.31274
1092.03 3.08512
1102.97 2.66016
1113.91 2.25179
1119.38 2.09261
1124.86 2.07153
1127.59 2.19673
1130.33 2.52724
1133.06 3.27520
1135.80 4.94816
1137.17 6.49913
1138.53 8.96598
1139.90 13.0692
1141.27 20.3304
1142.64 34.4078
1143.32 46.6486
1144.01 65.5440
1144.69 96.3015
1145.37 149.692
1146.06 249.166
1146.74 442.456
1147.37 741.079
1148.00 969.568
1148.63 812.528
1149.26 532.118
1149.81 362.186
1150.36 256.555
1150.90 190.167
1151.45 146.755
1152.54 96.0527
1153.64 68.9460
1154.73 52.7431
1155.83 42.2670
1158.02 29.8739
1160.20 23.0003
1162.39 18.7307
1166.77 13.8110
1171.15 11.0973
1175.53 9.38011
1184.28 7.28395
1193.04 5.97109
1197.41 5.46357
1201.79 5.05867
1206.17 4.89177
1208.36 5.06093
1210.55 5.69965
1211.64 6.39791
1212.73 7.60121
1213.83 9.74841
1214.92 13.8139
1215.47 17.2389
1216.02 22.3337
1216.57 30.2592
1217.11 43.3017
1217.66 66.4298
1218.21 111.791
1218.48 151.767
1218.75 213.408
1219.03 312.495
1219.30 472.132
1219.65 787.174
1220.00 1025.51
1220.35 852.075
1220.70 553.099
1221.07 344.243
1221.45 228.927
1221.82 162.677
1222.19 122.257
1222.57 95.8895
1222.94 77.8763
1223.69 55.4391
1224.44 42.4933
1225.18 34.3010
1226.68 24.8069
1228.17 19.6269
1229.66 16.4377
1231.16 14.3028
1232.65 12.7844
1235.64 10.7751
1238.63 9.50677
1241.61 8.62741
1244.60 7.97562
1250.58 7.05282
1256.55 6.40334
1268.50 5.45729
1280.45 4.66218
1286.43 4.25195
1292.40 3.80472
1295.39 3.56464
1298.38 3.32071
1301.36 3.09853
1304.35 2.98404
1305.84 3.04321
1307.34 3.28633
1308.83 3.91284
1310.33 5.40441
1311.07 6.82661
1311.82 9.12226
1312.57 12.9863
1313.31 19.8962
1313.69 25.4505
1314.06 33.3840
1314.43 45.1761
1314.81 63.3623
1315.18 93.0743
1315.55 144.496
1315.93 240.070
1316.30 425.633
1316.65 719.636
1317.00 949.568
1317.35 798.193
1317.70 523.599
1318.02 350.385
1318.34 245.407
1318.66 180.853
1318.98 139.392
1319.63 91.4887
1320.27 66.1683
1320.91 51.1001
1321.55 41.3854
1322.83 29.8970
1324.11 23.5137
1325.40 19.5418
1326.68 16.8614
1327.96 14.9467
1330.53 12.4044
1333.09 10.7963
1335.66 9.67892
1338.22 8.84475
1343.35 7.62650
1345.92 7.13113
1348.48 6.66162
1351.05 6.19206
1352.33 5.96022
1353.61 5.75980
1354.26 5.69917
1354.90 5.70697
1355.54 5.86525
1356.18 6.38043
1356.82 7.85997
1357.14 9.50244
1357.46 12.5546
1357.78 18.8033
1357.94 24.4446
1358.10 33.4498
1358.26 48.8523
1358.42 76.9653
1358.50 100.048
1358.58 133.490
1358.66 182.800
1358.74 255.373
1358.87 427.497
1359.00 561.457
1359.13 473.734
1359.26 313.191
1359.34 236.195
1359.42 181.791
1359.59 116.456
1359.75 81.8149
1359.92 61.6534
1360.09 48.9521
1360.25 40.4323
1360.58 30.0225
1360.92 24.0905
1361.25 20.3511
1361.91 16.0063
1362.58 13.6157
1363.24 12.1254
1363.90 11.1143
1364.57 10.3851
1365.90 9.40293
1367.22 8.76832
1369.88 7.98276
1372.54 7.50002
1375.19 7.16156
1380.50 6.69631
1385.82 6.37287
1391.13 6.12278
1401.75 5.73929
1423.00 5.18185
1444.25 4.72253
1465.50 4.25800
1476.12 3.99351
1486.74 3.68224
1497.37 3.29056
1502.68 3.04988
1507.99 2.77580
1510.65 2.63292
1513.30 2.50213
1515.96 2.42223
1518.62 2.50461
1519.94 2.69806
1521.27 3.11444
1522.60 3.97248
1523.93 5.78288
1524.59 7.40463
1525.26 9.92245
1525.92 14.0004
1526.58 20.9947
1527.25 33.9742
1527.58 44.8030
1527.91 60.8709
1528.24 85.6974
1528.58 125.844
1528.91 193.706
1529.24 310.498
1529.62 523.162
1530.00 689.147
1530.38 582.117
1530.76 384.371
1531.00 290.660
1531.24 223.901
1531.73 142.940
1532.21 99.5873
1532.70 74.2326
1533.18 58.1495
1533.66 47.3290
1534.63 34.0800
1535.60 26.5012
1536.57 21.7214
1538.50 16.1598
1540.44 13.1008
1542.37 11.1968
1544.31 9.90785
1546.24 8.98101
1550.11 7.73659
1553.98 6.93548
1561.72 5.94243
1569.46 5.31939
1577.20 4.86079
1592.68 4.14342
1608.15 3.49346
1615.89 3.16268
1623.63 2.84591
1627.50 2.72039
1631.37 2.66254
1635.24 2.76696
1639.11 3.27940
1641.05 3.87767
1642.98 4.94235
1644.92 6.88390
1646.85 10.6158
1647.82 13.7737
1648.79 18.4747
1649.75 25.7691
1650.72 37.6520
1651.69 58.3770
1652.66 97.7023
1653.14 131.105
1653.62 180.844
1654.11 256.975
1654.59 373.203
1655.30 629.017
1656.00 828.575
1656.71 699.768
1657.41 461.945
1657.99 322.086
1658.58 232.555
1659.16 175.014
1659.75 136.738
1660.91 91.2724
1662.08 66.5122
1663.25 51.5479
1664.42 41.7784
1666.75 30.1194
1669.09 23.5982
1671.43 19.5232
1673.76 16.7720
1676.10 14.8059
1680.77 12.2041
1685.44 10.5700
1690.11 9.44974
1694.79 8.63141
1704.13 7.50279
1713.47 6.74128
1732.16 5.70513
1750.85 4.91554
1760.19 4.53451
1769.54 4.13206
1778.88 3.69597
1783.55 3.47988
1788.22 3.31760
1790.56 3.30158
1792.90 3.39348
1795.23 3.71633
1797.57 4.57177
1798.74 5.42047
1799.90 6.81770
1801.07 9.20594
1802.24 13.5295
1803.41 22.0540
1803.99 29.5397
1804.58 41.1592
1805.16 60.1535
1805.74 93.2084
1806.33 154.813
1806.91 274.241
1807.46 461.911
1808.00 609.042
1808.55 514.665
1809.10 339.718
1809.65 220.602
1810.21 151.539
1810.76 110.539
1811.31 84.7875
1811.87 67.6940
1812.42 55.7959
1813.52 40.7420
1814.63 31.8727
1815.74 26.1729
1817.95 19.4516
1820.16 15.7137
1822.37 13.3778
1824.58 11.7941
1826.79 10.6550
1831.21 9.12907
1835.64 8.15126
1844.48 6.95046
1853.33 6.21027
1862.17 5.67756
1879.86 4.87477
1897.56 4.16910
1906.40 3.79220
1915.25 3.36367
1924.09 2.84208
1928.52 2.52865
1932.94 2.17349
1937.36 1.80027
1939.57 1.65000
1941.78 1.61545
1943.99 1.95076
1945.10 2.49109
1946.21 3.64297
1946.76 4.66516
1947.31 6.23095
1947.86 8.72815
1948.42 12.9461
1948.97 20.7748
1949.25 27.4239
1949.52 37.5495
1949.80 54.1521
1950.08 83.6780
1950.21 107.706
1950.35 142.599
1950.49 194.503
1950.63 271.433
1950.81 414.148
1951.00 487.950
1951.19 363.896
1951.37 210.494
1951.50 140.391
1951.63 96.1146
1951.77 67.9130
1951.90 50.1419
1952.03 38.8740
1952.16 32.2063
1952.29 28.8742
1952.42 28.3591
1952.55 30.4891
1952.68 35.4102
1952.81 43.7331
1952.94 56.2895
1953.07 74.8260
1953.20 101.394
1953.33 139.785
1953.46 193.703
1953.73 367.373
1954.00 533.747
1954.14 538.502
1954.27 488.681
1954.54 345.009
1954.72 268.118
1954.90 211.698
1955.25 141.343
1955.61 102.231
1955.96 78.5377
1956.32 63.0441
1956.67 52.3597
1957.38 38.7962
1958.09 30.7005
1958.80 25.4152
1960.22 19.0192
1961.64 15.3422
1963.06 12.9784
1965.91 10.1345
1968.75 8.48246
1971.59 7.39478
1977.27 6.02411
1982.95 5.18179
1988.64 4.65430
1994.32 4.48198
2000.00 5.09046
2004.27 7.05378
2006.41 9.32306
2008.55 13.5924
2010.68 22.2812
2011.75 30.0659
2012.82 42.3348
2013.89 62.7376
2014.95 98.9927
2016.02 168.426
2016.56 226.236
2017.09 308.198
2018.05 523.183
2019.00 694.452
2019.96 590.487
2020.91 392.498
2021.85 258.291
2022.79 179.184
2023.74 131.639
2024.68 101.507
2025.62 81.3716
2026.56 67.2819
2028.45 49.3385
2030.33 38.7107
2032.21 31.8456
2035.98 23.7008
2039.75 19.1404
2043.52 16.2723
2047.29 14.3179
2051.05 12.9063
2058.59 11.0051
2066.12 9.78019
2081.19 8.27036
2096.26 7.34142
2111.33 6.67816
2141.48 5.69465
2171.62 4.84344
2186.69 4.38882
2201.76 3.86905
2216.83 3.23240
2224.36 2.84839
2231.90 2.41125
2239.44 1.94324
2243.20 1.74173
2246.97 1.65921
2250.74 1.97780
2252.62 2.55930
2254.51 3.86536
2255.45 5.06410
2256.39 6.94642
2257.33 10.0246
2258.27 15.3590
2259.22 25.4036
2259.69 33.9142
2260.16 46.7471
2260.63 67.0264
2261.10 100.887
2261.57 160.760
2262.04 269.542
2262.52 449.444
2263.00 584.708
2263.48 485.768
2263.96 314.866
2264.35 217.701
2264.74 155.598
2265.13 115.699
2265.52 89.1743
2266.30 57.7096
2267.08 40.6228
2267.86 30.2876
2268.64 23.5318
2270.20 15.4157
2271.76 10.7736
2273.32 7.76577
2276.44 4.02071
2278.00 2.77852
2279.55 1.87636
2280.33 1.58078
2281.11 1.43117
2281.50 1.42887
2281.89 1.48889
2282.28 1.62577
2282.67 1.85790
2283.06 2.21171
2283.45 2.72056
2283.84 3.43013
2284.23 4.40296
2284.62 5.72593
2285.01 7.52182
2285.40 9.96744
2285.79 13.3128
2286.18 17.9661
2286.57 24.5259
2286.96 33.9573
2287.35 47.8023
2287.74 68.8061
2288.13 101.564
2288.52 153.996
2288.91 238.071
2289.46 425.914
2290.00 592.227
2290.55 525.071
2291.10 362.312
2291.73 233.361
2292.37 162.960
2293.00 124.431
2293.63 104.171
2294.26 97.1953
2294.90 105.376
2295.21 118.493
2295.53 141.896
2295.84 182.065
2296.16 248.994
2296.58 389.461
2297.00 501.655
2297.43 429.901
2297.85 294.696
2298.13 227.722
2298.42 180.418
2298.98 123.392
2299.55 92.5823
2300.11 74.1337
2300.68 62.1033
2301.24 53.7198
2302.37 42.8708
2303.50 36.1646
2304.63 31.5959
2306.89 25.7316
2309.15 22.0930
2311.41 19.5942
2315.93 16.3544
2320.45 14.3235
2324.97 12.9189
2334.01 11.0795
2343.05 9.90547
2352.09 9.07136
2370.17 7.90795
2388.25 7.03869
2397.30 6.62918
2406.34 6.18998
2415.38 5.65946
2419.90 5.32260
2424.42 4.89742
2426.68 4.63442
2428.94 4.32387
2431.20 3.95249
2433.46 3.51144
2434.59 3.27108
2435.72 3.03767
2436.85 2.86316
2437.98 2.89848
2439.11 3.63066
2439.67 4.71632
2440.24 6.99655
2440.52 9.00423
2440.80 12.0331
2441.08 16.7764
2441.37 24.4496
2441.65 37.6130
2441.93 61.5310
2442.07 81.0504
2442.21 108.693
2442.36 148.560
2442.50 205.856
2442.75 359.752
2443.00 490.909
2443.25 428.354
2443.50 291.635
2443.74 199.043
2443.98 142.557
2444.22 107.526
2444.46 84.7795
2444.93 58.2296
2445.41 43.9625
2445.89 35.3234
2446.36 29.6671
2447.32 22.8310
2448.27 18.9351
2449.22 16.4542
2450.18 14.7491
2451.13 13.5117
2453.03 11.8381
2454.94 10.7619
2456.84 10.0096
2458.75 9.45253
2462.56 8.67485
2466.37 8.14879
2473.99 7.45579
2481.62 6.98969
2489.24 6.62847
2504.48 6.03612
2519.73 5.47930
2527.35 5.18562
2534.97 4.88257
2538.78 4.73972
2542.59 4.62623
2546.41 4.59371
2550.22 4.78100
2554.03 5.61516
2555.93 6.66812
2557.84 8.75219
2559.74 13.2040
2560.70 17.3387
2561.65 24.0362
2562.60 35.5689
2563.56 56.9682
2564.03 74.6879
2564.51 100.421
2564.98 138.509
2565.46 194.800
2566.23 331.502
2567.00 442.222
2567.77 378.463
2568.54 253.548
2569.00 196.459
2569.47 154.863
2570.39 102.781
2571.32 73.9590
2572.25 56.6795
2573.18 45.5565
2574.10 37.9715
2575.96 28.5377
2577.81 23.0587
2579.66 19.5546
2583.37 15.4185
2587.08 13.1003
2590.79 11.6332
2594.49 10.6232
2598.20 9.88437
2605.62 8.86599
2613.03 8.18120
2627.86 7.25443
2642.69 6.54407
2650.11 6.18975
2657.52 5.79340
2664.94 5.30687
2668.65 5.00927
2672.35 4.66935
2674.21 4.49080
2676.06 4.32504
2677.92 4.21692
2679.77 4.29299
2681.62 4.95494
2682.55 5.88018
2683.48 7.78299
2684.40 11.9305
2684.87 15.8090
2685.33 22.0739
2685.79 32.7884
2686.26 52.2824
2686.49 68.1205
2686.72 90.6202
2686.95 123.282
2687.18 170.122
2687.59 294.441
2688.00 398.814
2688.41 346.484
2688.82 235.594
2689.07 183.345
2689.32 145.115
2689.82 97.3187
2690.32 70.7426
2690.82 54.7862
2691.32 44.4530
2691.81 37.3917
2692.81 28.5541
2693.81 23.3756
2694.81 20.0442
2696.81 16.0780
2698.80 13.8374
2700.80 12.4143
2702.80 11.4348
2704.80 10.7207
2708.79 9.74893
2712.78 9.11625
2716.78 8.66822
2720.77 8.33170
2728.76 7.85257
2736.75 7.51981
2752.73 7.06703
2768.71 6.75183
2784.68 6.50191
2816.64 6.08262
2848.60 5.66759
2864.57 5.42510
2880.55 5.12808
2888.54 4.94619
2896.53 4.73123
2904.52 4.47177
2912.51 4.15589
2916.50 3.97655
2920.49 3.79124
2924.49 3.62595
2928.48 3.56344
2932.48 3.88727
2934.48 4.47244
2936.47 5.79120
2938.47 8.87255
2939.47 11.8863
2940.47 16.9364
2941.47 25.9307
2942.46 43.2137
2942.96 57.9534
2943.46 79.8677
2943.96 113.168
2944.46 163.815
2945.23 283.987
2946.00 385.352
2946.77 334.944
2947.54 227.549
2948.08 170.931
2948.62 131.447
2949.16 104.126
2949.70 84.8544
2950.77 60.5016
2951.85 46.3980
2952.93 37.4899
2954.01 31.4876
2956.16 24.0893
2958.32 19.8089
2960.47 17.0717
2962.63 15.1912
2964.78 13.8293
2969.09 12.0027
2973.41 10.8429
2977.72 10.0450
2982.03 9.46356
2990.65 8.67300
2999.27 8.15939
3007.89 7.79694
3016.51 7.52584
3033.76 7.14290
3051.00 6.88039
3085.48 6.53128
3119.97 6.29768
3154.46 6.12165
3223.43 5.85645
3361.37 5.46870
3499.32 5.13309
3637.26 4.76738
3706.23 4.54444
3775.20 4.26620
3844.18 3.88533
3878.66 3.62614
3913.15 3.28790
3947.63 2.82096
3964.88 2.51457
3982.12 2.14615
3990.74 1.94163
3999.36 1.73686
4007.98 1.56798
4016.61 1.54237
4020.92 1.67155
4025.23 2.01083
4029.54 2.76226
4033.85 4.37693
4036.00 5.81015
4038.16 7.98899
4040.31 11.3986
4042.47 16.9420
4044.63 26.4201
4046.78 43.6589
4047.86 57.5853
4048.94 77.3521
4050.01 105.790
4051.09 146.466
4053.05 257.477
4055.00 352.853
4056.96 308.978
4058.91 210.959
4060.35 156.684
4061.78 119.339
4063.22 93.8216
4064.65 75.9962
4067.52 53.6820
4070.39 40.8520
4073.26 32.7815
4076.13 27.3483
4081.87 20.6408
4087.61 16.7427
4093.35 14.2315
4104.83 11.2158
4116.30 9.47192
4127.78 8.32365
4150.74 6.84960
4173.70 5.86116
4185.18 5.45837
4196.66 5.12273
4208.13 4.95735
4213.87 5.05816
4219.61 5.49223
4225.35 6.77735
4228.22 8.17409
4231.09 10.6841
4233.96 15.5038
4235.40 19.5948
4236.83 25.7109
4238.27 35.2141
4239.70 50.6007
4241.14 76.5319
4242.57 120.882
4244.29 206.484
4246.00 277.365
4247.72 239.578
4249.43 162.269
4251.04 111.156
4252.64 79.9060
4254.25 60.5681
4255.85 48.0383
4259.06 33.4772
4262.27 25.6616
4265.48 20.9482
4268.69 17.8590
4275.11 14.1280
4281.53 11.9900
4287.95 10.6143
4300.79 8.94101
4313.62 7.93801
4326.46 7.24172
4352.14 6.24908
4377.82 5.43205
4390.66 5.01358
4403.50 4.55890
4416.33 4.06974
4422.75 3.84651
4429.17 3.72763
4435.59 3.98656
4438.80 4.51858
4442.01 5.72545
4445.22 8.48788
4446.83 11.1073
4448.43 15.3490
4450.04 22.5336
4451.64 35.3804
4453.25 59.7844
4454.05 79.8010
4454.85 107.851
4456.43 190.658
4458.00 264.110
4459.58 234.497
4461.15 162.692
4462.63 113.548
4464.10 82.9767
4465.58 63.7867
4467.06 51.2197
4470.01 36.4107
4472.96 28.3318
4475.92 23.3978
4478.87 20.1298
4484.77 16.1383
4490.68 13.8292
4496.59 12.3384
4502.49 11.3006
4508.40 10.5374
4520.21 9.48842
4532.02 8.79766
4555.65 7.93024
4579.27 7.39209
4602.89 7.01240
4650.14 6.47942
4697.39 6.07692
4721.01 5.88816
4744.63 5.68843
4768.26 5.45149
4780.07 5.30217
4791.88 5.11214
4797.79 4.99208
4803.69 4.84593
4809.60 4.66133
4815.50 4.41769
4818.46 4.26367
4821.41 4.08076
4824.36 3.86344
4827.32 3.61345
4830.27 3.37517
4831.75 3.32531
4833.22 3.45165
4834.70 4.10104
4835.44 4.92707
4836.18 6.53245
4836.91 9.81281
4837.28 12.7051
4837.65 17.1414
4838.02 24.1974
4838.39 35.8950
4838.76 56.0938
4839.13 91.5829
4839.56 161.540
4840.00 223.275
4840.44 197.955
4840.87 137.303
4841.18 104.118
4841.50 80.8879
4841.81 64.7785
4842.12 53.3900
4842.74 38.9477
4843.36 30.5404
4843.98 25.1938
4844.60 21.5747
4845.85 17.0703
4847.09 14.4358
4848.33 12.7359
4849.58 11.5582
4850.82 10.6990
4853.31 9.53554
4855.79 8.78885
4858.28 8.27019
4860.76 7.88909
4865.74 7.36552
4870.71 7.02092
4875.68 6.77482
4880.66 6.58855
4890.60 6.32058
4900.55 6.13177
4920.44 5.86865
4940.33 5.67858
4960.22 5.52216
5000.00 5.24904
5034.73 5.01515
5069.45 4.75469
5104.22 4.42738
5121.61 4.21521
5139.00 3.94396
5156.38 3.56863
5165.08 3.31415
5173.77 2.98705
5178.12 2.78598
5182.46 2.55390
5186.81 2.28973
5191.16 2.00989
5195.50 1.80871
5197.68 1.85135
5199.85 2.19759
5200.94 2.61971
5202.02 3.36882
5203.11 4.70302
5204.20 7.14573
5205.28 11.8740
5205.83 15.8708
5206.37 21.7986
5206.91 30.8831
5207.46 45.2202
5208.00 68.5635
5208.54 106.881
5209.27 189.962
5210.00 263.194
5210.73 232.909
5211.46 160.711
5212.05 117.036
5212.64 87.9573
5213.22 68.6620
5213.81 55.5003
5214.99 39.3441
5216.16 30.2294
5217.34 24.5492
5218.51 20.7480
5220.86 16.0655
5223.21 13.3459
5225.57 11.5910
5230.27 9.47973
5234.97 8.25837
5239.67 7.45880
5249.07 6.45636
5258.48 5.82644
5267.88 5.36704
5286.69 4.66906
5305.49 4.08598
5314.90 3.82904
5324.30 3.64580
5333.70 3.71337
5338.40 4.01525
5343.10 4.77437
5347.81 6.61931
5350.16 8.44212
5352.51 11.5119
5354.86 17.0111
5357.21 27.7459
5358.39 37.0684
5359.56 51.2552
5360.74 73.4614
5361.91 108.287
5363.46 175.988
5365.00 221.903
5366.55 176.988
5368.10 108.318
5369.37 69.9181
5370.64 45.6808
5371.91 30.2491
5373.19 20.3572
5374.46 14.7407
5375.09 13.7319
5375.73 14.4635
5376.36 17.9059
5377.00 25.9413
5377.64 42.2515
5378.27 73.3461
5378.70 107.586
5379.14 153.729
5380.00 247.648
5380.43 262.188
5380.87 249.103
5381.73 190.959
5382.47 146.844
5383.22 115.706
5383.96 94.1947
5384.71 78.9979
5386.19 59.4918
5387.68 47.8037
5389.17 40.1269
5390.65 34.7343
5393.63 27.6966
5396.60 23.3255
5399.58 20.3553
5405.52 16.5878
5411.47 14.3042
5417.42 12.7750
5429.32 10.8576
5441.21 9.70182
5453.11 8.92528
5476.90 7.93479
5500.69 7.31245
5524.49 6.86778
5572.07 6.22071
5619.66 5.67851
5643.45 5.39020
5667.24 5.05236
5691.03 4.61169
5702.93 4.32285
5714.83 3.96199
5720.77 3.74733
5726.72 3.50918
5732.67 3.25765
5738.62 3.03760
5744.57 3.02548
5747.54 3.28056
5750.51 4.01371
5753.49 5.92003
5754.98 7.85513
5756.46 11.1397
5757.95 16.9801
5759.44 28.0346
5760.18 37.2346
5760.92 50.5847
5761.67 70.2714
5762.41 99.1478
5763.71 176.674
5765.00 246.371
5766.30 219.948
5767.60 153.173
5768.48 117.879
5769.37 92.6744
5770.25 74.8412
5771.13 62.0531
5772.90 45.5542
5774.66 35.7765
5776.43 29.4993
5778.19 25.2085
5781.72 19.8300
5785.25 16.6583
5788.78 14.5973
5795.84 12.1116
5802.90 10.6812
5809.96 9.75663
5817.02 9.11024
5824.08 8.63229
5838.20 7.96937
5852.31 7.52669
5866.43 7.20553
5880.55 6.95821
5908.79 6.59239
5937.03 6.32268
5993.50 5.91274
6049.98 5.55784
6078.22 5.37095
6106.45 5.15749
6134.69 4.88751
6148.81 4.71239
6162.93 4.48925
6177.05 4.18428
6184.11 3.98226
6191.17 3.73227
6194.70 3.58650
6198.23 3.42927
6201.76 3.27272
6205.29 3.15971
6208.82 3.24372
6210.58 3.51210
6212.35 4.17659
6214.11 5.78639
6214.99 7.36686
6215.88 9.99046
6216.76 14.5658
6217.64 23.0261
6218.08 29.9362
6218.52 39.8330
6218.96 54.1765
6219.41 74.8943
6220.20 132.068
6221.00 182.813
6221.80 162.474
6222.60 112.995
6223.54 72.6560
6224.48 50.4424
6225.42 37.7565
6226.35 29.9677
6227.29 24.8448
6228.23 21.2936
6230.11 16.7795
6231.99 14.0895
6233.87 12.3332
6237.63 10.2064
6241.39 8.97789
6245.15 8.18019
6248.90 7.61835
6252.66 7.19820
6260.18 6.60073
6267.70 6.18003
6282.73 5.56401
6297.76 5.02515
6305.28 4.72635
6312.79 4.36900
6316.55 4.15370
6320.31 3.90269
6324.07 3.60504
6327.83 3.25253
6331.59 2.86784
6333.47 2.71333
6335.34 2.69543
6337.22 3.12640
6338.16 3.79251
6339.10 5.17370
6340.04 8.11654
6340.51 10.7625
6340.98 14.8503
6341.45 21.4069
6341.92 32.3164
6342.39 51.1626
6342.86 84.1236
6343.43 151.382
6344.00 213.018
6344.57 191.745
6345.14 134.593
6345.67 95.3762
6346.19 70.5314
6346.72 54.7328
6347.24 44.2873
6348.29 31.8198
6349.34 24.9460
6350.39 20.7090
6351.44 17.8879
6353.54 14.4181
6355.64 12.3984
6357.73 11.0899
6359.83 10.1771
6361.93 9.50569
6366.13 8.58306
6370.33 7.97721
6374.53 7.54610
6378.72 7.22120
6387.12 6.75686
6395.51 6.43268
6412.30 5.98592
6429.09 5.66558
6445.88 5.40051
6479.47 4.92095
6513.05 4.40919
6529.84 4.11634
6546.63 3.79952
6563.42 3.51520
6571.81 3.46238
6580.21 3.61620
6588.61 4.34896
6592.80 5.24514
6597.00 6.92463
6601.20 10.1960
6603.30 12.9530
6605.40 17.0060
6607.49 23.1209
6609.59 32.5902
6611.69 47.5852
6613.79 71.3950
6616.90 128.164
6620.00 180.598
6623.11 163.131
6626.21 115.125
6629.13 81.5345
6632.05 60.4374
6634.97 47.1107
6637.89 38.3253
6643.73 27.8999
6649.57 22.1627
6655.41 18.6317
6661.25 16.2784
6672.93 13.3818
6684.62 11.6916
6696.30 10.5933
6707.98 9.82495
6719.66 9.25769
6743.02 8.47514
6766.38 7.95815
6789.74 7.58818
6813.11 7.30785
6859.83 6.90459
6906.55 6.62079
7000.00 6.22599
7106.93 5.90239
7213.85 5.63051
7320.78 5.36631
7427.71 5.07397
7534.63 4.70257
7588.10 4.45725
7641.56 4.13909
7668.29 3.93791
7695.02 3.69579
7721.75 3.39809
7748.48 3.02642
7761.85 2.80835
7775.22 2.57191
7788.58 2.33412
7801.95 2.15490
7815.31 2.24452
7822.00 2.59286
7828.68 3.45756
7832.02 4.26187
7835.36 5.50262
7838.70 7.44783
7842.05 10.5711
7845.39 15.7582
7848.73 24.7261
7852.07 40.9060
7855.41 70.6962
7859.21 129.282
7863.00 184.405
7866.80 167.874
7870.60 118.954
7873.32 91.3214
7876.03 71.7245
7878.75 57.9939
7881.47 48.2023
7886.90 35.6511
7892.33 28.2386
7897.76 23.4794
7903.19 20.2198
7914.06 16.1139
7924.92 13.6740
7935.79 12.0747
7957.51 10.1197
7979.24 8.97187
8000.97 8.21278
8044.43 7.25246
8087.89 6.64381
8131.34 6.19620
8218.26 5.49995
8305.17 4.86493
8348.63 4.53174
8392.08 4.19114
8435.54 3.91364
8457.27 3.88677
8479.00 4.09235
8500.73 4.90511
8511.59 5.83569
8522.45 7.49763
8533.32 10.5519
8544.18 16.4395
8549.61 21.3591
8555.05 28.4998
8560.48 38.9718
8565.91 54.2735
8575.96 98.7325
8586.00 141.487
8596.05 130.254
8606.10 93.7478
8618.05 62.4289
8630.00 44.7923
8630.00 12.8459
8700.00 12.8141
9180.00 12.6060
9660.00 12.4134
10000.0 12.2865
10140.0 12.2343
10620.0 12.0673
11100.0 11.9109
11580.0 11.7642
12060.0 11.6261
12540.0 11.4958
13020.0 11.3726
13484.0 11.2598
13500.0 11.2559
13680.0 11.2144
13680.0 11.2161
20000.0 10.9832
39539.6 10.2039
39539.7 10.2039
50000.0 9.42348
67622.6 8.84412
69751.6 8.77412
69751.6 8.77412
70000.0 8.76596
91245.2 8.31357
100000 8.12714
110508 8.00583
156131 7.47915
200000 6.97272
240582 6.70129
240582 6.70129
266638 6.52701
300000 6.30387
358491 6.01928
369035 5.96798
397929 5.82740
397929 5.82740
400000 5.81732
500000 5.43068
506004 5.41140
508335 5.40391
508335 5.40391
558621 5.24242
558621 5.24242
562575 5.22972
562575 5.22972
600000 5.10953
605866 5.09349
668115 4.92329
668115 4.92329
700000 4.83611
751959 4.71345
751959 4.71345
787747 4.62896
787747 4.62896
800000 4.60003
820190 4.55857
820190 4.55857
822218 4.55440
831342 4.53567
831342 4.53567
837222 4.52359
837222 4.52359
880006 4.43574
880006 4.43574
900000 4.39468
906467 4.38310
906467 4.38310
916504 4.36512
916504 4.36512
928163 4.34425
928163 4.34425
944587 4.31483
944587 4.31482
1.00000E+06 4.21559
1.00744E+06 4.20475
1.00745E+06 4.20474
1.02296E+06 4.18212
1.04019E+06 4.15701
1.04019E+06 4.15701
1.04323E+06 4.15258
1.04323E+06 4.15258
1.05337E+06 4.13780
1.05337E+06 4.13780
1.05763E+06 4.13159
1.14614E+06 4.00258
1.14756E+06 4.00051
1.14766E+06 4.00037
1.14867E+06 3.99890
1.14867E+06 3.99890
1.16895E+06 3.96933
1.20000E+06 3.92408
1.20849E+06 3.91489
1.28189E+06 3.83547
1.32488E+06 3.78895
1.32913E+06 3.78435
1.32914E+06 3.78435
1.33623E+06 3.77666
1.33623E+06 3.77666
1.35843E+06 3.75265
1.35843E+06 3.75264
1.40000E+06 3.70766
1.60000E+06 3.55424
1.74582E+06 3.48135
1.79144E+06 3.45855
1.79144E+06 3.45855
1.80000E+06 3.45427
1.95467E+06 3.41168
2.00000E+06 3.39920
2.07430E+06 3.39236
2.07430E+06 3.39236
2.20000E+06 3.38077
2.23753E+06 3.38266
2.37135E+06 3.38941
2.37135E+06 3.38941
2.40000E+06 3.39085
2.42204E+06 3.39424
2.42205E+06 3.39424
2.46260E+06 3.40047
2.53803E+06 3.41206
2.54573E+06 3.41324
2.54573E+06 3.41324
2.60000E+06 3.42157
2.61771E+06 3.42548
2.61772E+06 3.42548
2.64711E+06 3.43196
2.64712E+06 3.43196
2.77313E+06 3.45977
2.77314E+06 3.45977
2.80000E+06 3.46570
2.80122E+06 3.46601
2.85090E+06 3.47881
2.91781E+06 3.49603
2.95988E+06 3.50686
2.95988E+06 3.50686
3.00000E+06 3.51719
3.01209E+06 3.52031
3.01210E+06 3.52031
3.07394E+06 3.53622
3.20000E+06 3.56868
3.50000E+06 3.64592
3.70000E+06 3.69741
4.00000E+06 3.76100
4.50000E+06 3.84442
5.00000E+06 3.90349
5.38052E+06 3.92766
6.00000E+06 3.96699
6.87671E+06 3.97637
6.87671E+06 3.97637
7.00000E+06 3.97769
7.29937E+06 3.96956
8.00000E+06 3.95056
9.00000E+06 3.89574
1.00000E+07 3.81982
1.01379E+07 3.80691
1.01379E+07 3.80691
1.10000E+07 3.72617
1.19524E+07 3.62035
1.20000E+07 3.61506
1.30000E+07 3.48597
1.40000E+07 3.34112
1.50000E+07 3.19627
1.60000E+07 3.05142
1.67491E+07 2.95576
1.67491E+07 2.95575
1.70000E+07 2.92372
1.77774E+07 2.83974
1.77775E+07 2.83974
1.80000E+07 2.81569
1.90000E+07 2.72788
2.00000E+07 2.65743