Br-81(n,tot) ENDF/B-VII.1
Energy(eV) XS(b)
1.00000E-05 124.633
1.25000E-05 112.082
1.50000E-05 102.818
2.00000E-05 89.8137
2.75000E-05 77.4403
3.50000E-05 69.2971
4.25000E-05 63.4184
5.00000E-05 58.9179
6.25000E-05 53.3052
7.50000E-05 49.1621
0.000100000 43.3465
0.000125000 39.3777
0.000150000 36.4481
0.000200000 32.3358
0.000275000 28.4230
0.000350000 25.8479
0.000425000 23.9889
0.000500000 22.5658
0.000625000 20.7909
0.000750000 19.4807
0.00100000 17.6417
0.00125000 16.3867
0.00150000 15.4602
0.00200000 14.1598
0.00275000 12.9225
0.00350000 12.1082
0.00425000 11.5204
0.00500000 11.0704
0.00625000 10.5091
0.00750000 10.0948
0.0100000 9.51332
0.0125000 9.11648
0.0150000 8.82355
0.0200000 8.41238
0.0253000 8.11765
0.0314750 7.87320
0.0376500 7.69169
0.0500000 7.43552
0.0625000 7.25805
0.0750000 7.12704
0.100000 6.94313
0.125000 6.81760
0.150000 6.72491
0.200000 6.59473
0.275000 6.47073
0.350000 6.38898
0.500000 6.28446
0.750000 6.18552
1.00000 6.12585
1.50000 6.05362
2.00000 6.00905
2.75000 5.96451
3.50000 5.93315
5.00000 5.88866
7.50000 5.83733
10.0000 5.79740
15.0000 5.72954
20.0000 5.66648
27.5000 5.57057
35.0000 5.46669
50.0000 5.21319
62.5000 4.92026
68.7500 4.72652
75.0000 4.48502
81.2500 4.18229
84.3750 4.01164
87.5000 3.85344
90.6250 3.80552
92.1875 3.92829
93.7500 4.33149
95.3125 5.45943
96.0938 6.66748
96.8750 8.83010
97.2656 10.5516
97.6563 12.9903
98.0469 16.5520
98.4375 21.9598
98.8281 30.5993
99.0234 36.9339
99.2188 45.3804
99.4141 56.9350
99.6094 73.2391
99.8047 97.1510
100.000 133.982
100.126 169.350
100.253 219.682
100.379 294.344
100.506 410.900
100.632 605.666
100.758 959.823
100.822 1250.68
100.885 1674.06
100.948 2303.45
101.011 3236.44
101.106 5267.38
101.200 6693.62
101.295 5433.56
101.389 3445.36
101.455 2466.71
101.521 1809.84
101.587 1368.65
101.654 1065.42
101.786 694.650
101.918 488.576
102.050 363.321
102.182 281.897
102.447 185.978
102.711 133.680
102.976 101.975
103.240 81.2305
103.505 66.8683
104.033 48.7012
104.562 37.9865
105.091 31.0811
105.620 26.3371
106.678 20.3529
107.736 16.8098
108.793 14.5055
109.851 12.9047
111.967 10.8537
114.082 9.62152
118.313 8.32508
120.429 8.05687
122.544 8.05629
124.660 8.47186
126.775 9.72960
127.833 11.0075
128.891 13.1442
129.948 16.8931
131.006 24.0073
131.535 30.0768
132.064 39.3142
132.593 54.1862
133.122 80.0216
133.650 130.064
133.915 174.284
134.179 244.307
134.444 363.507
134.708 586.185
134.840 774.073
134.973 1054.58
135.105 1484.79
135.237 2146.27
135.419 3484.22
135.600 4420.38
135.782 3593.93
135.963 2285.60
136.088 1648.08
136.213 1216.02
136.338 923.898
136.463 722.210
136.714 474.044
136.964 335.433
137.214 250.900
137.464 195.784
137.964 130.683
138.465 95.1124
138.965 73.5011
139.465 59.3412
139.965 49.5259
140.966 37.0918
141.967 29.7410
142.967 24.9919
143.968 21.7206
145.969 17.5771
147.970 15.1075
149.971 13.4894
151.972 12.3556
155.975 10.8805
159.977 9.96596
163.979 9.34282
167.982 8.88900
175.986 8.26504
183.991 7.84409
191.995 7.52061
195.998 7.37380
197.999 7.30288
199.000 7.27054
200.000 7.24535
201.218 7.24565
201.827 7.28279
202.436 7.38971
202.740 7.49978
203.044 7.68620
203.349 8.01709
203.653 8.64937
203.958 10.0098
204.110 11.3214
204.262 13.5723
204.414 17.8322
204.491 21.4974
204.567 27.1396
204.643 36.3485
204.719 52.5056
204.795 83.2939
204.833 108.992
204.871 145.353
204.903 186.227
204.936 233.543
205.000 296.863
205.065 244.595
205.129 159.180
205.178 113.602
205.227 83.8686
205.277 64.4351
205.326 51.3832
205.424 35.7236
205.522 27.1918
205.621 22.0577
205.719 18.7391
205.916 14.8381
206.113 12.7092
206.309 11.4119
206.506 10.5574
206.703 9.96135
207.096 9.19749
207.489 8.73812
207.883 8.43561
208.276 8.22305
209.063 7.94543
209.849 7.77210
211.423 7.56448
212.996 7.44002
214.570 7.35322
217.716 7.23221
224.010 7.07446
230.304 6.96068
242.891 6.78855
246.038 6.75412
249.184 6.72652
250.758 6.72012
251.545 6.72227
252.331 6.73302
253.118 6.76468
253.511 6.79936
253.905 6.86389
254.298 6.99900
254.495 7.12758
254.691 7.34774
254.888 7.76966
254.986 8.14123
255.085 8.73006
255.183 9.74033
255.281 11.6594
255.331 13.3160
255.380 15.8424
255.429 19.8481
255.478 26.2201
255.539 37.9341
255.600 45.7322
255.661 37.9397
255.722 26.2263
255.762 20.8809
255.801 17.1974
255.880 12.9007
255.959 10.7038
256.038 9.46773
256.117 8.71144
256.196 8.21928
256.354 7.64051
256.512 7.32728
256.670 7.13930
256.985 6.93404
257.301 6.82963
257.617 6.76872
258.249 6.70250
258.881 6.66744
259.512 6.64524
260.776 6.61683
263.302 6.58126
265.829 6.55404
275.936 6.46340
296.150 6.30830
316.364 6.17088
321.418 6.13916
326.471 6.11025
328.998 6.09904
330.261 6.09580
331.525 6.09634
332.788 6.10612
333.420 6.11938
334.051 6.14608
334.683 6.20528
334.999 6.26383
335.315 6.36757
335.631 6.57624
335.789 6.76927
335.946 7.09220
336.104 7.69119
336.183 8.20213
336.262 8.98590
336.341 10.2709
336.420 12.5495
336.499 17.0088
336.539 20.8293
336.578 26.3517
336.639 38.4574
336.700 46.4978
336.762 38.3563
336.823 26.1923
336.885 18.3986
336.947 14.0570
337.008 11.5635
337.070 10.0433
337.132 9.06192
337.194 8.39658
337.317 7.58386
337.441 7.12813
337.565 6.84850
337.812 6.53895
338.059 6.38189
338.306 6.29301
338.801 6.20812
339.295 6.18860
339.542 6.20129
339.789 6.23861
340.037 6.32634
340.160 6.41034
340.284 6.55048
340.407 6.80418
340.531 7.32331
340.593 7.80504
340.655 8.59780
340.716 9.98264
340.778 12.4699
340.839 16.3181
340.900 18.8833
340.961 16.3173
341.022 12.4670
341.077 10.1761
341.132 8.82222
341.187 8.00593
341.243 7.49024
341.353 6.91163
341.463 6.61664
341.573 6.44716
341.684 6.34129
341.904 6.22110
342.125 6.15771
342.345 6.11988
342.786 6.07821
343.227 6.05646
343.668 6.04356
344.550 6.03097
345.432 6.03144
345.873 6.03893
346.314 6.05666
346.755 6.09801
346.976 6.13909
347.196 6.21112
347.417 6.35219
347.527 6.47865
347.637 6.68243
347.747 7.04006
347.858 7.74344
347.913 8.37358
347.968 9.37101
348.023 11.0274
348.078 13.8271
348.139 18.5461
348.200 21.6967
348.261 18.5500
348.322 13.8312
348.363 11.6244
348.404 10.1276
348.485 8.40633
348.567 7.54001
348.648 7.05735
348.729 6.76393
348.811 6.57360
348.974 6.35086
349.137 6.23055
349.300 6.15831
349.626 6.07910
349.951 6.03834
350.277 6.01413
350.929 5.98690
351.581 5.97156
352.233 5.96115
353.536 5.94656
356.143 5.92606
358.750 5.90983
361.357 5.89722
362.661 5.89349
363.964 5.89379
365.268 5.90396
365.919 5.91808
366.571 5.94683
366.897 5.97208
367.223 6.01115
367.549 6.07515
367.875 6.18903
368.200 6.41916
368.363 6.63304
368.526 6.99194
368.689 7.66148
368.771 8.23517
368.852 9.11954
368.934 10.5794
369.015 13.1941
369.097 18.3907
369.137 22.9040
369.178 29.5270
369.239 43.6699
369.300 53.0700
369.361 43.6754
369.422 29.5335
369.486 20.1331
369.550 14.9938
369.613 12.0873
369.677 10.3371
369.741 9.21422
369.805 8.45850
369.932 7.53961
370.060 7.02652
370.187 6.71265
370.442 6.36478
370.697 6.18641
370.952 6.08278
371.207 6.01701
371.462 5.97246
371.972 5.91713
372.483 5.88471
373.503 5.84840
374.523 5.82775
375.543 5.81344
377.583 5.79255
381.664 5.76074
385.744 5.73248
402.067 5.62343
434.711 5.39092
467.356 5.11526
500.000 4.75264
515.017 4.52994
530.034 4.23959
537.543 4.05176
545.052 3.81558
548.806 3.66960
552.560 3.49542
554.437 3.39553
556.314 3.29640
557.253 3.27033
557.722 3.28410
558.192 3.34939
558.661 3.55430
558.896 3.78965
559.130 4.24003
559.365 5.19540
559.482 6.09614
559.599 7.59993
559.717 10.3253
559.834 15.8619
559.893 20.9222
559.951 29.0454
560.010 42.7517
560.039 52.9502
560.069 66.2400
560.102 85.3033
560.134 107.518
560.200 137.946
560.266 114.513
560.331 74.9800
560.402 47.3262
560.472 32.0901
560.543 23.4030
560.613 18.1118
560.684 14.6834
560.754 12.3432
560.895 9.44599
561.036 7.78337
561.177 6.73580
561.459 5.52645
561.741 4.86918
562.023 4.46418
562.587 3.99648
563.151 3.73350
563.715 3.56195
564.843 3.34340
567.099 3.11144
569.355 3.06454
570.483 3.16042
571.611 3.42611
572.739 4.03692
573.866 5.42731
574.430 6.73954
574.994 8.86639
575.558 12.5011
576.122 19.1976
576.404 24.7586
576.686 33.0052
576.968 45.8237
577.250 66.9984
577.532 104.995
577.673 135.997
577.814 181.316
577.955 250.333
578.096 360.374
578.237 543.765
578.378 854.360
578.539 1406.18
578.700 1808.67
578.861 1489.39
579.022 958.562
579.195 588.460
579.368 385.393
579.541 269.925
579.714 199.766
579.887 154.410
580.060 123.521
580.405 85.4042
580.751 63.6366
581.097 49.9945
581.789 34.3819
582.480 26.0209
583.172 20.9629
583.863 17.6351
584.555 15.3078
585.938 12.3078
587.322 10.4824
588.705 9.26510
590.088 8.39815
592.854 7.24412
595.621 6.50360
601.154 5.57743
606.687 4.97875
612.220 4.51822
623.286 3.74501
628.819 3.37556
634.351 3.00591
639.884 2.65636
645.417 2.42231
648.184 2.44096
650.950 2.68524
653.717 3.41764
655.100 4.14193
656.483 5.29545
657.867 7.15766
659.250 10.2491
660.633 15.6172
662.016 25.5887
662.708 33.8688
663.399 46.0912
664.091 64.9127
664.783 95.5071
665.474 148.877
666.166 251.072
666.512 338.793
666.857 471.399
667.203 677.474
667.549 999.110
668.025 1667.51
668.500 2172.72
668.976 1811.18
669.451 1179.50
669.751 886.402
670.051 678.388
670.652 427.040
671.252 293.074
671.853 214.971
672.453 165.791
673.053 132.860
674.254 92.7775
675.455 70.0894
676.656 55.8942
679.057 39.5867
681.459 30.7631
683.861 25.3570
686.262 21.7542
688.664 19.2034
693.467 15.8615
698.270 13.7879
703.073 12.3865
705.475 11.8579
706.075 11.7499
706.675 11.6722
706.976 11.6666
707.276 11.7376
707.426 11.8561
707.576 12.1400
707.651 12.4302
707.726 12.9446
707.801 13.9321
707.876 15.9306
707.938 18.6606
708.000 20.4735
708.062 18.6344
708.124 15.8871
708.186 14.1174
708.248 13.1229
708.310 12.5457
708.372 12.1894
708.496 11.7925
708.620 11.5854
708.869 11.3743
709.117 11.2610
709.613 11.1207
710.110 11.0179
712.096 10.6932
716.068 10.1677
724.012 9.36972
739.900 8.33397
755.788 7.67664
763.732 7.42962
765.718 7.37741
767.704 7.33634
768.697 7.32877
769.193 7.33443
769.690 7.35507
770.186 7.41149
770.435 7.47110
770.683 7.57882
770.931 7.79541
771.055 7.99295
771.179 8.31640
771.304 8.89485
771.366 9.36921
771.428 10.0676
771.490 11.1502
771.552 12.9193
771.614 15.9939
771.676 21.4734
771.738 30.0315
771.800 35.7360
771.862 30.0299
771.924 21.4691
771.962 17.7311
772.001 15.1123
772.077 11.9788
772.153 10.3359
772.229 9.39486
772.306 8.81303
772.382 8.43052
772.535 7.97654
772.687 7.72800
772.840 7.57699
773.145 7.40910
773.450 7.32085
773.755 7.26713
774.366 7.20401
774.976 7.16587
775.586 7.13811
776.807 7.09568
779.248 7.02897
781.689 6.97033
791.454 6.76201
810.984 6.40325
820.749 6.23576
830.514 6.06058
835.397 5.96057
837.838 5.90348
840.279 5.83860
842.721 5.76332
843.941 5.72262
845.162 5.68559
845.772 5.67401
846.382 5.67561
846.993 5.70764
847.603 5.81483
847.908 5.93120
848.213 6.13359
848.518 6.49996
848.824 7.20907
849.129 8.74071
849.281 10.2108
849.434 12.7041
849.586 17.3259
849.663 21.2054
849.739 27.0214
849.815 36.1627
849.892 51.3459
849.968 78.0476
850.044 126.320
850.122 205.829
850.200 264.758
850.278 220.162
850.356 144.371
850.409 106.882
850.463 81.2281
850.516 63.6785
850.570 51.4708
850.677 36.2811
850.783 27.6812
850.890 22.3663
850.997 18.8617
851.211 14.6556
851.425 12.3096
851.638 10.8567
851.852 9.88748
852.066 9.20415
852.493 8.31848
852.920 7.77892
853.348 7.42045
853.775 7.16691
854.630 6.83418
855.485 6.62624
856.340 6.48364
857.195 6.37912
858.904 6.23409
860.614 6.13558
864.033 6.00305
867.452 5.91069
870.872 5.83728
877.710 5.71765
891.388 5.52176
905.065 5.34558
932.419 5.00135
946.096 4.82311
949.516 4.77868
952.935 4.73804
954.645 4.72382
955.499 4.72160
956.354 4.72748
957.209 4.75338
957.637 4.78447
958.064 4.84444
958.491 4.97293
958.705 5.09666
958.919 5.31028
959.132 5.72284
959.239 6.08871
959.346 6.67247
959.453 7.68335
959.560 9.63136
959.613 11.3400
959.667 13.9865
959.720 18.2571
959.774 25.2274
959.837 37.6035
959.900 45.8393
959.963 37.5852
960.027 25.2295
960.093 17.0422
960.159 12.5780
960.225 10.0502
960.291 8.52862
960.357 7.55246
960.423 6.89541
960.555 6.09617
960.687 5.64966
960.819 5.37578
961.083 5.07112
961.348 4.91369
961.612 4.82108
962.140 4.72001
962.669 4.66665
963.197 4.63312
964.254 4.59069
965.310 4.56163
966.367 4.53786
968.481 4.49628
972.708 4.41822
976.935 4.33673
981.162 4.24593
983.275 4.19508
985.389 4.13968
987.502 4.08202
988.559 4.05725
989.616 4.04695
990.144 4.05634
990.673 4.08807
991.201 4.16597
991.729 4.34865
991.994 4.52298
992.258 4.80681
992.522 5.29277
992.786 6.18823
993.050 8.02947
993.183 9.73220
993.315 12.5332
993.447 17.5226
993.579 27.4302
993.645 36.2890
993.711 50.2163
993.777 73.0350
993.843 110.930
993.922 180.536
994.000 231.446
994.079 191.453
994.157 124.693
994.248 75.3263
994.340 49.4609
994.431 35.2547
994.522 26.8224
994.614 21.4572
994.705 17.8437
994.888 13.4309
995.070 10.9333
995.253 9.37557
995.618 7.59767
995.983 6.64551
996.348 6.06764
996.714 5.68554
997.079 5.41668
997.809 5.06603
998.539 4.84850
999.270 4.70000
1000.00 4.59142
1001.18 4.46438
1002.37 4.37243
1004.74 4.24177
1009.47 4.06761
1018.94 3.81341
1028.41 3.58209
1030.78 3.52680
1033.14 3.48008
1034.33 3.46929
1034.92 3.47374
1035.51 3.49415
1036.10 3.55345
1036.40 3.61771
1036.69 3.73590
1036.99 3.97839
1037.14 4.20402
1037.29 4.58100
1037.43 5.27549
1037.51 5.86196
1037.58 6.75329
1037.66 8.19040
1037.73 10.6834
1037.80 15.3850
1037.88 24.5824
1037.94 37.3602
1038.00 45.8874
1038.06 37.3517
1038.12 24.5692
1038.19 16.4838
1038.25 11.9732
1038.31 9.33388
1038.37 7.70235
1038.49 5.91062
1038.61 5.01394
1038.73 4.50574
1038.85 4.19079
1039.09 3.83657
1039.33 3.65053
1039.57 3.54027
1040.05 3.41751
1040.53 3.35035
1041.01 3.30660
1041.97 3.24791
1043.89 3.16800
1045.81 3.10088
1053.50 2.83730
1057.34 2.69524
1061.19 2.54653
1063.11 2.47457
1065.03 2.42085
1065.99 2.42229
1066.47 2.44531
1066.95 2.50430
1067.44 2.65023
1067.68 2.79923
1067.92 3.06477
1068.16 3.59257
1068.28 4.07061
1068.40 4.84870
1068.52 6.22936
1068.64 8.99591
1068.70 11.5154
1068.76 15.5858
1068.82 22.5205
1068.88 34.6151
1068.94 54.2026
1069.00 66.9680
1069.06 53.8769
1069.13 34.6171
1069.18 24.0989
1069.23 17.4765
1069.28 13.2773
1069.32 10.5671
1069.42 7.33816
1069.52 5.64711
1069.62 4.64425
1069.72 4.01464
1069.92 3.28729
1070.12 2.90006
1070.32 2.66778
1070.72 2.40960
1071.12 2.27082
1071.51 2.18250
1072.31 2.06935
1073.90 1.92645
1075.49 1.81610
1077.08 1.72623
1077.88 1.69794
1078.67 1.69957
1079.47 1.78113
1079.87 1.89824
1080.26 2.14013
1080.66 2.68582
1080.86 3.22411
1081.06 4.16246
1081.26 5.97477
1081.36 7.57610
1081.46 10.0686
1081.56 14.3063
1081.66 22.0096
1081.71 28.4567
1081.76 37.7096
1081.81 51.8587
1081.86 72.6222
1081.93 117.715
1082.00 148.835
1082.07 120.746
1082.15 77.2135
1082.23 46.5719
1082.30 30.3584
1082.38 21.1870
1082.46 15.7620
1082.54 12.2487
1082.62 9.90814
1082.78 7.04250
1082.94 5.41291
1083.10 4.40119
1083.42 3.25528
1083.73 2.64114
1084.05 2.26793
1084.68 1.83823
1085.32 1.59325
1085.95 1.42898
1087.22 1.20723
1089.76 0.944895
1091.03 0.882479
1092.30 0.890390
1092.93 0.935409
1093.57 1.02090
1094.20 1.16267
1094.84 1.38306
1095.47 1.71699
1096.11 2.21588
1096.74 2.96466
1097.37 4.09783
1098.01 5.85510
1098.64 8.66006
1099.28 13.3623
1099.91 21.7443
1100.23 28.5059
1100.55 38.1950
1100.86 52.6353
1101.18 75.1571
1101.50 112.486
1101.82 178.431
1102.13 304.911
1102.29 411.047
1102.45 561.090
1102.73 940.624
1103.00 1230.62
1103.28 1028.88
1103.55 671.496
1103.72 511.450
1103.88 395.923
1104.21 253.660
1104.55 175.841
1104.88 129.912
1105.21 100.591
1105.54 80.8646
1106.20 56.6484
1106.86 42.8090
1107.53 34.1052
1108.85 24.0618
1110.18 18.5982
1111.50 15.2456
1114.15 11.4326
1116.80 9.38696
1119.45 8.16534
1124.76 6.98066
1130.06 7.00077
1132.71 7.63821
1135.36 9.13050
1138.01 12.5530
1139.33 15.8912
1140.66 21.6187
1141.99 32.4517
1142.65 41.7807
1143.31 56.1639
1143.97 79.8449
1144.64 121.919
1145.30 204.293
1145.63 274.666
1145.96 376.581
1146.48 604.933
1147.00 760.698
1147.52 613.793
1148.04 387.779
1148.49 255.885
1148.95 175.957
1149.40 126.862
1149.86 95.4520
1150.76 59.6306
1151.67 41.0486
1152.58 30.2470
1153.48 23.4401
1155.30 15.6411
1157.11 11.4825
1158.93 8.98397
1162.56 6.21281
1166.18 4.76462
1169.81 3.92601
1177.07 3.29591
1180.70 3.49125
1184.33 4.21790
1187.96 5.88033
1191.59 9.41123
1193.40 12.5112
1195.21 17.1977
1197.03 24.5238
1198.84 36.4756
1200.66 57.1643
1202.47 95.7434
1203.38 127.786
1204.29 174.582
1205.19 244.151
1206.10 347.445
1207.55 595.681
1209.00 796.038
1210.45 679.581
1211.90 452.752
1212.88 339.081
1213.85 259.263
1215.80 164.165
1217.75 114.041
1219.70 84.8880
1221.65 66.4750
1223.60 54.0666
1227.50 38.7667
1231.40 29.9084
1235.30 24.2229
1243.10 17.4776
1250.90 13.9685
1254.80 13.2298
1258.70 13.6212
1262.60 16.5796
1264.55 20.3256
1266.50 27.5440
1268.45 42.3948
1269.43 55.7706
1270.40 76.9204
1271.38 112.236
1272.35 175.368
1273.33 297.409
1273.81 400.063
1274.30 546.331
1275.15 920.689
1276.00 1214.90
1276.85 1027.85
1277.70 680.554
1278.24 517.623
1278.77 401.241
1279.84 259.168
1280.91 182.515
1281.97 137.353
1283.04 108.642
1284.11 89.2423
1286.25 65.3367
1288.38 51.5727
1290.52 42.8142
1294.79 32.5068
1299.06 26.7329
1303.33 23.0706
1307.61 20.5554
1309.74 19.6192
1310.28 19.4482
1310.81 19.3750
1311.08 19.4503
1311.21 19.5634
1311.34 19.7817
1311.48 20.2217
1311.61 21.1796
1311.68 22.1128
1311.74 23.7007
1311.81 26.5858
1311.88 31.9108
1311.94 39.8615
1312.00 45.0268
1312.06 39.6784
1312.12 31.8185
1312.18 26.8702
1312.24 24.0567
1312.30 22.3814
1312.36 21.3287
1312.47 20.1451
1312.59 19.5285
1312.71 19.1580
1312.82 18.9153
1313.05 18.6080
1313.29 18.4101
1313.52 18.2628
1313.98 18.0347
1314.91 17.6790
1315.84 17.3728
1319.56 16.3390
1327.00 14.7682
1334.44 13.6084
1336.30 13.3671
1338.16 13.1512
1339.09 13.0630
1339.55 13.0313
1340.02 13.0183
1340.48 13.0491
1340.72 13.1026
1340.95 13.2134
1341.18 13.4544
1341.30 13.6796
1341.41 14.0513
1341.53 14.7156
1341.64 16.0474
1341.70 17.2556
1341.76 19.1961
1341.82 22.4729
1341.88 28.1245
1341.94 37.4179
1342.00 43.6289
1342.06 37.4102
1342.12 28.1048
1342.17 23.1320
1342.22 20.0391
1342.27 18.0525
1342.32 16.7346
1342.41 15.1703
1342.51 14.3426
1342.61 13.8464
1342.70 13.5313
1342.90 13.1598
1343.09 12.9546
1343.28 12.8253
1343.67 12.6688
1344.05 12.5712
1344.44 12.4990
1345.21 12.3875
1346.75 12.2113
1348.30 12.0568
1354.47 11.5168
1366.81 10.6380
1391.50 9.32759
1416.19 8.30825
1428.53 7.84535
1431.62 7.73338
1434.70 7.62712
1436.25 7.58162
1437.02 7.56476
1437.79 7.55753
1438.56 7.57391
1438.95 7.60343
1439.33 7.66653
1439.72 7.80934
1439.91 7.94939
1440.10 8.19065
1440.30 8.65708
1440.39 9.07016
1440.49 9.71689
1440.59 10.8311
1440.68 12.9064
1440.73 14.6714
1440.78 17.3322
1440.83 21.4694
1440.88 27.9351
1440.94 40.4286
1441.00 48.6058
1441.06 40.2199
1441.13 27.9356
1441.18 21.0447
1441.23 16.8604
1441.28 14.2305
1441.33 12.5155
1441.43 10.5177
1441.54 9.48078
1441.64 8.86946
1441.74 8.48690
1441.95 8.04621
1442.15 7.81186
1442.36 7.67114
1442.76 7.51428
1443.17 7.42885
1443.58 7.37383
1444.40 7.30212
1446.04 7.20943
1447.68 7.13570
1450.96 7.00072
1454.24 6.86885
1467.34 6.32134
1480.45 5.70778
1493.56 4.99353
1500.12 4.59221
1506.67 4.17028
1513.23 3.76650
1519.78 3.51572
1523.06 3.56869
1526.34 3.90967
1529.61 4.85318
1532.89 7.14892
1534.53 9.33878
1536.17 12.8495
1537.81 18.6776
1539.45 28.8467
1541.09 47.9339
1541.90 63.8922
1542.72 87.5292
1543.54 123.904
1544.36 182.063
1545.18 278.788
1546.00 441.925
1547.00 760.311
1548.00 1020.55
1549.00 874.887
1550.00 585.373
1550.91 400.042
1551.81 285.481
1552.72 213.801
1553.62 167.097
1555.43 112.506
1557.24 83.1382
1559.05 65.4438
1560.86 53.8934
1564.49 40.0471
1568.11 32.2367
1571.73 27.3103
1575.35 23.9542
1578.97 21.5357
1586.21 18.3018
1593.45 16.2480
1600.70 14.8294
1607.94 13.7889
1622.42 12.3560
1636.91 11.4014
1651.39 10.7040
1655.01 10.5566
1658.63 10.4199
1660.44 10.3582
1662.25 10.3098
1663.16 10.3017
1664.07 10.3363
1664.52 10.4079
1664.74 10.4827
1664.97 10.6168
1665.20 10.8848
1665.31 11.1258
1665.42 11.5157
1665.54 12.2007
1665.65 13.5507
1665.71 14.7711
1665.76 16.6712
1665.82 19.8832
1665.88 25.2078
1665.94 34.2885
1666.00 40.2006
1666.06 34.1283
1666.13 25.1962
1666.17 21.0399
1666.21 18.1896
1666.29 14.9122
1666.37 13.2188
1666.45 12.2780
1666.53 11.6959
1666.61 11.3210
1666.78 10.8758
1666.94 10.6333
1667.10 10.4859
1667.43 10.3215
1667.75 10.2333
1668.08 10.1783
1668.73 10.1104
1670.03 10.0317
1671.34 9.97522
1673.94 9.87878
1676.54 9.78891
1681.75 9.61260
1686.96 9.43015
1692.17 9.22527
1694.78 9.10451
1697.38 8.96041
1699.99 8.77524
1701.29 8.65772
1702.59 8.51706
1703.24 8.43758
1703.90 8.35525
1704.55 8.28017
1705.20 8.24560
1705.52 8.27262
1705.85 8.36890
1706.17 8.60877
1706.50 9.16453
1706.83 10.5138
1706.99 11.8778
1707.15 14.2260
1707.31 18.6273
1707.48 27.7199
1707.56 36.0985
1707.64 49.3107
1707.72 71.1509
1707.80 107.716
1707.90 179.359
1708.00 236.648
1708.10 203.413
1708.20 138.173
1708.31 88.9975
1708.43 62.0560
1708.54 46.7341
1708.65 37.3801
1708.77 31.2853
1708.88 27.0941
1709.10 21.8414
1709.33 18.7717
1709.56 16.8028
1710.01 14.4772
1710.46 13.1784
1710.91 12.3618
1711.36 11.8053
1711.82 11.4041
1712.72 10.8632
1713.62 10.5162
1714.53 10.2730
1715.43 10.0923
1717.24 9.83723
1719.04 9.66189
1722.66 9.42479
1726.27 9.26047
1729.89 9.13152
1737.12 8.92555
1751.57 8.59671
1766.03 8.29706
1780.49 7.97766
1787.72 7.79351
1794.95 7.57747
1802.18 7.30718
1805.79 7.13953
1809.41 6.93935
1813.02 6.69369
1816.63 6.38713
1818.44 6.21178
1819.35 6.12485
1820.25 6.05049
1821.15 6.02044
1821.60 6.05130
1822.06 6.15894
1822.51 6.45366
1822.73 6.76472
1822.96 7.32365
1823.19 8.43046
1823.30 9.42140
1823.41 11.0090
1823.52 13.7546
1823.64 19.0248
1823.69 23.6550
1823.75 30.6549
1823.81 41.7779
1823.86 59.6005
1823.93 92.2365
1824.00 114.012
1824.07 92.2157
1824.14 59.5531
1824.21 37.3172
1824.29 25.5778
1824.36 19.0111
1824.44 15.0770
1824.51 12.5655
1824.58 10.8741
1824.73 8.81489
1824.88 7.64937
1825.03 6.93012
1825.32 6.10344
1825.62 5.64439
1825.92 5.34817
1826.51 4.96272
1827.69 4.48013
1828.88 4.18767
1829.47 4.16369
1830.06 4.32792
1830.66 4.88921
1831.25 6.34632
1831.55 7.77406
1831.84 10.0792
1832.14 13.9279
1832.43 20.6611
1832.58 25.9652
1832.73 33.3167
1832.88 43.8240
1833.03 59.2889
1833.18 82.8317
1833.32 120.010
1833.47 180.724
1833.62 280.894
1833.81 486.574
1834.00 657.180
1834.19 568.305
1834.38 384.446
1834.50 294.620
1834.63 230.031
1834.87 150.892
1835.11 107.971
1835.36 82.5350
1835.60 66.2658
1835.85 55.2082
1836.33 41.4781
1836.82 33.5016
1837.31 28.3924
1838.28 22.3520
1839.26 18.9593
1840.24 16.8183
1841.21 15.3520
1842.19 14.2910
1844.14 12.8604
1846.09 11.9435
1848.04 11.3052
1849.99 10.8341
1853.89 10.1812
1857.80 9.74451
1861.70 9.42588
1865.60 9.17786
1873.41 8.79791
1877.31 8.63745
1881.21 8.48138
1885.11 8.31441
1887.07 8.21870
1889.02 8.10653
1890.97 7.96648
1891.94 7.88136
1892.92 7.78616
1893.41 7.73792
1893.90 7.69604
1894.38 7.67617
1894.87 7.72160
1895.36 7.97012
1895.60 8.30038
1895.85 8.97377
1896.09 10.4539
1896.21 11.8604
1896.33 14.1879
1896.46 18.2963
1896.58 26.1901
1896.64 32.9364
1896.70 43.0503
1896.76 58.5633
1896.82 81.9153
1896.91 135.145
1897.00 177.448
1897.09 152.482
1897.18 103.906
1897.26 74.6574
1897.33 56.0120
1897.41 44.0674
1897.48 36.2201
1897.64 26.7551
1897.79 21.6185
1897.94 18.4792
1898.09 16.4338
1898.39 13.9730
1898.69 12.5791
1899.00 11.7040
1899.30 11.1074
1899.60 10.6802
1900.21 10.1112
1900.81 9.75371
1901.42 9.51081
1902.02 9.33764
1903.23 9.12192
1903.84 9.06638
1904.44 9.05373
1905.05 9.11972
1905.35 9.21596
1905.65 9.40593
1905.96 9.80950
1906.11 10.1862
1906.26 10.8132
1906.41 11.9658
1906.49 12.9296
1906.56 14.3550
1906.64 16.6393
1906.71 20.4383
1906.79 27.4032
1906.86 40.3416
1906.93 59.3208
1907.00 71.9620
1907.07 59.3197
1907.14 40.3337
1907.18 31.7839
1907.23 25.8586
1907.31 18.9527
1907.40 15.3408
1907.49 13.3151
1907.58 12.0557
1907.66 11.2407
1907.84 10.2704
1908.01 9.74084
1908.19 9.41944
1908.54 9.06279
1908.89 8.87457
1909.24 8.76034
1909.94 8.62683
1910.63 8.54806
1911.33 8.49295
1912.73 8.41454
1915.53 8.30766
1918.32 8.22712
1923.92 8.09852
1929.51 7.99091
1935.10 7.89393
1940.69 7.80329
1946.28 7.72074
1947.68 7.70548
1949.08 7.70249
1949.78 7.71716
1950.48 7.77488
1950.83 7.85775
1951.18 8.07214
1951.35 8.32895
1951.44 8.55334
1951.53 8.89955
1951.62 9.48562
1951.70 10.5461
1951.75 11.4348
1951.79 12.7088
1951.83 14.6683
1951.88 17.5453
1951.94 23.5338
1952.00 27.5414
1952.06 23.5347
1952.12 17.5450
1952.17 14.4523
1952.22 12.4618
1952.27 11.1748
1952.31 10.3173
1952.41 9.30349
1952.50 8.76405
1952.59 8.44048
1952.69 8.23598
1952.87 7.99812
1953.25 7.79443
1953.62 7.70972
1954.37 7.63653
1955.12 7.60158
1956.61 7.56019
1958.11 7.52943
1964.09 7.42205
1976.06 7.19532
1988.03 6.91490
1994.02 6.73940
2000.00 6.52743
2003.89 6.36352
2007.78 6.17409
2011.67 5.95762
2015.56 5.72698
2017.50 5.62471
2019.44 5.56279
2021.39 5.60755
2023.33 5.93232
2025.28 7.05738
2026.25 8.38641
2027.22 10.9305
2028.19 16.1846
2028.68 20.9346
2029.17 28.4544
2029.65 40.9922
2030.14 63.2680
2030.62 105.752
2030.87 140.923
2031.11 190.544
2031.56 324.180
2032.00 433.445
2032.45 373.803
2032.89 252.807
2033.31 171.835
2033.73 122.618
2034.16 92.3325
2034.58 72.8025
2035.42 50.2331
2036.27 38.2105
2037.11 30.9987
2037.95 26.3079
2039.64 20.6952
2041.33 17.5322
2043.01 15.5397
2044.70 14.1826
2046.39 13.2049
2049.76 11.8980
2053.14 11.0692
2056.51 10.4981
2059.89 10.0804
2066.63 9.50891
2073.38 9.13341
2080.13 8.86492
2086.88 8.66117
2100.38 8.36663
2113.87 8.15788
2120.62 8.07343
2127.37 8.00026
2130.75 7.96964
2134.12 7.94988
2135.81 7.95312
2136.65 7.96455
2137.49 7.99182
2138.34 8.05787
2138.76 8.12586
2139.18 8.24887
2139.60 8.50270
2139.81 8.74244
2140.02 9.15159
2140.24 9.93265
2140.34 10.6223
2140.45 11.7037
2140.55 13.5701
2140.66 17.0700
2140.71 20.1016
2140.76 24.6158
2140.82 31.8347
2140.87 43.0018
2140.93 64.1361
2141.00 77.8988
2141.07 63.8088
2141.13 42.7493
2141.19 31.3383
2141.24 24.3047
2141.29 19.8314
2141.35 16.8882
2141.45 13.4534
2141.56 11.6345
2141.67 10.5675
2141.77 9.89170
2141.98 9.11910
2142.20 8.71044
2142.41 8.47047
2142.83 8.21233
2143.26 8.08258
2143.68 8.00772
2144.53 7.92689
2145.38 7.88428
2146.23 7.85740
2147.92 7.82298
2151.32 7.77980
2154.71 7.74664
2161.50 7.68871
2168.29 7.63505
2181.87 7.53217
2195.45 7.42794
2209.02 7.31086
2215.81 7.24032
2222.60 7.15305
2229.39 7.03284
2232.78 6.94920
2236.18 6.83655
2237.88 6.76297
2239.57 6.67216
2241.27 6.55694
2242.97 6.40688
2243.82 6.31482
2244.66 6.21048
2245.51 6.09716
2246.36 5.99413
2246.79 5.96594
2247.21 5.98283
2247.63 6.10187
2248.06 6.46388
2248.48 7.46986
2248.70 8.55136
2248.91 10.5005
2249.12 14.2707
2249.33 22.3614
2249.44 29.9890
2249.54 42.4913
2249.65 63.8920
2249.76 101.204
2249.88 171.720
2250.00 229.792
2250.12 199.240
2250.25 135.922
2250.39 85.8273
2250.54 58.9562
2250.68 43.9035
2250.83 34.8449
2250.98 28.9230
2251.12 24.8857
2251.41 19.8060
2251.70 16.8324
2251.99 14.9200
2252.58 12.6517
2253.16 11.3765
2253.74 10.5734
2254.32 10.0247
2254.90 9.62802
2256.07 9.09500
2257.23 8.75527
2258.40 8.52017
2259.56 8.34796
2261.89 8.11306
2264.22 7.96412
2265.38 7.91413
2266.55 7.89030
2267.13 7.90400
2267.71 7.97944
2268.00 8.09137
2268.29 8.37810
2268.44 8.71238
2268.58 9.41692
2268.66 10.1024
2268.73 11.2844
2268.80 13.4921
2268.88 17.7502
2268.94 23.8075
2269.00 27.7650
2269.06 23.7060
2269.13 17.7486
2269.17 14.9274
2269.21 13.0133
2269.25 11.7172
2269.29 10.8210
2269.38 9.71992
2269.46 9.10627
2269.63 8.49140
2269.80 8.20793
2270.13 7.95776
2270.47 7.85155
2271.14 7.75748
2271.81 7.71188
2273.15 7.65919
2274.49 7.62322
2277.18 7.56839
2279.86 7.52466
2285.23 7.45502
2290.59 7.39978
2301.33 7.31319
2312.06 7.24438
2333.53 7.13259
2355.00 7.03767
2397.94 6.86758
2419.41 6.78603
2430.14 6.74669
2435.51 6.73288
2436.85 6.73457
2438.19 6.74824
2438.86 6.77078
2439.53 6.83492
2439.87 6.91889
2440.21 7.12815
2440.37 7.37405
2440.54 7.90728
2440.62 8.44467
2440.71 9.41222
2440.75 10.2014
2440.79 11.3445
2440.83 13.0344
2440.88 15.4557
2440.94 20.7686
2441.00 24.2407
2441.06 20.6702
2441.13 15.4450
2441.19 12.1356
2441.25 10.2828
2441.31 9.19555
2441.37 8.52215
2441.49 7.78152
2441.61 7.41064
2441.85 7.07073
2442.09 6.92540
2442.57 6.80602
2443.05 6.75883
2444.01 6.72057
2444.97 6.70420
2448.81 6.67685
2456.50 6.64559
2460.34 6.63367
2464.18 6.62954
2466.10 6.63804
2468.02 6.67625
2468.98 6.73502
2469.46 6.79425
2469.94 6.90108
2470.42 7.12184
2470.66 7.33096
2470.90 7.69017
2471.14 8.38355
2471.26 8.99977
2471.38 9.98815
2471.50 11.7104
2471.62 15.0725
2471.68 18.0538
2471.74 22.7410
2471.80 30.4394
2471.86 43.2719
2471.93 65.2319
2472.00 79.8547
2472.07 65.2644
2472.14 43.3125
2472.19 30.9765
2472.25 23.3800
2472.31 18.6533
2472.36 15.5970
2472.48 12.0932
2472.59 10.2698
2472.71 9.21232
2472.82 8.54797
2473.05 7.79438
2473.28 7.40032
2473.50 7.16894
2473.96 6.92187
2474.42 6.79919
2474.87 6.72903
2475.78 6.65487
2477.61 6.59471
2479.43 6.56780
2483.08 6.53772
2486.73 6.51625
2494.02 6.47864
2501.32 6.44189
2515.91 6.36443
2530.50 6.27720
2545.09 6.17410
2559.68 6.04461
2566.97 5.96404
2574.27 5.86793
2577.92 5.81322
2581.56 5.75720
2583.39 5.73461
2585.21 5.73450
2586.12 5.76690
2586.58 5.80804
2587.04 5.88907
2587.49 6.06474
2587.72 6.23459
2587.95 6.52795
2588.18 7.09333
2588.29 7.59265
2588.40 8.38656
2588.52 9.75048
2588.63 12.3515
2588.69 14.6004
2588.75 18.0460
2588.80 23.5140
2588.86 32.0671
2588.93 48.1222
2589.00 58.6428
2589.07 47.8894
2589.14 32.0752
2589.20 23.2792
2589.26 17.8967
2589.31 14.5000
2589.37 12.2785
2589.49 9.68562
2589.60 8.33497
2589.71 7.53876
2589.83 7.03996
2590.06 6.46652
2590.29 6.16285
2590.52 5.98171
2590.97 5.78252
2591.43 5.67682
2591.89 5.61084
2592.80 5.52793
2594.63 5.42446
2596.46 5.33913
2600.12 5.15904
2603.79 4.93672
2605.62 4.80316
2607.45 4.65394
2609.28 4.49577
2611.11 4.36028
2612.02 4.33200
2612.94 4.37556
2613.85 4.57785
2614.77 5.14993
2615.68 6.67686
2616.14 8.28934
2616.60 11.1430
2617.06 16.5693
2617.29 21.1358
2617.51 27.8816
2617.74 38.2941
2617.97 54.9422
2618.20 82.5399
2618.43 128.601
2618.71 221.283
2619.00 299.117
2619.29 259.754
2619.57 176.694
2619.85 119.944
2620.13 85.7281
2620.40 64.7962
2620.68 51.3435
2620.96 42.2501
2621.23 35.8255
2621.79 27.5499
2622.34 22.5836
2622.90 19.3418
2624.00 15.4509
2625.11 13.2476
2626.22 11.8519
2627.33 10.8973
2628.44 10.2075
2630.65 9.28063
2632.87 8.68999
2635.08 8.28112
2637.30 7.98137
2641.73 7.56952
2646.16 7.29773
2650.59 7.10250
2655.02 6.95348
2663.89 6.73563
2672.75 6.57759
2690.47 6.34485
2708.20 6.16021
2725.92 5.99117
2761.37 5.63978
2796.82 5.19233
2814.55 4.89233
2832.27 4.50226
2841.13 4.25773
2850.00 3.96850
2858.86 3.62497
2867.72 3.22642
2872.15 3.01785
2876.58 2.82871
2881.02 2.71864
2885.45 2.85321
2887.66 3.14390
2889.88 3.75219
2892.09 4.97177
2894.31 7.45506
2895.42 9.60954
2896.52 12.8549
2897.63 17.9098
2898.74 26.1254
2899.85 40.2843
2900.96 66.5079
2901.51 88.1204
2902.06 119.449
2902.62 165.598
2903.17 233.294
2904.09 401.598
2905.00 539.812
2905.92 464.045
2906.83 311.390
2907.40 238.978
2907.97 186.625
2909.12 122.035
2910.26 86.6971
2911.40 65.6686
2912.55 52.1573
2913.69 42.9518
2915.98 31.4550
2918.26 24.6919
2920.55 20.2733
2925.12 14.7516
2929.70 11.1320
2931.98 9.56752
2934.27 8.00420
2936.56 6.35379
2937.70 5.51474
2938.84 4.78584
2939.99 4.59696
2940.56 5.14074
2941.13 6.80611
2941.42 8.47080
2941.70 11.1356
2941.99 15.4502
2942.27 22.5735
2942.56 34.8523
2942.85 56.9874
2942.99 74.5595
2943.13 99.0671
2943.27 133.488
2943.42 181.180
2943.71 330.401
2944.00 469.374
2944.15 470.223
2944.29 424.974
2944.59 299.525
2944.88 207.213
2945.17 150.794
2945.46 115.813
2945.75 93.0447
2946.04 77.4189
2946.33 66.2897
2946.91 51.7112
2947.49 42.7523
2948.07 36.7930
2949.23 29.4381
2950.39 25.1343
2951.55 22.3598
2952.13 21.3586
2952.71 20.6457
2953.00 20.4944
2953.15 20.5365
2953.29 20.7392
2953.44 21.2679
2953.51 21.7768
2953.58 22.5776
2953.66 23.9233
2953.73 26.2440
2953.80 30.6406
2953.87 39.0575
2953.94 51.1520
2954.00 59.1845
2954.06 51.0042
2954.13 38.7680
2954.18 32.2578
2954.23 28.0984
2954.28 25.4195
2954.33 23.6626
2954.43 21.5308
2954.53 20.3492
2954.63 19.6089
2954.72 19.1111
2954.92 18.4657
2955.12 18.0439
2955.32 17.7308
2955.72 17.2550
2956.51 16.5554
2957.30 16.0014
2958.89 15.1132
2960.48 14.4089
2963.66 13.3398
2966.83 12.5545
2973.18 11.4553
2979.53 10.7064
2992.24 9.71973
3004.94 9.07115
3017.64 8.58355
3030.35 8.15898
3036.70 7.93443
3039.87 7.80582
3043.05 7.65398
3046.23 7.45822
3047.81 7.33146
3049.40 7.17362
3050.20 7.07928
3050.99 6.97327
3051.78 6.85799
3052.58 6.74826
3052.97 6.71124
3053.37 6.71002
3053.77 6.79127
3054.17 7.06984
3054.56 7.86763
3054.76 8.73506
3054.96 10.2873
3055.16 13.2814
3055.36 19.5641
3055.46 25.3610
3055.55 34.6490
3055.65 50.0725
3055.75 76.0015
3055.88 128.337
3056.00 172.804
3056.12 151.382
3056.25 104.817
3056.34 78.7090
3056.43 61.1059
3056.53 49.0420
3056.62 40.7600
3056.80 30.3991
3056.99 24.5092
3057.17 20.8021
3057.36 18.3295
3057.73 15.2811
3058.09 13.5209
3058.46 12.3941
3058.83 11.6186
3059.20 11.0555
3059.94 10.2963
3060.68 9.81134
3061.42 9.47472
3062.15 9.22701
3063.63 8.88475
3065.11 8.65702
3068.06 8.36491
3071.01 8.17875
3073.96 8.05119
3075.44 8.01096
3076.92 8.01099
3077.66 8.05883
3078.02 8.11753
3078.39 8.23064
3078.76 8.47063
3078.95 8.69962
3079.13 9.08713
3079.32 9.82309
3079.41 10.4569
3079.50 11.4429
3079.59 13.1094
3079.69 16.1229
3079.73 18.6116
3079.78 22.2588
3079.82 27.7305
3079.87 35.9350
3079.94 52.8933
3080.00 63.9445
3080.07 52.5964
3080.13 35.9031
3080.19 25.6588
3080.25 19.7601
3080.31 16.2225
3080.37 13.9965
3080.49 11.5104
3080.61 10.2471
3080.73 9.52463
3080.85 9.07441
3081.09 8.56608
3081.33 8.29970
3081.57 8.14158
3082.05 7.96763
3083.01 7.81700
3083.97 7.74390
3085.89 7.65536
3087.81 7.58885
3091.66 7.47026
3095.50 7.35140
3099.34 7.22128
3103.18 7.07081
3105.10 6.98759
3107.02 6.91217
3107.98 6.89927
3108.46 6.91538
3108.94 6.96967
3109.42 7.11732
3109.66 7.27347
3109.90 7.55518
3110.14 8.11689
3110.26 8.62358
3110.38 9.44183
3110.50 10.8736
3110.62 13.6732
3110.68 16.1547
3110.74 20.0509
3110.80 26.4364
3110.86 37.0511
3110.93 55.4844
3111.00 67.5260
3111.07 55.1860
3111.14 37.0234
3111.21 24.3587
3111.29 17.7494
3111.36 14.0857
3111.44 11.9048
3111.51 10.5190
3111.59 9.58892
3111.74 8.46058
3111.89 7.82422
3112.04 7.43235
3112.34 6.98248
3112.64 6.73208
3112.94 6.56900
3113.54 6.34990
3114.14 6.18480
3114.74 6.03388
3115.95 5.71942
3116.55 5.54447
3117.15 5.35818
3117.75 5.17521
3118.35 5.05029
3118.95 5.18342
3119.25 5.54895
3119.55 6.44081
3119.85 8.61863
3120.00 10.7717
3120.15 14.3941
3120.30 20.8773
3120.38 25.9833
3120.45 33.1601
3120.53 43.4740
3120.60 58.6238
3120.68 81.2482
3120.75 115.004
3120.88 200.958
3121.00 275.140
3121.06 271.619
3121.12 242.178
3121.25 167.360
3121.33 128.197
3121.41 100.691
3121.50 81.2966
3121.58 67.3992
3121.75 49.4499
3121.91 38.9344
3122.08 32.1763
3122.25 27.6072
3122.58 21.8954
3122.91 18.5569
3123.25 16.4041
3123.91 13.8361
3124.58 12.3753
3125.24 11.4431
3125.91 10.7995
3126.57 10.3303
3127.91 9.69106
3129.24 9.27670
3130.57 8.98531
3131.90 8.76879
3134.56 8.46617
3137.23 8.26250
3142.55 8.00001
3147.88 7.83400
3150.54 7.77220
3153.20 7.72240
3155.87 7.68794
3158.53 7.68840
3159.86 7.73024
3160.53 7.78197
3161.19 7.88281
3161.86 8.10251
3162.19 8.31763
3162.52 8.69615
3162.86 9.44978
3163.02 10.1427
3163.19 11.2825
3163.36 13.3749
3163.44 15.1180
3163.52 17.7450
3163.61 21.9343
3163.69 29.0915
3163.77 42.2981
3163.86 67.8697
3163.93 104.271
3164.00 128.070
3164.07 103.756
3164.15 67.8890
3164.22 43.4212
3164.30 30.2840
3164.38 22.9543
3164.46 18.6207
3164.53 15.8205
3164.61 13.9636
3164.77 11.6978
3164.92 10.4311
3165.08 9.66316
3165.39 8.81316
3165.70 8.37692
3166.01 8.12453
3166.63 7.85597
3167.25 7.72128
3167.87 7.64265
3169.11 7.55506
3170.35 7.50599
3171.59 7.47280
3174.08 7.42640
3179.04 7.36203
3184.01 7.31130
3188.97 7.26762
3193.94 7.23119
3196.42 7.21875
3198.90 7.22014
3200.14 7.23884
3201.38 7.30664
3202.00 7.40449
3202.31 7.50027
3202.62 7.66883
3202.94 8.00593
3203.09 8.31402
3203.25 8.82373
3203.40 9.75301
3203.48 10.5370
3203.56 11.7037
3203.63 13.5905
3203.71 16.7742
3203.79 22.7338
3203.87 34.1268
3203.93 50.3606
3204.00 60.9432
3204.07 50.1317
3204.14 33.9592
3204.19 25.6799
3204.24 20.4099
3204.29 16.9612
3204.34 14.6407
3204.44 11.8502
3204.54 10.3582
3204.64 9.46237
3204.74 8.89576
3204.94 8.24079
3205.14 7.89066
3205.34 7.68296
3205.74 7.45923
3206.14 7.34643
3206.55 7.28135
3207.35 7.21132
3208.95 7.15207
3210.56 7.12369
3213.77 7.08956
3216.98 7.06421
3229.82 6.98128
3242.66 6.90782
3255.50 6.83918
3268.34 6.77401
3281.18 6.71208
3287.60 6.68311
3294.02 6.65850
3297.23 6.65188
3300.44 6.66125
3302.04 6.68756
3302.85 6.71731
3303.65 6.77396
3304.45 6.89653
3304.85 7.01682
3305.25 7.23013
3305.66 7.66268
3305.86 8.06643
3306.06 8.74421
3306.26 10.0248
3306.36 11.1266
3306.46 12.8414
3306.56 15.7400
3306.66 20.9993
3306.71 25.3560
3306.76 31.7599
3306.81 41.4041
3306.86 55.9285
3306.93 85.7106
3307.00 105.183
3307.07 85.3064
3307.14 55.9817
3307.21 37.7144
3307.28 27.1780
3307.34 20.9631
3307.41 17.1010
3307.54 12.8416
3307.68 10.7039
3307.81 9.49210
3307.95 8.74252
3308.21 7.90445
3308.48 7.47205
3308.75 7.22027
3309.29 6.95329
3309.82 6.82143
3310.36 6.74617
3311.43 6.66651
3313.57 6.60115
3315.72 6.57109
3320.00 6.53622
3324.29 6.51067
3332.87 6.46600
3341.44 6.42340
3358.59 6.33813
3375.74 6.24989
3410.03 6.05544
3444.33 5.81742
3478.63 5.49154
3495.78 5.26594
3512.93 4.96362
3521.50 4.76729
3530.08 4.52592
3538.65 4.22127
3547.22 3.82699
3551.51 3.58650
3555.80 3.31483
3560.09 3.02155
3564.37 2.75555
3566.52 2.68218
3568.66 2.72152
3570.80 3.01332
3572.95 3.89460
3574.02 4.79790
3575.09 6.29139
3576.16 8.81915
3577.23 13.2672
3578.31 21.5943
3578.84 28.4880
3579.38 38.5585
3579.91 53.7142
3580.45 77.2550
3580.99 114.839
3581.52 175.056
3582.26 306.798
3583.00 420.049
3583.74 368.475
3584.48 252.324
3585.28 164.957
3586.07 114.722
3586.87 85.1238
3587.67 66.6145
3588.46 54.3383
3589.26 45.9025
3589.66 42.7539
3590.06 40.4202
3590.26 39.7811
3590.46 40.0153
3590.56 40.9008
3590.65 42.9603
3590.75 47.7082
3590.80 52.0969
3590.85 58.5711
3590.93 72.7365
3591.00 81.9095
3591.07 71.8114
3591.15 57.1309
3591.24 46.1182
3591.33 40.4451
3591.41 37.2726
3591.50 35.3103
3591.68 32.9255
3591.86 31.4587
3592.21 29.4880
3592.57 28.0360
3593.28 25.7685
3593.99 23.9641
3595.41 21.1808
3596.83 19.1168
3599.67 16.2613
3602.50 14.3939
3605.34 13.0900
3608.18 12.1481
3609.60 11.7909
3610.31 11.6485
3611.02 11.5463
3611.73 11.5254
3612.09 11.5824
3612.44 11.7418
3612.80 12.1355
3612.97 12.5309
3613.15 13.2109
3613.33 14.5061
3613.42 15.6213
3613.51 17.3177
3613.60 20.1251
3613.68 25.0297
3613.77 34.6423
3613.82 42.7106
3613.86 54.2879
3613.93 80.2838
3614.00 97.5664
3614.07 80.2564
3614.14 54.2347
3614.21 38.2277
3614.27 29.0531
3614.34 23.5122
3614.40 20.1005
3614.53 16.2740
3614.66 14.3453
3614.79 13.2293
3614.93 12.5299
3615.19 11.7308
3615.45 11.2961
3615.71 11.0269
3616.23 10.7038
3616.76 10.5062
3617.28 10.3626
3618.32 10.1474
3620.42 9.82975
3622.51 9.57576
3624.60 9.35845
3626.69 9.17094
3628.78 9.03096
3629.31 9.02319
3629.83 9.06981
3630.09 9.15836
3630.35 9.39682
3630.48 9.67619
3630.62 10.2611
3630.68 10.8192
3630.75 11.7386
3630.81 13.3712
3630.88 16.3687
3630.94 20.8793
3631.00 23.8875
3631.06 20.9007
3631.12 16.3889
3631.20 13.0880
3631.27 11.4220
3631.35 10.5327
3631.42 10.0215
3631.57 9.48014
3631.71 9.22034
3632.01 8.97999
3632.30 8.86930
3632.89 8.75790
3633.48 8.69213
3635.84 8.51980
3640.56 8.26071
3650.00 7.86090
3659.44 7.55637
3664.16 7.43622
3665.34 7.41558
3666.51 7.41265
3667.10 7.43339
3667.69 7.51126
3667.99 7.61965
3668.28 7.89178
3668.43 8.20655
3668.58 8.86761
3668.65 9.50954
3668.73 10.5956
3668.80 12.6402
3668.87 16.5766
3668.94 22.1809
3669.00 25.8248
3669.06 22.0264
3669.13 16.4983
3669.17 13.7748
3669.22 12.0032
3669.31 9.99195
3669.39 9.00470
3669.48 8.46737
3669.66 7.92900
3669.84 7.68421
3670.19 7.47110
3670.55 7.38125
3671.26 7.30141
3671.97 7.26180
3674.80 7.17631
3680.48 7.06163
3683.32 7.02246
3686.16 7.02234
3687.57 7.07289
3688.28 7.13638
3688.99 7.26099
3689.70 7.53314
3690.06 7.79940
3690.41 8.26473
3690.77 9.18697
3690.95 10.0280
3691.12 11.3995
3691.30 13.8814
3691.39 15.9335
3691.48 18.9470
3691.57 23.7125
3691.65 31.5352
3691.74 45.5493
3691.83 70.9243
3691.92 109.497
3692.00 134.763
3692.09 109.073
3692.17 70.6198
3692.26 45.6134
3692.34 31.9357
3692.43 24.0945
3692.52 19.3184
3692.60 16.2364
3692.69 14.1472
3692.86 11.5942
3693.03 10.1609
3693.20 9.27926
3693.55 8.29751
3693.89 7.79028
3694.24 7.49488
3694.92 7.17765
3695.61 7.01595
3696.30 6.91950
3697.68 6.80779
3700.43 6.69178
3703.18 6.61603
3708.69 6.49211
3714.20 6.37546
3725.21 6.12914
3736.22 5.83273
3747.24 5.42741
3752.75 5.14721
3758.25 4.77505
3761.01 4.53723
3763.76 4.25138
3766.51 3.90457
3769.27 3.48968
3770.64 3.26385
3772.02 3.04694
3773.40 2.89180
3774.77 2.94843
3776.15 3.68931
3776.84 4.74855
3777.53 6.92089
3777.87 8.79904
3778.21 11.5877
3778.56 15.8471
3778.90 22.5748
3779.25 33.6569
3779.59 52.8553
3779.93 87.9339
3780.28 153.922
3780.64 272.572
3781.00 376.906
3781.36 333.141
3781.72 229.649
3781.97 174.193
3782.23 135.250
3782.48 108.046
3782.73 88.7012
3783.23 64.0230
3783.73 49.5622
3784.23 40.3411
3784.74 34.0942
3785.74 26.3191
3786.75 21.7701
3787.75 18.8374
3788.75 16.8060
3789.76 15.3275
3791.77 13.3295
3793.78 12.0510
3795.79 11.1666
3797.79 10.5197
3801.81 9.63890
3805.83 9.07212
3807.84 8.86535
3809.85 8.71234
3810.85 8.67435
3811.86 8.71965
3812.36 8.84393
3812.61 8.97841
3812.86 9.22295
3813.11 9.71397
3813.24 10.1621
3813.36 10.8852
3813.49 12.1756
3813.62 14.7249
3813.68 17.0476
3813.74 20.7785
3813.80 27.0809
3813.87 37.7207
3813.93 55.2706
3814.00 66.9443
3814.07 55.2762
3814.13 37.7216
3814.20 26.1893
3814.27 19.8957
3814.34 16.2840
3814.41 14.0823
3814.48 12.6433
3814.54 11.6835
3814.68 10.5073
3814.82 9.83997
3814.95 9.43056
3815.23 8.96758
3815.50 8.72337
3815.77 8.57598
3816.32 8.40816
3817.41 8.25001
3818.50 8.16903
3819.59 8.12841
3820.68 8.15421
3821.23 8.24111
3821.50 8.33708
3821.77 8.51242
3822.05 8.86897
3822.18 9.19718
3822.32 9.73201
3822.46 10.6984
3822.52 11.4863
3822.59 12.6487
3822.66 14.4477
3822.73 17.3927
3822.80 22.5018
3822.86 31.6176
3822.93 45.8141
3823.00 55.2656
3823.07 45.8289
3823.14 31.6319
3823.19 23.6528
3823.25 18.8057
3823.31 15.7653
3823.36 13.7862
3823.47 11.4867
3823.59 10.2940
3823.70 9.59218
3823.81 9.15286
3824.04 8.64885
3824.26 8.37939
3824.48 8.21826
3824.93 8.03797
3825.83 7.87816
3826.73 7.79860
3828.53 7.70200
3830.32 7.63210
3833.91 7.51950
3837.51 7.42508
3841.10 7.34239
3844.69 7.26935
3848.28 7.20960
3850.08 7.20715
3850.98 7.29105
3851.20 7.37456
3851.43 7.57211
3851.54 7.78896
3851.65 8.21226
3851.76 9.18413
3851.82 10.1654
3851.87 11.8095
3851.94 14.6125
3852.00 16.4819
3852.06 14.6140
3852.13 11.8098
3852.20 9.75273
3852.28 8.72569
3852.43 7.87184
3852.58 7.54793
3852.73 7.39368
3853.03 7.25559
3853.34 7.19624
3854.55 7.11735
3856.97 7.06366
3861.81 6.99080
3866.65 6.92766
3871.49 6.87065
3876.33 6.81998
3881.17 6.78050
3883.59 6.77263
3886.01 6.79596
3887.22 6.84892
3887.82 6.90666
3888.43 7.01451
3889.03 7.24259
3889.33 7.46281
3889.64 7.84426
3889.94 8.59409
3890.09 9.26771
3890.24 10.3624
3890.39 12.3057
3890.47 13.9013
3890.54 16.2119
3890.62 19.8143
3890.69 25.5852
3890.77 35.6236
3890.85 53.0534
3890.92 81.1161
3891.00 99.5463
3891.08 80.8560
3891.16 53.2070
3891.24 34.9128
3891.32 24.8445
3891.40 19.1191
3891.48 15.6532
3891.56 13.4267
3891.64 11.9225
3891.80 10.0911
3891.96 9.06641
3892.12 8.43781
3892.43 7.74124
3892.75 7.38199
3893.07 7.17292
3893.71 6.95044
3894.35 6.83872
3894.99 6.77351
3896.27 6.70100
3898.83 6.63316
3901.39 6.59470
3906.50 6.53979
3911.62 6.49407
3921.85 6.41166
3932.08 6.33486
3952.54 6.18920
3973.00 6.04738
3993.46 5.90376
4013.92 5.75377
4024.15 5.67545
4034.38 5.59629
4039.49 5.55924
4044.61 5.53307
4047.17 5.53602
4049.72 5.58493
4051.00 5.67104
4051.64 5.76084
4052.28 5.92518
4052.92 6.26895
4053.24 6.59843
4053.56 7.16743
4053.88 8.28325
4054.04 9.28894
4054.20 10.9131
4054.36 13.8184
4054.44 16.1928
4054.52 19.6891
4054.60 25.0916
4054.68 33.9208
4054.76 49.2079
4054.84 75.9680
4054.92 118.589
4055.00 146.520
4055.08 117.953
4055.16 75.8745
4055.21 56.3249
4055.27 43.1649
4055.37 27.8100
4055.48 19.8969
4055.58 15.4905
4055.68 12.7751
4055.79 11.0250
4056.00 8.96715
4056.21 7.85016
4056.41 7.18161
4056.83 6.45716
4057.25 6.09168
4057.67 5.88206
4058.50 5.66052
4059.34 5.54954
4060.17 5.48414
4061.84 5.40952
4065.18 5.33324
4068.52 5.28359
4071.86 5.24194
4075.19 5.20607
4076.86 5.19351
4078.53 5.19563
4079.37 5.21635
4080.20 5.29026
4080.62 5.39525
4081.04 5.67027
4081.25 6.00658
4081.45 6.77170
4081.56 7.58735
4081.66 9.13026
4081.72 10.4630
4081.77 12.5033
4081.82 15.7392
4081.87 20.9643
4081.94 30.5481
4082.00 36.8818
4082.06 30.6084
4082.13 21.0387
4082.20 14.4414
4082.27 10.9452
4082.34 9.03021
4082.42 7.90083
4082.56 6.71361
4082.70 6.14262
4082.99 5.63402
4083.28 5.42041
4083.86 5.24485
4084.43 5.17291
4085.58 5.10886
4086.74 5.07563
4091.34 4.99498
4100.55 4.85556
4109.77 4.70340
4118.98 4.53031
4128.19 4.32973
4137.40 4.09516
4142.01 3.96560
4146.62 3.83919
4148.92 3.79472
4150.07 3.79027
4151.22 3.81665
4152.38 3.92091
4152.95 4.04438
4153.53 4.28149
4154.10 4.79038
4154.39 5.28103
4154.68 6.12909
4154.97 7.76918
4155.11 9.22428
4155.25 11.5498
4155.40 15.5757
4155.54 23.3454
4155.61 30.1474
4155.69 40.6986
4155.76 57.7146
4155.83 84.9610
4155.92 134.212
4156.00 166.595
4156.09 133.823
4156.17 85.2322
4156.25 55.0650
4156.33 37.7923
4156.41 27.5252
4156.49 21.1064
4156.65 13.9519
4156.81 10.3662
4156.97 8.31175
4157.13 7.04388
4157.45 5.61521
4157.78 4.86710
4158.10 4.42533
4158.74 3.94401
4159.38 3.69149
4160.02 3.53534
4161.30 3.34241
4162.59 3.21440
4163.87 3.11165
4166.43 2.93393
4171.57 2.60453
4176.70 2.30506
4181.83 2.19624
4184.39 2.40223
4186.96 3.11308
4188.24 3.86742
4189.52 5.13282
4190.81 7.29627
4192.09 11.1315
4193.37 18.3478
4194.01 24.3435
4194.66 33.1006
4195.30 46.3150
4195.94 66.8230
4196.58 99.5688
4197.22 152.164
4198.11 268.091
4199.00 368.584
4199.89 324.019
4200.78 222.148
4201.48 162.542
4202.17 122.464
4202.87 95.6362
4203.56 77.1924
4204.95 54.4672
4206.34 41.5900
4207.73 33.5537
4209.12 28.1710
4211.90 21.5531
4214.68 17.7171
4217.46 15.2492
4223.02 12.2887
4228.58 10.5817
4234.13 9.46386
4245.25 8.04935
4256.37 7.11892
4267.49 6.34148
4273.05 5.92503
4275.83 5.68274
4278.61 5.39369
4281.39 5.01841
4282.78 4.77539
4284.16 4.47480
4284.86 4.29677
4285.55 4.09927
4286.25 3.88945
4286.94 3.70113
4287.64 3.66932
4287.99 3.85607
4288.33 4.41893
4288.68 5.92860
4288.86 7.49139
4289.03 10.1693
4289.20 15.0558
4289.29 18.9883
4289.38 24.5079
4289.46 32.6216
4289.55 44.7107
4289.64 63.0488
4289.72 90.4717
4289.86 159.356
4290.00 220.411
4290.07 218.371
4290.14 195.669
4290.28 135.857
4290.37 106.538
4290.45 85.0325
4290.63 58.1830
4290.80 43.2082
4290.97 34.1461
4291.15 28.2254
4291.32 24.1732
4291.66 19.0582
4292.01 16.0218
4292.36 14.0519
4293.05 11.6743
4293.74 10.3052
4294.43 9.42171
4295.13 8.80282
4295.82 8.34506
4297.20 7.70688
4298.59 7.27680
4301.36 6.71415
4304.13 6.34067
4306.90 6.05683
4312.44 5.61399
4323.52 4.89226
4334.60 4.16444
4345.68 3.29888
4351.22 2.78792
4356.76 2.24183
4362.30 1.80009
4365.07 1.79197
4366.46 1.93046
4367.84 2.24474
4369.23 2.84943
4370.61 3.94850
4372.00 5.92428
4373.38 9.54120
4374.07 12.4229
4374.77 16.4548
4375.46 22.2184
4376.15 30.6153
4376.84 43.1926
4377.54 62.4684
4378.23 92.7410
4378.92 140.269
4379.96 254.394
4381.00 358.687
4382.04 322.059
4383.08 224.865
4383.86 168.621
4384.64 129.703
4385.42 103.016
4386.20 84.3111
4387.75 60.7712
4389.31 47.1234
4390.87 38.4715
4392.43 32.6004
4395.54 25.2735
4398.66 20.9585
4401.78 18.1453
4408.01 14.7203
4414.24 12.7099
4420.47 11.3725
4432.94 9.64390
4445.40 8.48465
4451.63 8.01105
4457.86 7.60664
4464.10 7.36390
4467.21 7.41371
4470.33 7.77189
4473.44 8.90569
4475.00 10.1458
4476.56 12.3535
4478.12 16.4948
4479.68 24.9001
4480.45 32.3614
4481.23 43.8692
4482.01 62.0739
4482.79 90.9559
4483.90 155.685
4485.00 211.608
4486.11 186.444
4487.21 129.419
4488.17 93.1262
4489.13 69.8580
4490.09 54.8812
4491.04 44.8839
4492.96 32.9103
4494.88 26.2879
4496.79 22.2120
4498.71 19.5024
4502.54 16.1800
4506.37 14.2501
4510.21 13.0032
4512.12 12.5373
4514.04 12.1562
4515.00 12.0053
4515.95 11.9147
4516.43 11.9348
4516.91 12.1130
4517.15 12.3878
4517.39 13.0749
4517.51 13.8431
4517.63 15.3800
4517.69 16.7689
4517.75 18.9891
4517.81 22.7119
4517.87 29.0166
4517.94 39.5845
4518.00 46.5826
4518.07 39.5921
4518.13 29.0121
4518.18 23.1853
4518.24 19.5964
4518.29 17.2995
4518.34 15.8309
4518.45 14.1116
4518.56 13.2113
4518.77 12.3351
4518.98 11.9338
4519.41 11.5672
4519.84 11.3910
4520.69 11.1933
4521.54 11.0621
4523.25 10.8650
4524.95 10.7189
4526.66 10.6350
4527.51 10.6373
4528.36 10.7044
4529.21 10.9217
4529.64 11.1598
4530.07 11.5946
4530.49 12.4720
4530.71 13.2679
4530.92 14.5623
4531.13 16.8513
4531.35 21.4033
4531.45 25.5357
4531.56 32.0845
4531.67 43.1989
4531.77 62.0707
4531.89 93.3593
4532.00 113.953
4532.12 93.0988
4532.23 61.8709
4532.33 43.4791
4532.44 32.6326
4532.54 26.0455
4532.64 21.8607
4532.84 17.1254
4533.05 14.7102
4533.25 13.3124
4533.46 12.4403
4533.87 11.4458
4534.27 10.9156
4534.68 10.5956
4535.50 10.2333
4536.32 10.0308
4537.14 9.89662
4538.77 9.71599
4542.04 9.48094
4545.31 9.30471
4551.85 9.02204
4558.39 8.79073
4571.47 8.41747
4584.54 8.11676
4597.62 7.85850
4610.70 7.62495
4623.78 7.40721
4627.05 7.35817
4630.32 7.32144
4631.95 7.32002
4633.59 7.36629
4634.40 7.45265
4634.81 7.54310
4635.22 7.70758
4635.63 8.04689
4635.83 8.36493
4636.04 8.90314
4636.24 9.92287
4636.35 10.8015
4636.45 12.1701
4636.55 14.4547
4636.65 18.6286
4636.70 22.0838
4636.75 27.1602
4636.80 34.8032
4636.86 46.5671
4636.93 70.2708
4637.00 86.0817
4637.07 70.3505
4637.14 46.6653
4637.23 30.1579
4637.31 21.5992
4637.39 16.8897
4637.47 14.1025
4637.55 12.3225
4637.63 11.1511
4637.79 9.73976
4637.95 8.95403
4638.11 8.47833
4638.43 7.95056
4638.75 7.67969
4639.07 7.52124
4639.71 7.34971
4641.00 7.20518
4642.28 7.13724
4644.85 7.05681
4647.41 6.99650
4652.55 6.88734
4657.68 6.77772
4667.95 6.53666
4678.22 6.24500
4683.36 6.07052
4688.49 5.87068
4693.63 5.64210
4698.76 5.39163
4703.90 5.17644
4706.46 5.15680
4709.03 5.33762
4711.60 6.08199
4712.88 6.97567
4714.17 8.65259
4715.45 11.9617
4716.73 19.0291
4717.38 25.5685
4718.02 36.0052
4718.66 53.1843
4719.30 81.6709
4720.15 143.198
4721.00 198.279
4721.85 176.723
4722.70 123.537
4723.31 94.3261
4723.91 73.8939
4724.52 59.7093
4725.13 49.6706
4726.34 36.9123
4727.55 29.4676
4728.76 24.7289
4729.98 21.5129
4732.40 17.5030
4734.82 15.1490
4737.25 13.6230
4742.10 11.7827
4746.95 10.7214
4751.80 10.0322
4756.64 9.54723
4761.49 9.18572
4771.19 8.67713
4780.89 8.32926
4800.29 7.86262
4819.68 7.53815
4839.08 7.27389
4858.47 7.03076
4868.17 6.91051
4873.02 6.85860
4875.45 6.86992
4876.05 6.90434
4876.66 7.00826
4876.96 7.14527
4877.26 7.48348
4877.42 7.87237
4877.57 8.68736
4877.64 9.47758
4877.72 10.8374
4877.79 13.3718
4877.87 18.3184
4877.94 25.2654
4878.00 29.8735
4878.07 25.2764
4878.13 18.3308
4878.18 15.0191
4878.22 12.8187
4878.31 10.2838
4878.40 9.02146
4878.49 8.32230
4878.66 7.62641
4878.84 7.30710
4879.20 7.03133
4879.55 6.91744
4880.27 6.82183
4880.98 6.77965
4883.82 6.70616
4889.51 6.61279
4895.21 6.52072
4900.90 6.42236
4912.28 6.19587
4923.67 5.90802
4929.36 5.72918
4935.05 5.51785
4940.74 5.26574
4946.43 4.96889
4952.13 4.65729
4954.97 4.54889
4957.82 4.58408
4960.66 5.06743
4962.09 5.74692
4963.51 7.10994
4964.93 9.93634
4965.64 12.4362
4966.36 16.2528
4967.07 22.2850
4967.78 32.1379
4968.49 48.8054
4969.20 77.3426
4970.10 137.339
4971.00 192.224
4971.90 173.106
4972.80 122.072
4973.65 86.3911
4974.50 64.0682
4975.35 50.0170
4976.20 40.7804
4977.90 29.8562
4979.60 23.8651
4981.30 20.1895
4983.00 17.7458
4986.40 14.7482
4989.80 13.0068
4993.20 11.8800
4996.60 11.0948
5000.00 10.5174
5005.73 9.82702
5011.47 9.34879
5022.93 8.72495
5028.67 8.50834
5034.40 8.33224
5040.13 8.19877
5041.57 8.18274
5043.00 8.20040
5043.72 8.25241
5044.43 8.41769
5044.79 8.64170
5045.15 9.20638
5045.33 9.86903
5045.51 11.3131
5045.60 12.7661
5045.69 15.3368
5045.78 20.4831
5045.82 24.9595
5045.86 31.4982
5045.93 45.4951
5046.00 54.9873
5046.07 45.5255
5046.14 31.5340
5046.21 21.9070
5046.28 16.7762
5046.36 13.9369
5046.43 12.2682
5046.58 10.4741
5046.73 9.61151
5047.02 8.83603
5047.32 8.50919
5047.91 8.24000
5048.49 8.12968
5049.67 8.03147
5050.85 7.98121
5053.21 7.91685
5055.57 7.86745
5060.29 7.78303
5065.00 7.70794
5074.44 7.57512
5079.16 7.52118
5081.51 7.52106
5082.10 7.54262
5082.69 7.61118
5082.99 7.70308
5083.28 7.93118
5083.43 8.19404
5083.58 8.74522
5083.65 9.27982
5083.73 10.1831
5083.80 11.8803
5083.87 15.1694
5083.94 19.7825
5084.00 22.8922
5084.06 19.7863
5084.13 15.1730
5084.18 12.5724
5084.24 10.9620
5084.34 9.33259
5084.45 8.59408
5084.56 8.21380
5084.77 7.85202
5084.99 7.69265
5085.42 7.55781
5085.85 7.50187
5087.56 7.42795
5091.00 7.37570
5094.44 7.35201
5095.30 7.36143
5096.15 7.40491
5096.58 7.47009
5097.01 7.64415
5097.23 7.85902
5097.44 8.35548
5097.55 8.88797
5097.66 9.90654
5097.77 12.1744
5097.82 14.4189
5097.87 18.0470
5097.94 24.4904
5098.00 28.8423
5098.06 24.5161
5098.13 18.0780
5098.17 14.8288
5098.22 12.7155
5098.31 10.3762
5098.40 9.24063
5098.50 8.62149
5098.68 8.01319
5098.86 7.73705
5099.23 7.50025
5099.60 7.40270
5100.34 7.32112
5101.07 7.28509
5104.02 7.22247
5109.91 7.14552
5121.69 6.99891
5133.47 6.83563
5145.25 6.63427
5157.03 6.35324
5162.92 6.15483
5168.81 5.88462
5171.76 5.70697
5174.70 5.48678
5177.65 5.20660
5180.59 4.84103
5182.06 4.61657
5183.54 4.36160
5185.01 4.08320
5186.48 3.82259
5187.95 3.75148
5188.69 3.97073
5189.43 4.66988
5190.16 6.57171
5190.53 8.53886
5190.90 11.9179
5191.27 17.9967
5191.64 29.6466
5191.82 39.4319
5192.00 53.7673
5192.19 75.0741
5192.37 106.685
5192.69 190.734
5193.00 266.666
5193.32 238.851
5193.63 167.168
5193.88 123.400
5194.13 93.9876
5194.39 74.3275
5194.64 60.8635
5195.14 44.1836
5195.64 34.7147
5196.15 28.7737
5196.65 24.7854
5197.66 19.8508
5198.66 16.9701
5199.67 15.1090
5200.68 13.8176
5201.68 12.8745
5203.70 11.5932
5205.71 10.7684
5207.72 10.1946
5209.74 9.77313
5213.76 9.19736
5217.79 8.83089
5219.80 8.70528
5221.82 8.63673
5222.82 8.65672
5223.83 8.80900
5224.33 9.04991
5224.59 9.28744
5224.84 9.69867
5225.09 10.4967
5225.21 11.2021
5225.34 12.3122
5225.47 14.2274
5225.59 17.8662
5225.65 20.9993
5225.72 25.7793
5225.78 33.3226
5225.84 45.0930
5225.92 67.1588
5226.00 81.9143
5226.08 67.2008
5226.16 45.1408
5226.21 35.5779
5226.26 28.7352
5226.35 20.6586
5226.45 16.3909
5226.55 13.9774
5226.65 12.4717
5226.74 11.4933
5226.94 10.3311
5227.13 9.69209
5227.33 9.30656
5227.71 8.87826
5228.10 8.65485
5228.49 8.52114
5229.27 8.36844
5230.83 8.22079
5232.39 8.13658
5235.50 8.02186
5238.61 7.93484
5244.84 7.79841
5251.07 7.69146
5263.52 7.52888
5275.98 7.40744
5288.43 7.31089
5300.89 7.23191
5307.12 7.19910
5313.34 7.17532
5316.46 7.17333
5319.57 7.19748
5321.13 7.24402
5322.69 7.38419
5323.46 7.57490
5323.85 7.75756
5324.24 8.07398
5324.63 8.69156
5324.83 9.24817
5325.02 10.1463
5325.22 11.7452
5325.31 13.0385
5325.41 14.9304
5325.51 17.8656
5325.60 22.5694
5325.70 30.5871
5325.80 44.5823
5325.90 67.0769
5326.00 82.0851
5326.10 67.1296
5326.20 44.6486
5326.28 33.4309
5326.35 26.0417
5326.42 21.1691
5326.49 17.8724
5326.64 13.9145
5326.79 11.7719
5326.93 10.4817
5327.08 9.65507
5327.37 8.70190
5327.66 8.19235
5327.95 7.89065
5328.53 7.56436
5329.70 7.30695
5330.87 7.20772
5333.20 7.12898
5335.53 7.09823
5337.86 7.08783
5340.19 7.10542
5341.36 7.14539
5342.52 7.26810
5343.11 7.43587
5343.40 7.59759
5343.69 7.87765
5343.98 8.42886
5344.13 8.92707
5344.27 9.73302
5344.42 11.1799
5344.49 12.3658
5344.56 14.0874
5344.64 16.7847
5344.71 21.2086
5344.78 28.9074
5344.85 42.6548
5344.93 63.9440
5345.00 78.3740
5345.07 64.0111
5345.15 42.7382
5345.22 29.1236
5345.29 21.4315
5345.36 16.9805
5345.43 14.2525
5345.51 12.4846
5345.58 11.2826
5345.72 9.80954
5345.87 8.98047
5346.01 8.46995
5346.30 7.90135
5346.59 7.60880
5346.87 7.43860
5347.45 7.25790
5348.60 7.11660
5349.75 7.06104
5352.06 7.01332
5354.36 6.98965
5363.57 6.93751
5382.00 6.86228
5400.43 6.79480
5409.65 6.76726
5414.25 6.77470
5415.41 6.79492
5416.56 6.85759
5417.13 6.94389
5417.71 7.17237
5418.00 7.45805
5418.29 8.14019
5418.43 8.89940
5418.57 10.4509
5418.65 11.8960
5418.72 14.2882
5418.79 18.5059
5418.86 26.1797
5418.93 37.7890
5419.00 45.6776
5419.07 37.8231
5419.14 26.2219
5419.20 19.6162
5419.26 15.6210
5419.32 13.0960
5419.37 11.4936
5419.49 9.63967
5419.61 8.68203
5419.84 7.76882
5420.07 7.37070
5420.54 7.03880
5421.01 6.90740
5421.94 6.80367
5422.87 6.76297
5424.74 6.72835
5426.61 6.71146
5434.07 6.67405
5449.01 6.61590
5463.94 6.55865
5471.41 6.53318
5475.14 6.53655
5476.07 6.55162
5477.01 6.59935
5477.47 6.66524
5477.94 6.83764
5478.17 7.05105
5478.41 7.54717
5478.52 8.08658
5478.64 9.13906
5478.70 10.0981
5478.76 11.5964
5478.81 14.0819
5478.87 18.3158
5478.94 25.4538
5479.00 30.1642
5479.06 25.4825
5479.13 18.3513
5479.18 14.8151
5479.22 12.4599
5479.32 9.88995
5479.41 8.63470
5479.50 7.96043
5479.69 7.29621
5479.88 6.99642
5480.25 6.74168
5480.62 6.63877
5481.37 6.55647
5482.12 6.52352
5485.11 6.48003
5491.09 6.44500
5503.06 6.38576
5515.03 6.32254
5526.99 6.25186
5538.96 6.17069
5550.92 6.07501
5556.90 6.02033
5562.89 5.96157
5568.87 5.91248
5570.37 5.91577
5571.86 5.95848
5572.61 6.03230
5573.36 6.24540
5573.73 6.52455
5574.11 7.21963
5574.29 8.02743
5574.39 8.71974
5574.48 9.76978
5574.57 11.5031
5574.67 14.5317
5574.76 20.3809
5574.81 25.3977
5574.85 32.4691
5574.93 48.4889
5575.00 59.2134
5575.07 48.5474
5575.15 32.5408
5575.21 23.8832
5575.27 18.4402
5575.33 14.9397
5575.39 12.6873
5575.50 10.0469
5575.62 8.65642
5575.74 7.84353
5575.86 7.32971
5576.10 6.74273
5576.58 6.24920
5577.05 6.04961
5578.00 5.88574
5578.95 5.81474
5580.86 5.74095
5582.76 5.69175
5586.57 5.60612
5590.38 5.51771
5597.99 5.30627
5605.60 5.01736
5609.41 4.82725
5613.22 4.59241
5617.02 4.29659
5620.83 3.91923
5622.73 3.69494
5624.64 3.45072
5626.54 3.20613
5628.44 3.03171
5630.35 3.17826
5631.30 3.61887
5632.25 4.69531
5632.73 5.70139
5633.20 7.26815
5633.68 9.75891
5634.15 13.8311
5634.63 20.8013
5635.11 33.3569
5635.58 57.3392
5635.82 77.0835
5636.06 104.679
5636.53 187.980
5637.00 263.601
5637.47 236.433
5637.94 165.474
5638.50 106.530
5639.06 74.0117
5639.62 55.3828
5640.18 43.9031
5640.74 36.3428
5641.30 31.0850
5642.42 24.3889
5643.53 20.3904
5644.65 17.7753
5646.89 14.6131
5649.13 12.8029
5651.36 11.6641
5652.48 11.2679
5653.60 11.0145
5654.16 11.0043
5654.72 11.2470
5655.00 11.6550
5655.27 12.6827
5655.41 13.8172
5655.55 16.0364
5655.62 17.9908
5655.69 21.0308
5655.76 25.9440
5655.83 33.9394
5655.92 48.2203
5656.00 57.7318
5656.08 48.2430
5656.17 33.9400
5656.26 23.6328
5656.36 18.3870
5656.46 15.5736
5656.56 13.9334
5656.75 12.2163
5656.95 11.3851
5657.34 10.6083
5657.73 10.2466
5658.52 9.87797
5659.30 9.66226
5660.86 9.36715
5662.43 9.14488
5665.56 8.80158
5668.69 8.53894
5674.95 8.15574
5681.21 7.88691
5693.73 7.53008
5706.25 7.29962
5718.77 7.13474
5731.29 7.00813
5756.34 6.81904
5781.38 6.67563
5806.42 6.55470
5856.51 6.33666
5906.59 6.10434
5931.63 5.96385
5956.67 5.78924
5981.72 5.55158
5994.24 5.39096
6006.76 5.18280
6019.28 4.89712
6025.54 4.70845
6031.80 4.47393
6038.06 4.17511
6044.32 3.78770
6047.45 3.55535
6050.58 3.30822
6052.15 3.19642
6053.71 3.13638
6054.50 3.17428
6055.28 3.38405
6055.67 3.69750
6055.87 3.99775
6056.06 4.50347
6056.26 5.45082
6056.36 6.25873
6056.45 7.48143
6056.55 9.48990
6056.65 13.0257
6056.75 19.8418
6056.80 25.6003
6056.84 33.7154
6056.92 52.3689
6057.00 64.6734
6057.08 52.4046
6057.16 33.7584
6057.24 21.5308
6057.32 14.7844
6057.40 10.9761
6057.48 8.68343
6057.65 6.23024
6057.81 5.03999
6057.98 4.37465
6058.14 3.97172
6058.47 3.53944
6059.12 3.24405
6059.78 3.22660
6061.08 3.62635
6062.39 4.75790
6063.05 5.81315
6063.70 7.43966
6064.36 9.99284
6065.01 14.1093
6065.67 21.0305
6066.32 33.2064
6066.98 55.8456
6067.63 99.0500
6068.32 177.968
6069.00 249.907
6069.69 224.361
6070.37 157.057
6070.96 113.374
6071.55 84.9086
6072.14 66.3788
6072.73 53.8998
6073.92 38.8161
6075.10 30.4219
6076.28 25.2901
6077.46 22.0888
6078.05 21.1442
6078.35 20.9243
6078.64 21.0141
6078.94 21.7318
6079.09 22.5762
6079.23 24.0623
6079.38 26.8207
6079.53 32.2972
6079.60 37.1871
6079.68 44.8180
6079.75 57.1633
6079.82 77.1004
6079.91 113.098
6080.00 136.884
6080.09 112.977
6080.18 76.7773
6080.26 54.9718
6080.34 42.2013
6080.42 34.4411
6080.50 29.6019
6080.67 24.0986
6080.83 21.2293
6080.99 19.5233
6081.15 18.4042
6081.48 17.0204
6081.81 16.1666
6082.13 15.5613
6082.78 14.7024
6083.43 14.0712
6084.09 13.5610
6085.39 12.7480
6087.99 11.5825
6090.60 10.7630
6095.81 9.67163
6101.02 8.97316
6106.23 8.48464
6111.44 8.12262
6114.05 7.97608
6116.65 7.85378
6117.95 7.80890
6119.26 7.79815
6119.91 7.83463
6120.56 7.97884
6120.88 8.18299
6121.21 8.69784
6121.37 9.29498
6121.54 10.5631
6121.62 11.7999
6121.70 13.9046
6121.78 17.8163
6121.86 25.4757
6121.93 36.2255
6122.00 43.4336
6122.07 36.2883
6122.14 25.5499
6122.22 18.1457
6122.30 14.1945
6122.37 12.0260
6122.45 10.7577
6122.61 9.40654
6122.76 8.75234
6123.07 8.16365
6123.38 7.91134
6124.00 7.69478
6124.62 7.59735
6125.86 7.49543
6127.10 7.43060
6132.06 7.24662
6137.02 7.09605
6141.98 6.95944
6151.90 6.70528
6161.82 6.44804
6171.74 6.14358
6176.70 5.94824
6181.66 5.69508
6184.14 5.53300
6186.62 5.33442
6189.10 5.08273
6191.58 4.75157
6192.82 4.54421
6194.06 4.30140
6195.30 4.02037
6196.54 3.71455
6197.78 3.47239
6198.40 3.48345
6199.02 3.77924
6199.64 4.84001
6199.95 6.04959
6200.26 8.23723
6200.57 12.3570
6200.73 15.7423
6200.88 20.6216
6201.04 27.8099
6201.19 38.6379
6201.35 55.2359
6201.50 80.6812
6201.75 145.554
6202.00 205.466
6202.25 186.023
6202.50 131.419
6202.77 88.4088
6203.04 63.3467
6203.31 48.4246
6203.59 38.9839
6203.86 32.6511
6204.13 28.1880
6204.67 22.4353
6205.22 18.9477
6205.76 16.6467
6206.85 13.8407
6207.94 12.2129
6209.02 11.1606
6210.11 10.4268
6211.20 9.88689
6213.37 9.14551
6215.55 8.65974
6217.72 8.31536
6219.90 8.05720
6224.25 7.69179
6228.60 7.44107
6237.29 7.10617
6245.99 6.87811
6254.69 6.69987
6272.09 6.40389
6289.49 6.11503
6298.19 5.95086
6306.88 5.75692
6315.58 5.50962
6319.93 5.35215
6324.28 5.15742
6328.63 4.90226
6330.81 4.73826
6332.98 4.53629
6335.15 4.27876
6336.24 4.12348
6337.33 3.95372
6338.42 3.80170
6338.96 3.77496
6339.50 3.86239
6340.05 4.27627
6340.32 4.79028
6340.59 5.77070
6340.86 7.75500
6341.00 9.49078
6341.13 12.1389
6341.27 16.3281
6341.41 23.2351
6341.54 35.0922
6341.68 55.5903
6341.84 96.1878
6342.00 131.330
6342.08 129.695
6342.16 115.817
6342.32 80.4117
6342.42 63.7467
6342.52 51.4021
6342.71 35.7739
6342.90 26.9393
6343.10 21.5479
6343.29 18.0084
6343.48 15.5753
6343.87 12.4924
6344.26 10.6541
6344.64 9.45444
6345.41 7.99068
6346.19 7.12837
6346.96 6.55242
6348.51 5.80229
6350.05 5.29528
6351.60 4.89239
6354.69 4.19537
6357.78 3.52789
6359.32 3.22543
6360.87 3.04368
6362.41 3.29235
6363.19 3.86721
6363.96 5.17421
6364.35 6.34515
6364.73 8.10430
6365.12 10.7964
6365.50 15.0139
6365.89 21.8472
6366.28 33.2622
6366.66 53.0527
6367.05 87.8376
6367.53 160.642
6368.00 229.183
6368.48 208.932
6368.95 148.287
6369.28 115.380
6369.60 91.6037
6369.92 74.6675
6370.25 62.4292
6370.90 46.5256
6371.54 37.0114
6372.19 30.8540
6372.84 26.6153
6374.14 21.2578
6375.43 18.0639
6376.73 15.9721
6379.32 13.4236
6381.91 11.9427
6384.50 10.9792
6387.09 10.3032
6389.68 9.80261
6394.86 9.10971
6400.05 8.65092
6405.23 8.32289
6410.41 8.07528
6420.77 7.72277
6431.14 7.48032
6436.32 7.38478
6441.50 7.30299
6446.68 7.24309
6449.28 7.26609
6449.92 7.31385
6450.57 7.45358
6450.90 7.63638
6451.22 8.08853
6451.38 8.60949
6451.54 9.72042
6451.62 10.8043
6451.71 12.6924
6451.79 16.2768
6451.83 19.2180
6451.87 23.4303
6451.93 33.1510
6452.00 39.6919
6452.07 33.1388
6452.13 23.4139
6452.21 16.3214
6452.29 12.7380
6452.37 10.8390
6452.45 9.75448
6452.61 8.62525
6452.77 8.09078
6453.09 7.61973
6453.41 7.42480
6454.04 7.26543
6454.68 7.20041
6457.23 7.11203
6462.32 7.04128
6472.50 6.93906
6482.69 6.85320
6487.78 6.81777
6490.33 6.81464
6491.60 6.86206
6492.24 7.03842
6492.56 7.50275
6492.71 8.36623
6492.79 9.43919
6492.87 11.6527
6492.94 14.5900
6493.00 16.5387
6493.06 14.5963
6493.13 11.6599
6493.23 9.08442
6493.33 8.03552
6493.53 7.29884
6493.93 6.94504
6494.74 6.81387
6496.34 6.76489
6499.56 6.73291
6505.99 6.69102
6512.43 6.66876
6514.04 6.67727
6515.64 6.71704
6516.45 6.77736
6517.25 6.94407
6517.65 7.15962
6518.06 7.69769
6518.26 8.33060
6518.46 9.72637
6518.56 11.1539
6518.66 13.7381
6518.71 15.9269
6518.76 19.0912
6518.81 23.8570
6518.86 31.1075
6518.93 45.7793
6519.00 55.3723
6519.07 45.5992
6519.14 30.8813
6519.19 24.3557
6519.23 19.8582
6519.32 14.4966
6519.41 11.7335
6519.50 10.1840
6519.67 8.60069
6519.85 7.86461
6520.20 7.22802
6520.56 6.96904
6521.27 6.76416
6521.97 6.68540
6523.39 6.62299
6524.81 6.59693
6527.64 6.57272
6530.47 6.56405
6533.30 6.57388
6536.14 6.63878
6537.55 6.74424
6538.26 6.85228
6538.97 7.04894
6539.68 7.45723
6540.03 7.84635
6540.38 8.51689
6540.74 9.81528
6540.91 10.9717
6541.09 12.8295
6541.27 16.0720
6541.45 22.4144
6541.53 28.0873
6541.62 36.9197
6541.71 51.6318
6541.80 76.2822
6541.90 118.426
6542.00 146.667
6542.10 118.846
6542.20 76.8068
6542.29 51.4896
6542.38 36.7253
6542.47 27.8429
6542.57 22.2402
6542.75 15.9684
6542.93 12.7747
6543.11 10.9390
6543.29 9.80293
6543.66 8.52284
6544.02 7.85543
6544.39 7.46560
6545.12 7.04862
6545.85 6.84086
6546.57 6.72131
6548.03 6.59338
6550.95 6.48628
6553.86 6.43580
6559.69 6.37609
6565.53 6.33186
6577.19 6.25692
6583.02 6.23957
6584.48 6.25250
6585.93 6.30598
6586.66 6.38593
6587.39 6.60593
6587.76 6.88887
6588.12 7.58206
6588.30 8.37756
6588.48 10.0684
6588.58 11.7129
6588.67 14.5683
6588.76 19.9656
6588.80 24.5038
6588.85 30.9305
6588.92 45.7229
6589.00 55.7671
6589.08 45.7811
6589.15 31.0024
6589.21 23.5512
6589.26 18.7198
6589.31 15.5199
6589.37 13.3464
6589.48 10.7087
6589.59 9.28348
6589.80 7.87577
6590.02 7.23842
6590.45 6.69574
6590.89 6.47660
6591.75 6.30101
6592.62 6.23109
6594.36 6.17058
6596.09 6.14024
6603.03 6.06906
6616.91 5.94423
6630.78 5.79667
6644.66 5.60410
6658.54 5.32577
6665.47 5.12722
6672.41 4.85747
6675.88 4.68124
6679.35 4.46443
6682.82 4.19142
6686.29 3.84058
6688.02 3.62866
6689.76 3.39197
6691.49 3.14075
6693.23 2.92092
6694.96 2.90924
6695.83 3.16243
6696.70 3.88320
6697.13 4.59472
6697.56 5.73355
6698.00 7.58535
6698.43 10.6728
6698.87 16.0590
6699.30 25.9223
6699.52 33.9052
6699.73 45.2119
6699.95 61.3743
6700.17 84.2504
6700.58 151.989
6701.00 214.231
6701.42 193.280
6701.84 135.957
6702.16 101.427
6702.49 77.9586
6702.82 62.0289
6703.14 51.0114
6703.80 37.2602
6704.45 29.3587
6705.10 24.3754
6705.75 21.0042
6707.06 16.8102
6708.37 14.3427
6709.67 12.7360
6712.28 10.7825
6714.89 9.63642
6717.51 8.87351
6720.12 8.31593
6722.73 7.87555
6727.95 7.15849
6730.56 6.81636
6733.17 6.43960
6735.79 5.97266
6737.09 5.67627
6738.40 5.31415
6739.05 5.10243
6739.70 4.87104
6740.36 4.63174
6741.01 4.43048
6741.66 4.43345
6741.99 4.67566
6742.31 5.33151
6742.64 6.94558
6742.80 8.49606
6742.97 10.9959
6743.13 15.1485
6743.29 22.3088
6743.46 35.1409
6743.54 45.1881
6743.62 58.5400
6743.71 79.7576
6743.81 106.149
6744.00 151.958
6744.10 153.342
6744.19 139.912
6744.38 100.737
6744.50 80.9809
6744.62 66.1694
6744.85 47.2057
6745.09 36.3229
6745.32 29.6418
6745.56 25.2109
6745.80 22.1310
6746.27 18.1797
6746.74 15.7908
6747.21 14.2157
6748.15 12.2803
6749.09 11.1458
6750.03 10.4039
6750.97 9.88017
6751.91 9.48991
6753.80 8.94434
6755.68 8.57822
6757.56 8.31249
6759.44 8.10907
6763.21 7.81348
6766.97 7.60477
6774.50 7.32006
6782.03 7.12695
6789.56 6.98217
6804.62 6.76990
6819.68 6.61262
6834.74 6.48429
6849.80 6.37378
6857.33 6.32990
6861.09 6.33879
6862.03 6.36705
6862.98 6.45448
6863.45 6.57363
6863.92 6.88144
6864.15 7.25714
6864.39 8.11404
6864.51 9.02499
6864.62 10.7538
6864.68 12.2675
6864.74 14.6021
6864.80 18.3399
6864.86 24.2906
6864.93 35.1833
6865.00 42.3689
6865.07 35.2261
6865.14 24.3437
6865.22 17.1888
6865.29 13.2458
6865.37 11.0237
6865.44 9.70121
6865.59 8.26370
6865.74 7.56595
6866.04 6.93517
6866.34 6.66919
6866.94 6.45248
6867.53 6.36659
6868.73 6.29627
6869.93 6.26534
6874.71 6.21042
6884.27 6.14131
6903.40 6.01345
6912.97 5.95032
6922.53 5.89336
6927.32 5.87638
6932.10 5.89523
6934.49 5.95387
6935.69 6.02066
6936.88 6.14735
6938.08 6.41729
6938.68 6.67731
6939.27 7.12648
6939.87 7.99984
6940.17 8.77881
6940.47 10.0313
6940.77 12.2195
6941.07 16.5055
6941.22 20.3334
6941.37 26.3286
6941.51 36.1958
6941.66 52.6899
6941.83 81.0366
6942.00 99.8351
6942.17 80.9649
6942.34 52.8241
6942.51 34.5205
6942.68 24.3521
6942.85 18.5270
6943.02 14.9819
6943.19 12.6956
6943.36 11.1466
6943.71 9.25460
6944.05 8.19250
6944.39 7.53912
6945.07 6.81087
6945.76 6.43457
6946.44 6.21387
6947.81 5.97527
6949.18 5.85174
6950.54 5.77625
6953.28 5.68496
6958.75 5.57938
6964.22 5.49943
6975.16 5.34411
6986.10 5.16581
6997.05 4.94324
7007.99 4.64765
7013.46 4.45781
7018.93 4.22788
7021.66 4.09458
7024.40 3.94975
7027.13 3.81682
7027.82 3.80844
7028.50 3.86146
7028.84 3.96549
7029.19 4.25822
7029.36 4.61495
7029.53 5.40280
7029.61 6.19876
7029.70 7.60483
7029.78 10.3614
7029.83 12.7612
7029.87 16.2143
7029.93 23.7826
7030.00 28.8952
7030.07 23.8170
7030.13 16.2500
7030.18 12.7212
7030.22 10.2867
7030.31 7.51110
7030.39 6.09062
7030.48 5.30388
7030.66 4.50369
7030.83 4.12815
7031.18 3.78962
7031.53 3.63578
7032.23 3.47987
7032.93 3.38419
7035.73 3.10034
7038.53 2.84162
7041.33 2.64115
7044.13 2.71009
7045.53 3.05707
7046.93 3.94650
7047.63 4.78881
7048.33 6.10510
7049.03 8.19703
7049.73 11.6121
7050.43 17.3982
7051.13 27.6711
7051.83 46.8623
7052.53 83.6743
7053.26 151.838
7054.00 215.226
7054.74 194.910
7055.47 137.521
7056.06 102.124
7056.65 78.1690
7057.24 62.0705
7057.83 50.9598
7059.01 37.1856
7060.18 29.3037
7061.36 24.3435
7062.54 20.9920
7064.90 16.8238
7067.25 14.3760
7069.61 12.7840
7071.96 11.6725
7074.32 10.8551
7079.03 9.73483
7083.74 9.00291
7088.46 8.48516
7093.17 8.09722
7102.59 7.54662
7112.01 7.16408
7121.44 6.87328
7126.15 6.75758
7128.51 6.73791
7129.68 6.85001
7129.98 6.97104
7130.27 7.27041
7130.42 7.60950
7130.57 8.31002
7130.71 10.0642
7130.79 12.0331
7130.86 15.6475
7130.93 21.0661
7131.00 24.7372
7131.07 21.1218
7131.14 15.7146
7131.21 12.3110
7131.28 10.3551
7131.41 8.50882
7131.55 7.73588
7131.68 7.35083
7131.95 6.99233
7132.23 6.83642
7133.31 6.64127
7135.48 6.54130
7139.82 6.43124
7148.51 6.24403
7157.19 6.06538
7161.53 5.98023
7163.70 5.95492
7164.79 6.00438
7165.33 6.21693
7165.60 6.75536
7165.74 7.68428
7165.81 8.73643
7165.87 10.7047
7165.94 13.5859
7166.00 15.5465
7166.06 13.6009
7166.13 10.7213
7166.21 8.49207
7166.29 7.43543
7166.45 6.58090
7166.77 6.11636
7167.41 5.92579
7168.69 5.84189
7171.26 5.76910
7176.39 5.64657
7186.65 5.38371
7196.91 5.06902
7207.17 4.66665
7212.30 4.41510
7217.43 4.11618
7222.56 3.75660
7227.69 3.32667
7232.82 2.85534
7235.38 2.66518
7237.95 2.63896
7240.51 3.14160
7241.80 3.91229
7243.08 5.48628
7244.36 8.75684
7245.00 11.6214
7245.64 15.9496
7246.28 22.6733
7246.93 33.3869
7247.57 50.9201
7248.21 79.7830
7249.10 146.455
7250.00 209.652
7250.90 191.591
7251.79 136.251
7252.57 99.4035
7253.35 75.2040
7254.13 59.3395
7254.90 48.5891
7256.46 35.4854
7258.01 28.0898
7259.57 23.4666
7261.12 20.3514
7264.23 16.4781
7267.34 14.1953
7270.44 12.7023
7273.55 11.6514
7276.66 10.8708
7282.88 9.78149
7289.09 9.04476
7295.31 8.49666
7301.53 8.05484
7313.96 7.30853
7320.18 6.93575
7326.39 6.50956
7332.61 5.95585
7335.72 5.58718
7338.82 5.11236
7340.38 4.81791
7341.93 4.47378
7343.49 4.07336
7345.04 3.62704
7346.59 3.22767
7347.37 3.16352
7348.15 3.40333
7348.93 4.45651
7349.31 5.69295
7349.70 7.91337
7350.09 12.0178
7350.29 15.2952
7350.48 19.8941
7350.67 26.4814
7350.87 35.9475
7351.06 49.7303
7351.26 69.7164
7351.63 130.230
7352.00 189.950
7352.19 192.881
7352.37 176.686
7352.74 127.770
7353.04 96.5954
7353.34 75.1754
7353.64 60.6172
7353.94 50.4765
7354.53 37.7671
7355.13 30.4105
7355.72 25.7223
7356.32 22.5308
7357.51 18.5147
7358.70 16.1277
7359.89 14.5613
7362.27 12.6496
7364.66 11.5461
7365.85 11.1663
7367.04 10.8772
7368.23 10.6929
7369.42 10.7176
7370.02 10.9545
7370.31 11.2262
7370.61 11.7220
7370.91 12.7090
7371.06 13.5875
7371.21 14.9816
7371.36 17.3560
7371.51 21.8026
7371.58 25.5988
7371.65 31.2165
7371.73 39.8645
7371.80 53.3310
7371.90 79.3777
7372.00 96.8734
7372.10 79.3903
7372.20 53.3265
7372.27 40.5721
7372.34 32.1257
7372.41 26.4834
7372.47 22.6242
7372.61 17.9103
7372.75 15.3336
7372.89 13.7678
7373.03 12.7616
7373.30 11.5779
7373.58 10.9278
7373.86 10.5297
7374.41 10.0715
7375.52 9.64438
7376.62 9.42037
7378.84 9.14371
7381.05 8.95062
7383.26 8.79607
7385.47 8.66577
7389.90 8.45319
7398.75 8.14437
7407.60 7.92429
7425.29 7.62007
7442.99 7.41095
7460.69 7.25276
7478.39 7.12629
7487.24 7.07250
7496.09 7.02716
7500.51 7.01192
7504.94 7.01518
7507.15 7.04132
7509.36 7.13538
7510.47 7.27190
7511.57 7.64599
7512.13 8.12830
7512.40 8.57661
7512.68 9.32522
7512.96 10.7218
7513.10 11.9100
7513.23 13.7358
7513.37 16.7545
7513.51 22.0899
7513.65 32.5331
7513.72 41.4932
7513.79 54.6225
7513.89 83.2803
7514.00 102.594
7514.11 83.4892
7514.21 54.8835
7514.30 39.4916
7514.38 29.7098
7514.47 23.4973
7514.55 19.4554
7514.72 14.6818
7514.89 12.1712
7515.06 10.6901
7515.23 9.75793
7515.57 8.69050
7515.91 8.12569
7516.25 7.79296
7516.92 7.43454
7518.28 7.15179
7519.63 7.04155
7522.34 6.95064
7525.05 6.90925
7530.46 6.86290
7535.88 6.83068
7546.71 6.77767
7557.54 6.73013
7579.21 6.64134
7590.04 6.59910
7595.45 6.58214
7598.16 6.59029
7599.52 6.65507
7600.19 6.88098
7600.53 7.48435
7600.70 8.63012
7600.79 10.0875
7600.87 13.1782
7600.94 17.1514
7601.00 19.8581
7601.07 17.1997
7601.13 13.2380
7601.18 11.0464
7601.23 9.69226
7601.34 8.26350
7601.55 7.26502
7601.97 6.79150
7602.81 6.61892
7604.49 6.56053
7607.84 6.53220
7614.55 6.50030
7627.98 6.44087
7641.40 6.37618
7654.83 6.29992
7668.25 6.19986
7674.96 6.13232
7681.67 6.04236
7685.03 5.98361
7688.39 5.91037
7691.74 5.81539
7695.10 5.68587
7696.78 5.60134
7698.45 5.49773
7700.13 5.36858
7701.81 5.20640
7703.49 5.01100
7704.33 4.91446
7705.17 4.85620
7706.00 4.95096
7706.42 5.16453
7706.84 5.65374
7707.26 6.76905
7707.68 9.46021
7707.89 12.1851
7708.10 16.8624
7708.31 25.2410
7708.52 40.4571
7708.76 70.4741
7709.00 98.2699
7709.24 89.3658
7709.48 64.2354
7709.63 51.4431
7709.78 42.0545
7710.08 30.1847
7710.39 23.5036
7710.69 19.4519
7710.99 16.7941
7711.29 14.9597
7711.90 12.6281
7712.50 11.2339
7713.11 10.3220
7714.32 9.21369
7715.53 8.57320
7716.73 8.15902
7717.94 7.87015
7719.15 7.65748
7721.57 7.36521
7723.99 7.17356
7726.41 7.03757
7728.83 6.93553
7733.66 6.79114
7738.50 6.69215
7748.17 6.56046
7757.84 6.47191
7767.52 6.40458
7777.19 6.35133
7782.03 6.33872
7784.44 6.37611
7785.05 6.42178
7785.65 6.54675
7785.96 6.70654
7786.26 7.09299
7786.41 7.52936
7786.56 8.43646
7786.64 9.30407
7786.71 10.7492
7786.79 13.4067
7786.86 18.4507
7786.93 25.7194
7787.00 30.6747
7787.07 25.7763
7787.14 18.5210
7787.18 15.2182
7787.23 12.9284
7787.31 10.2463
7787.40 8.86869
7787.49 8.09704
7787.66 7.30810
7787.84 6.94030
7788.19 6.61974
7788.54 6.48832
7789.24 6.38205
7789.94 6.33957
7792.74 6.28585
7798.35 6.24920
7809.56 6.19734
7831.99 6.10307
7854.42 6.01024
7865.63 5.96931
7871.24 5.97859
7872.64 6.00765
7874.04 6.09918
7874.74 6.22653
7875.44 6.56702
7875.79 6.99819
7876.14 8.03945
7876.32 9.21659
7876.49 11.6714
7876.58 14.0261
7876.67 17.9736
7876.76 25.2674
7876.84 39.1169
7876.92 59.1634
7877.00 72.4268
7877.08 59.2548
7877.16 39.2312
7877.22 28.3368
7877.28 21.5531
7877.35 17.2619
7877.41 14.4511
7877.54 11.1682
7877.66 9.45517
7877.92 7.81441
7878.17 7.09048
7878.67 6.48566
7879.18 6.24536
7880.19 6.05587
7881.20 5.98192
7883.22 5.92034
7885.25 5.89144
7893.33 5.83083
7909.51 5.73452
7925.69 5.62856
7933.78 5.57275
7937.82 5.56061
7939.84 5.62243
7940.35 5.69458
7940.85 5.88818
7941.11 6.13028
7941.36 6.70164
7941.49 7.32977
7941.61 8.57215
7941.74 11.4962
7941.80 14.5335
7941.87 19.8103
7941.93 28.4703
7942.00 34.2041
7942.07 28.5429
7942.13 19.9005
7942.18 15.9880
7942.22 13.2567
7942.31 10.1098
7942.40 8.48390
7942.48 7.57959
7942.66 6.66066
7942.83 6.23614
7943.18 5.86505
7943.53 5.71252
7944.23 5.58783
7944.93 5.53643
7947.73 5.46350
7953.32 5.39455
7964.50 5.26118
7970.09 5.18466
7975.68 5.09932
7981.27 5.00845
7984.06 4.98582
7985.46 5.07421
7985.81 5.17536
7986.16 5.43324
7986.33 5.73543
7986.51 6.37975
7986.68 8.12135
7986.77 10.2158
7986.86 14.4684
7986.93 20.2136
7987.00 24.0925
7987.07 20.2430
7987.14 14.5028
7987.20 11.2956
7987.26 9.29801
7987.38 7.24901
7987.50 6.32460
7987.62 5.84199
7987.86 5.38313
7988.10 5.17909
7988.58 5.00320
7989.06 4.92696
7990.98 4.81106
7994.82 4.68927
7998.66 4.56947
8002.50 4.43702
8006.34 4.29034
8010.18 4.13670
8014.02 4.02328
8014.98 4.02946
8015.94 4.09843
8016.42 4.20556
8016.90 4.48703
8017.14 4.82787
8017.38 5.60547
8017.50 6.42733
8017.62 8.00362
8017.74 11.4959
8017.80 14.8956
8017.86 20.3701
8017.93 30.2644
8018.00 36.8478
8018.07 30.3244
8018.14 20.4500
8018.22 13.6553
8018.30 10.0913
8018.38 8.10095
8018.46 6.93841
8018.62 5.70708
8018.78 5.12023
8019.10 4.61570
8019.42 4.42885
8020.05 4.34358
8020.69 4.40816
8021.96 4.80653
8023.23 5.67490
8024.50 7.47434
8025.77 11.4185
8026.40 15.1089
8027.04 21.0342
8027.67 30.8317
8028.31 47.1696
8029.15 82.9670
8030.00 115.804
8030.85 104.504
8031.69 74.0848
8032.45 53.7215
8033.21 40.6396
8033.96 32.2116
8034.72 26.5756
8036.23 19.7942
8037.74 16.0185
8039.25 13.6749
8040.76 12.1036
8043.78 10.1510
8046.80 8.99382
8049.82 8.22808
8051.33 7.93711
8052.84 7.70167
8054.35 7.59357
8054.73 7.65376
8055.11 7.88447
8055.30 8.19177
8055.49 8.89827
8055.58 9.63010
8055.67 10.9530
8055.77 13.6244
8055.82 15.9812
8055.86 19.4906
8055.93 26.8745
8056.00 31.8370
8056.07 26.9366
8056.14 19.5551
8056.22 14.3112
8056.30 11.6018
8056.38 10.1277
8056.45 9.25999
8056.61 8.34015
8056.77 7.89400
8057.09 7.47710
8057.41 7.28264
8058.04 7.08415
8058.67 6.96573
8061.21 6.65441
8066.28 6.18089
8071.34 5.74914
8076.41 5.29902
8081.48 4.77932
8084.02 4.48069
8086.55 4.16534
8089.08 3.90317
8090.35 3.87553
8091.62 4.06215
8092.89 4.79816
8093.52 5.63059
8094.15 7.09087
8094.79 9.71646
8095.42 14.6006
8096.05 24.1431
8096.37 32.0730
8096.69 43.2317
8097.34 79.5143
8098.00 115.626
8098.66 108.118
8099.31 78.9747
8099.90 58.5170
8100.49 45.0663
8101.08 36.2652
8101.67 30.3136
8102.84 23.0399
8104.02 18.9157
8105.19 16.3221
8106.37 14.5630
8108.72 12.3548
8111.07 11.0361
8113.42 10.1618
8118.12 9.06973
8122.82 8.40424
8127.52 7.94416
8136.92 7.30989
8146.32 6.82253
8151.02 6.57985
8155.72 6.30535
8160.42 5.95407
8162.77 5.72274
8165.12 5.42675
8166.29 5.24387
8167.47 5.03054
8168.64 4.78267
8169.82 4.50705
8170.99 4.26404
8171.58 4.23271
8172.17 4.40580
8172.76 5.14017
8173.05 6.00989
8173.34 7.59830
8173.64 10.6210
8173.93 16.7014
8174.08 21.9837
8174.22 29.9186
8174.37 42.0295
8174.52 60.3478
8174.76 108.661
8175.00 154.113
8175.24 140.737
8175.48 100.688
8175.77 66.9848
8176.05 47.9722
8176.33 36.9243
8176.62 30.0428
8176.90 25.4717
8177.18 22.2699
8177.75 18.1571
8178.31 15.6761
8178.88 14.0393
8180.01 12.0374
8181.14 10.8718
8182.28 10.1132
8183.41 9.58093
8184.54 9.18674
8186.80 8.64044
8189.07 8.27741
8191.33 8.01636
8193.60 7.81780
8198.12 7.53126
8202.65 7.32951
8211.71 7.05165
8220.76 6.85666
8229.82 6.70185
8247.93 6.44348
8266.04 6.19010
8275.10 6.04174
8284.15 5.85680
8288.68 5.74018
8293.21 5.59724
8297.74 5.41396
8302.27 5.16519
8304.53 5.00252
8306.79 4.80198
8309.06 4.54903
8311.32 4.22368
8312.45 4.02737
8313.59 3.80849
8314.72 3.57751
8315.85 3.37803
8316.98 3.37426
8317.55 3.60974
8318.11 4.26364
8318.68 5.89731
8318.96 7.49363
8319.25 10.1017
8319.53 14.5054
8319.81 22.2596
8320.09 36.5393
8320.38 63.3194
8320.69 115.317
8321.00 164.847
8321.31 150.987
8321.62 107.907
8321.84 83.7013
8322.06 66.3928
8322.28 54.1856
8322.50 45.4351
8322.94 34.1570
8323.38 27.4610
8323.82 23.1470
8324.26 20.1857
8325.14 16.4527
8326.02 14.2306
8326.90 12.7773
8327.78 11.7581
8328.66 11.0083
8330.42 9.98128
8332.18 9.31445
8333.94 8.84720
8335.70 8.50166
8339.22 8.02397
8342.74 7.70824
8346.25 7.48253
8349.77 7.31210
8356.81 7.06875
8363.85 6.90002
8377.92 6.67241
8391.99 6.51680
8406.07 6.39633
8434.22 6.20515
8462.36 6.04100
8490.51 5.88018
8504.58 5.79582
8518.66 5.70632
8532.73 5.61277
8539.77 5.58141
8541.53 5.59042
8543.29 5.63983
8544.17 5.71757
8545.05 5.93390
8545.49 6.21180
8545.93 6.88985
8546.15 7.66050
8546.37 9.27542
8546.48 10.8204
8546.59 13.4525
8546.70 18.2867
8546.81 27.4909
8546.90 40.7806
8547.00 49.5727
8547.10 40.8515
8547.19 27.5789
8547.28 20.1924
8547.36 15.6431
8547.44 12.7757
8547.52 10.9441
8547.68 8.82765
8547.85 7.72537
8548.17 6.68274
8548.50 6.22570
8549.15 5.84209
8549.80 5.68738
8551.10 5.56056
8552.40 5.50586
8557.61 5.41339
8568.03 5.29424
8578.45 5.16774
8583.66 5.10143
8586.26 5.08578
8587.57 5.14933
8588.22 5.40628
8588.54 6.09083
8588.71 7.36174
8588.79 8.90629
8588.87 12.1067
8588.93 16.3450
8589.00 19.2351
8589.07 16.3733
8589.13 12.1403
8589.20 9.45395
8589.26 7.92402
8589.39 6.48148
8589.64 5.57670
8590.15 5.17870
8591.18 5.02980
8593.22 4.95564
8597.31 4.86905
8605.50 4.68893
8613.68 4.46410
8621.86 4.16753
8625.95 3.97960
8630.05 3.75536
8634.14 3.48573
8638.23 3.16577
8642.32 2.82447
8644.37 2.69874
8646.41 2.71475
8648.46 3.17372
8649.48 3.83268
8650.50 5.15188
8651.52 7.86364
8652.04 10.2335
8652.55 13.8030
8653.06 19.3492
8653.57 28.1933
8654.08 42.7025
8654.59 66.6676
8655.30 121.031
8656.00 171.981
8656.70 156.324
8657.41 110.782
8658.21 73.3911
8659.02 52.0841
8659.83 39.6091
8660.63 31.8094
8661.44 26.6054
8662.24 22.9574
8663.85 18.2597
8665.46 15.4214
8667.08 13.5464
8670.30 11.2481
8673.52 9.90261
8676.74 9.02007
8679.96 8.39322
8683.19 7.92096
8689.63 7.24260
8696.08 6.75794
8708.96 6.02936
8721.85 5.36212
8728.30 4.97972
8734.74 4.51638
8737.97 4.23732
8741.19 3.91534
8744.41 3.54290
8747.63 3.12591
8750.85 2.73832
8752.47 2.65412
8754.08 2.82527
8755.69 3.69439
8756.49 4.74659
8757.30 6.67033
8758.10 10.2784
8758.51 13.2026
8758.91 17.3363
8759.31 23.3022
8759.72 32.0257
8760.12 44.9158
8760.52 63.8408
8761.26 119.109
8762.00 173.378
8762.37 175.863
8762.74 160.922
8763.48 116.106
8764.15 84.6823
8764.82 64.2120
8765.48 50.8947
8766.15 41.9170
8767.48 31.0084
8768.82 24.8662
8770.15 21.0204
8771.49 18.4263
8774.16 15.1907
8776.82 13.2762
8779.49 12.0209
8782.16 11.1365
8784.83 10.4808
8790.17 9.57240
8795.50 8.97092
8800.84 8.54083
8806.18 8.21592
8816.85 7.75199
8827.53 7.43018
8838.20 7.18839
8843.54 7.08968
8846.21 7.05464
8847.54 7.07607
8848.21 7.20781
8848.54 7.58055
8848.71 8.30289
8848.79 9.21824
8848.87 11.1929
8848.94 13.7061
8849.00 15.4034
8849.06 13.7143
8849.13 11.2016
8849.20 9.38734
8849.27 8.45909
8849.42 7.67421
8849.72 7.23156
8850.31 7.04753
8851.49 6.97266
8853.86 6.91974
8858.59 6.84513
8868.06 6.71492
8886.99 6.48585
8905.93 6.27275
8915.39 6.16786
8920.13 6.13035
8922.49 6.17587
8923.09 6.24141
8923.68 6.42470
8923.97 6.65944
8924.27 7.22707
8924.42 7.86447
8924.57 9.17847
8924.64 10.4128
8924.71 12.4740
8924.79 16.1516
8924.86 22.8951
8924.93 32.9921
8925.00 39.8098
8925.07 33.0431
8925.14 22.9575
8925.21 16.2736
8925.28 12.6291
8925.36 10.5340
8925.43 9.28622
8925.57 7.93429
8925.72 7.27145
8926.01 6.67267
8926.30 6.41860
8926.88 6.20901
8927.46 6.12347
8929.78 6.01108
8934.42 5.92389
8943.69 5.77300
8952.97 5.59700
8962.25 5.37297
8966.88 5.23294
8971.52 5.06616
8976.16 4.86418
8980.80 4.61875
8985.44 4.33680
8987.76 4.20738
8990.07 4.14595
8992.39 4.32309
8993.55 4.65339
8994.71 5.36328
8995.87 6.88119
8997.03 10.2741
8997.61 13.4631
8998.19 18.5628
8998.77 26.9137
8999.35 40.6245
9000.18 73.0962
9001.00 104.639
9001.83 96.8420
9002.65 70.3069
9003.23 55.2774
9003.81 44.4812
9004.39 36.8153
9004.97 31.3070
9006.13 24.1666
9007.29 19.9039
9008.45 17.1455
9009.60 15.2448
9011.92 12.8352
9014.24 11.3944
9016.56 10.4462
9021.19 9.28552
9025.83 8.60942
9028.15 8.37127
9030.47 8.18167
9032.78 8.04069
9035.10 7.98051
9036.26 8.03135
9037.42 8.27827
9038.00 8.63746
9038.58 9.54575
9038.87 10.5910
9039.16 12.7840
9039.30 14.8761
9039.45 18.4236
9039.59 24.8888
9039.74 37.1328
9039.87 54.8925
9040.00 66.8472
9040.13 55.0129
9040.26 37.2750
9040.41 24.8830
9040.56 18.3744
9040.70 14.8129
9040.85 12.7124
9041.14 10.5016
9041.44 9.43412
9042.03 8.47396
9042.61 8.06167
9043.79 7.70429
9044.96 7.54141
9047.31 7.37024
9049.66 7.26388
9054.36 7.11106
9059.06 6.99258
9063.77 6.89294
9068.47 6.80718
9073.17 6.74120
9075.52 6.75557
9076.69 6.91986
9076.98 7.08096
9077.28 7.47514
9077.43 7.92162
9077.57 8.85039
9077.72 11.2162
9077.79 13.8791
9077.87 18.9338
9077.93 26.3482
9078.00 31.2684
9078.07 26.3823
9078.13 18.9749
9078.21 13.9635
9078.28 11.2696
9078.43 8.89197
9078.57 7.94155
9078.72 7.48334
9079.01 7.06995
9079.30 6.89517
9080.46 6.68786
9082.79 6.59956
9087.44 6.52017
9096.74 6.39188
9106.05 6.26450
9115.35 6.12214
9124.65 5.93972
9129.31 5.81693
9133.96 5.65303
9136.28 5.54585
9138.61 5.41231
9140.94 5.23973
9143.26 5.00654
9144.42 4.85630
9145.59 4.67501
9146.75 4.45471
9147.91 4.19075
9149.08 3.90659
9149.66 3.80039
9150.24 3.80995
9150.82 4.17986
9151.11 4.71092
9151.40 5.76311
9151.69 7.90169
9151.84 9.73497
9151.98 12.4599
9152.13 16.6391
9152.27 23.1166
9152.42 33.4213
9152.56 49.8546
9152.78 90.1885
9153.00 128.920
9153.11 130.048
9153.22 118.555
9153.44 85.3724
9153.64 62.0183
9153.84 47.0238
9154.04 37.3933
9154.24 30.9638
9154.64 23.2337
9155.04 18.9296
9155.45 16.2482
9155.85 14.4488
9156.65 12.2220
9157.46 10.9136
9158.26 10.0625
9159.06 9.46638
9159.87 9.02767
9161.47 8.42538
9163.08 8.03202
9164.69 7.75475
9166.29 7.54852
9169.51 7.26061
9172.72 7.06772
9175.93 6.92804
9179.15 6.82119
9185.58 6.66602
9192.00 6.55723
9198.43 6.48427
9201.64 6.49694
9202.45 6.53703
9203.25 6.65881
9203.65 6.82213
9204.05 7.23503
9204.26 7.72513
9204.46 8.80969
9204.56 9.92000
9204.66 11.9283
9204.76 16.0162
9204.81 19.6617
9204.86 25.1841
9204.93 36.5194
9205.00 44.0050
9205.07 36.5552
9205.14 25.2280
9205.22 17.4753
9205.30 13.3461
9205.38 11.0743
9205.46 9.73057
9205.62 8.31462
9205.77 7.63566
9206.09 7.02736
9206.40 6.77229
9207.03 6.56416
9207.66 6.48097
9210.19 6.37801
9215.23 6.31435
9225.31 6.23535
9235.40 6.17086
9245.48 6.11391
9265.65 6.01644
9275.73 5.98818
9278.25 5.99624
9280.77 6.04007
9282.03 6.10995
9283.29 6.31012
9283.93 6.57749
9284.56 7.26685
9284.87 8.10662
9285.03 8.85404
9285.19 10.0415
9285.34 12.1140
9285.50 16.1001
9285.58 19.6236
9285.66 25.1198
9285.74 34.0516
9285.82 48.6569
9285.91 74.4732
9286.00 91.6751
9286.09 74.6784
9286.18 48.9136
9286.25 36.8820
9286.31 28.7593
9286.43 19.3786
9286.55 14.5998
9286.67 11.9515
9286.92 9.28287
9287.16 8.05299
9287.65 6.99326
9288.14 6.56245
9289.12 6.21917
9290.10 6.08641
9292.06 5.98066
9294.02 5.93639
9301.86 5.86664
9317.53 5.79155
9333.20 5.72595
9341.03 5.69674
9344.95 5.69468
9346.91 5.74171
9347.89 5.93084
9348.13 6.10194
9348.38 6.50456
9348.50 6.94597
9348.62 7.81563
9348.75 9.84897
9348.81 11.9461
9348.87 15.6058
9348.93 21.6204
9349.00 25.6567
9349.07 21.7012
9349.13 15.7065
9349.19 12.3147
9349.24 10.2616
9349.35 8.14736
9349.57 6.68867
9349.79 6.21292
9350.01 6.00310
9350.89 5.75601
9352.66 5.67463
9356.18 5.63895
9363.23 5.60369
9377.32 5.54268
9405.50 5.41926
9433.69 5.28729
9447.78 5.21704
9454.82 5.18204
9458.35 5.17016
9460.11 5.18634
9460.99 5.26888
9461.43 5.51695
9461.65 6.05788
9461.76 6.85278
9461.87 8.90712
9462.00 12.6882
9462.13 8.92439
9462.26 6.65379
9462.39 5.89444
9462.66 5.42936
9463.18 5.22815
9464.24 5.15615
9466.34 5.12521
9470.56 5.09658
9478.98 5.04853
9487.41 5.01042
9491.62 5.03664
9492.67 5.08277
9493.72 5.21894
9494.25 5.40136
9494.78 5.86776
9495.04 6.43117
9495.30 7.70061
9495.44 9.02985
9495.57 11.5105
9495.63 13.6408
9495.70 16.8660
9495.77 21.9068
9495.83 29.7534
9495.92 44.6435
9496.00 54.6893
9496.09 44.7397
9496.17 29.8728
9496.24 21.2769
9496.32 16.0482
9496.39 12.8506
9496.47 10.8098
9496.61 8.49956
9496.76 7.31702
9497.06 6.20055
9497.35 5.71604
9497.94 5.31285
9498.53 5.15218
9499.72 5.02336
9500.90 4.97033
9505.62 4.89210
9515.08 4.81254
9533.99 4.66173
9543.44 4.57978
9552.90 4.49256
9562.35 4.40577
9567.08 4.39380
9568.26 4.42055
9569.45 4.51585
9570.04 4.65068
9570.63 5.00347
9570.92 5.43245
9571.22 6.40248
9571.37 7.41893
9571.51 9.31789
9571.66 13.4115
9571.74 17.2592
9571.81 23.2156
9571.91 34.6770
9572.00 42.2790
9572.10 34.7886
9572.19 23.3540
9572.25 18.4095
9572.31 14.9345
9572.42 10.7591
9572.54 8.55634
9572.66 7.28916
9572.89 5.98201
9573.12 5.36834
9573.59 4.82716
9574.05 4.60172
9574.98 4.41514
9575.91 4.33676
9579.62 4.22050
9587.06 4.10270
9594.49 3.99154
9601.92 3.87255
9616.79 3.59847
9631.66 3.26043
9646.52 2.84676
9653.96 2.62482
9661.39 2.44136
9668.82 2.45906
9672.54 2.70417
9676.25 3.36157
9679.97 4.98531
9681.83 6.56950
9683.69 9.16502
9685.55 13.5796
9687.40 21.4394
9689.26 36.1764
9691.12 64.6199
9693.06 116.949
9695.00 165.537
9696.94 149.830
9698.88 105.721
9700.21 81.9069
9701.53 64.7812
9702.86 52.6278
9704.18 43.8778
9706.83 32.5352
9709.48 25.7749
9712.13 21.4072
9714.78 18.4051
9720.08 14.6072
9725.38 12.3384
9730.67 10.8416
9741.27 8.98817
9751.87 7.86906
9762.47 7.09662
9783.66 6.02027
9804.86 5.17539
9815.46 4.75731
9826.06 4.30227
9836.65 3.76793
9841.95 3.45236
9847.25 3.09492
9852.55 2.70986
9855.20 2.54060
9857.85 2.46328
9860.50 2.69391
9861.83 3.12114
9863.15 4.04765
9864.47 6.07262
9865.14 7.91682
9865.80 10.7993
9866.46 15.4692
9867.12 23.3208
9867.79 37.0798
9868.45 61.6178
9869.22 110.263
9870.00 154.432
9870.78 138.521
9871.55 96.9433
9872.17 71.9488
9872.78 55.0036
9873.39 43.5873
9874.00 35.7031
9875.22 25.8901
9876.44 20.2653
9877.66 16.7123
9878.88 14.3043
9881.33 11.2831
9883.77 9.47765
9886.21 8.27336
9891.10 6.73686
9895.98 5.75098
9900.87 5.01755
9910.64 3.87893
9920.41 2.93778
9925.30 2.56052
9930.19 2.37018
9935.07 2.71886
9937.52 3.39418
9939.96 4.80848
9942.40 7.69528
9943.62 10.1491
9944.84 13.7299
9946.07 19.0419
9947.29 27.0304
9948.51 39.2012
9949.73 57.6603
9951.87 110.167
9954.00 163.351
9955.07 166.908
9956.14 153.687
9958.27 111.997
9959.88 86.3419
9961.49 68.1640
9963.10 55.4782
9964.71 46.4545
9967.94 34.8901
9971.16 28.0319
9974.38 23.5952
9977.60 20.5275
9984.05 16.6021
9990.49 14.2099
9996.93 12.5994
10000.2 11.9765
10003.4 11.4533
10005.0 11.2365
10006.6 11.0868
10007.4 11.0857
10008.2 11.2659
10008.6 11.5725
10009.0 12.3818
10009.2 13.3210
10009.4 15.2874
10009.5 17.1522
10009.6 20.2925
10009.7 25.9686
10009.8 30.4963
10009.8 38.0642
10009.9 54.6658
10010.0 65.5852
10010.1 54.7565
10010.2 38.0096
10010.3 28.5760
10010.3 22.7256
10010.4 19.1601
10010.5 17.1236
10010.7 14.4328
10010.8 13.1206
10011.1 11.8131
10011.4 11.2224
10012.0 10.6915
10012.7 10.4400
10013.9 10.1621
10015.1 9.97774
10017.6 9.68465
10020.1 9.43325
10025.0 8.98638
10030.0 8.58776
10034.9 8.22046
10039.9 7.87708
10044.8 7.56584
10047.3 7.48872
10048.5 7.69230
10049.2 8.40895
10049.5 9.83820
10049.6 11.5838
10049.8 15.3096
10049.9 20.0983
10050.0 23.4023
10050.1 20.1101
10050.2 15.2784
10050.4 11.1022
10050.6 9.29220
10051.0 8.01094
10051.8 7.36749
10053.3 7.05453
10056.3 6.78283
10062.4 6.32819
10068.5 5.83983
10074.5 5.26977
10080.6 4.55091
10083.7 4.10358
10086.7 3.57625
10089.7 2.97509
10091.3 2.68449
10092.8 2.49379
10094.3 2.66829
10095.1 3.12802
10095.8 4.17203
10096.6 6.44568
10097.0 8.46843
10097.3 11.5320
10097.7 16.2639
10098.1 23.7340
10098.5 35.7468
10098.9 54.4497
10099.4 102.905
10100.0 150.098
10100.3 152.668
10100.6 139.839
10101.2 101.590
10101.5 81.0702
10101.9 65.7595
10102.6 46.4451
10103.4 35.3061
10104.1 28.5357
10104.8 23.9904
10105.6 20.8459
10107.0 16.7639
10108.5 14.2360
10110.0 12.5261
10112.9 10.3371
10115.8 8.93493
10118.8 7.90805
10124.6 6.32206
10130.5 4.89471
10133.4 4.15093
10136.4 3.38761
10139.3 2.71273
10140.8 2.55079
10142.2 2.74394
10143.0 3.11879
10143.7 3.82132
10144.4 5.06482
10145.2 7.21685
10145.9 11.0113
10146.6 17.6160
10147.4 29.4573
10148.1 50.7750
10149.1 101.130
10150.0 154.705
10150.5 160.596
10151.0 149.962
10151.9 112.402
10152.8 83.0198
10153.7 63.7412
10154.6 51.1893
10155.6 42.7088
10157.4 32.3466
10159.2 26.4620
10161.0 22.7044
10162.8 20.1439
10166.4 16.8705
10170.1 14.8706
10173.7 13.5228
10181.0 11.7935
10188.2 10.7004
10195.5 9.92030
10210.0 8.79829
10224.6 7.90338
10231.8 7.46260
10239.1 6.98762
10246.3 6.44302
10250.0 6.13650
10253.6 5.81582
10257.2 5.54007
10259.1 5.48791
10260.9 5.61144
10262.7 6.18495
10264.5 8.01187
10265.4 10.1230
10266.3 14.0645
10267.2 21.7590
10268.1 36.9364
10269.1 65.7728
10270.0 94.1835
10270.9 87.7828
10271.9 64.3877
10272.5 52.4428
10273.0 43.4261
10274.2 31.8249
10275.4 25.0574
10276.5 20.8709
10277.7 18.0437
10278.8 16.0558
10281.1 13.4203
10283.4 11.7425
10285.7 10.5472
10290.4 8.82779
10295.0 7.41486
10297.3 6.70201
10299.6 5.94646
10301.9 5.17685
10303.1 4.85654
10304.2 4.73025
10305.4 5.17222
10306.0 5.91312
10306.5 7.36211
10307.1 10.2368
10307.7 15.8215
10308.0 20.5779
10308.3 27.4616
10308.5 37.4755
10308.8 51.3639
10309.4 98.3818
10310.0 148.086
10310.3 152.789
10310.6 142.328
10311.2 106.227
10311.8 76.3047
10312.4 57.9477
10313.0 46.2651
10313.6 38.7144
10314.3 33.4077
10314.9 29.6360
10316.1 24.5757
10317.3 21.4093
10318.6 19.2603
10321.0 16.5550
10323.5 14.9130
10325.9 13.8119
10330.8 12.4201
10335.8 11.5613
10340.7 10.9713
10350.5 10.1940
10360.3 9.68962
10370.1 9.32826
10375.1 9.18367
10380.0 9.06459
10382.4 9.02250
10384.9 9.01854
10386.1 9.06438
10387.3 9.23730
10388.0 9.48711
10388.6 10.1297
10388.9 10.9198
10389.2 12.6312
10389.3 14.5281
10389.5 17.8594
10389.6 20.8677
10389.6 24.7651
10389.7 31.5699
10389.8 41.4493
10389.9 61.6070
10390.0 74.2559
10390.1 61.7623
10390.2 41.6435
10390.3 28.8201
10390.4 21.4809
10390.5 17.3897
10390.6 15.1266
10390.9 12.4378
10391.1 11.1861
10391.5 10.0221
10391.9 9.52876
10392.8 9.12074
10393.6 8.95429
10395.3 8.80539
10397.1 8.72996
10403.9 8.56420
10410.7 8.44459
10417.6 8.33987
10431.3 8.15576
10445.0 7.99459
10472.3 7.71299
10499.7 7.45610
10527.1 7.18853
10540.8 7.03331
10554.5 6.84418
10568.1 6.58480
10575.0 6.40371
10581.8 6.15738
10585.3 5.99408
10588.7 5.79010
10592.1 5.52558
10595.5 5.16767
10597.2 4.93721
10598.9 4.65949
10600.6 4.32270
10602.4 3.91989
10604.1 3.48380
10604.9 3.31216
10605.8 3.29489
10606.6 3.74361
10607.1 4.40109
10607.5 5.64747
10607.9 8.12539
10608.1 10.2333
10608.3 13.1163
10608.6 17.5059
10608.8 23.6655
10609.0 32.7156
10609.2 45.9494
10609.6 87.5214
10610.0 128.979
10610.2 132.178
10610.4 122.237
10610.8 90.6264
10611.2 66.2352
10611.6 50.5337
10612.0 40.4570
10612.4 33.7271
10612.8 29.0280
10613.2 25.6130
10613.9 21.1034
10614.7 18.2383
10615.5 16.3032
10617.0 13.8965
10618.6 12.4576
10620.1 11.5170
10621.7 10.8489
10623.3 10.3561
10626.4 9.67117
10629.5 9.21877
10632.6 8.89674
10635.7 8.65492
10641.9 8.31346
10648.1 8.08095
10654.4 7.90983
10660.6 7.77671
10673.0 7.57835
10685.5 7.43246
10710.3 7.21908
10735.2 7.05749
10760.1 6.92127
10785.0 6.79928
10797.4 6.74624
10803.6 6.74150
10806.7 6.82145
10807.5 6.91107
10808.3 7.14944
10808.7 7.45488
10809.1 8.19822
10809.3 9.07286
10809.4 10.8128
10809.5 12.5618
10809.6 15.1972
10809.7 20.4889
10809.8 30.0713
10809.9 43.7652
10810.0 53.6763
10810.1 43.8729
10810.2 30.2032
10810.2 23.9369
10810.3 19.2512
10810.4 13.9478
10810.5 11.3232
10810.6 9.97018
10810.9 8.48375
10811.1 7.83177
10811.6 7.25534
10812.0 7.02452
10813.0 6.83545
10813.9 6.76199
10817.7 6.67271
10825.1 6.61855
10840.1 6.54410
10870.0 6.40139
10899.9 6.25103
10914.9 6.17442
10922.4 6.15210
10926.1 6.20921
10927.0 6.28268
10928.0 6.48703
10928.4 6.75764
10928.9 7.42110
10929.1 8.24244
10929.4 9.98944
10929.5 11.8492
10929.6 14.9256
10929.7 17.6627
10929.7 21.7126
10929.8 27.8456
10929.8 35.6394
10929.9 54.3087
10930.0 65.2931
10930.1 54.4023
10930.2 35.7596
10930.2 25.6208
10930.3 18.9326
10930.4 15.0084
10930.5 12.8314
10930.6 10.0433
10930.8 8.73025
10931.1 7.46973
10931.4 6.94235
10932.0 6.49241
10932.6 6.31824
10933.9 6.17904
10935.1 6.12340
10940.0 6.05288
10944.9 6.07052
10946.1 6.12225
10947.4 6.27831
10948.0 6.49353
10948.6 7.04099
10948.9 7.71542
10949.2 9.18834
10949.4 10.8393
10949.5 13.7785
10949.6 16.4697
10949.7 20.0004
10949.7 26.2624
10949.8 35.2082
10949.9 52.5103
10950.0 64.5819
10950.1 52.7252
10950.2 35.3257
10950.3 26.5148
10950.4 20.2256
10950.4 16.2661
10950.5 13.6865
10950.7 10.7094
10950.8 9.22420
10951.1 7.72974
10951.4 7.06272
10952.1 6.49904
10952.7 6.27132
10953.9 6.08687
10955.2 6.01218
10960.2 5.90644
10970.1 5.80868
10980.1 5.71930
10990.0 5.62379
11000.0 5.51809
11009.9 5.39964
11019.9 5.27054
11024.9 5.23049
11026.1 5.24883
11027.4 5.33442
11028.0 5.46439
11028.6 5.81783
11028.9 6.26020
11029.2 7.30246
11029.4 8.48879
11029.5 10.6961
11029.6 12.8175
11029.7 16.2783
11029.8 22.2465
11029.8 32.2762
11029.9 48.9029
11030.0 59.4885
11030.1 49.0591
11030.2 32.3056
11030.2 23.4449
11030.3 18.2947
11030.4 14.4648
11030.4 12.3132
11030.6 9.55613
11030.7 8.10082
11030.9 6.70892
11031.2 6.09123
11031.7 5.56950
11032.2 5.35953
11033.3 5.18022
11034.3 5.10103
11038.4 4.95604
11046.7 4.75040
11055.0 4.52265
11063.3 4.25717
11071.6 3.97246
11075.7 3.85956
11079.8 3.84224
11084.0 4.11680
11086.1 4.52714
11088.1 5.33941
11090.2 6.94976
11092.3 10.2584
11093.3 13.1605
11094.3 17.4619
11095.4 24.0367
11096.4 33.8537
11098.2 61.3459
11100.0 88.6987
11101.8 83.6545
11103.6 61.9454
11105.3 45.9474
11106.9 35.5387
11108.6 28.7597
11110.3 24.1860
11113.6 18.6226
11116.9 15.4771
11120.2 13.5008
11123.5 12.1604
11130.2 10.4752
11136.8 9.46486
11143.5 8.79100
11156.7 7.93842
11170.0 7.40478
11183.3 7.02248
11196.6 6.72005
11203.2 6.59040
11206.5 6.54506
11208.2 6.58410
11209.0 6.80417
11209.5 7.46679
11209.7 8.87924
11209.8 10.7492
11209.9 15.6029
11209.9 20.7887
11210.0 24.7760
11210.1 20.8349
11210.1 15.6573
11210.2 11.3923
11210.3 9.32639
11210.5 7.77137
11210.8 6.90872
11211.5 6.56931
11212.9 6.44095
11215.7 6.36069
11221.3 6.25179
11232.5 6.04876
11243.6 5.84027
11254.8 5.61169
11266.0 5.33942
11271.6 5.17291
11277.1 4.96987
11282.7 4.70238
11285.5 4.52776
11288.3 4.30816
11291.1 4.02129
11292.5 3.84497
11293.9 3.65386
11295.3 3.49011
11296.0 3.47583
11296.7 3.60804
11297.4 4.14680
11297.7 4.78195
11298.1 5.95099
11298.4 8.18959
11298.8 12.7650
11299.0 16.9490
11299.1 22.9751
11299.3 32.2269
11299.5 46.4278
11299.7 82.0927
11300.0 114.972
11300.3 104.296
11300.5 74.2659
11300.8 54.7064
11301.0 41.7912
11301.2 33.2981
11301.5 27.5332
11301.9 20.5018
11302.4 16.5362
11302.8 14.0610
11303.3 12.3958
11304.2 10.3461
11305.1 9.12435
11306.0 8.33313
11307.9 7.35391
11309.7 6.76915
11311.5 6.37285
11315.2 5.84898
11318.9 5.49400
11322.5 5.22105
11326.2 5.03601
11327.1 5.04186
11328.0 5.15840
11328.5 5.35690
11328.9 5.90030
11329.2 6.56373
11329.4 8.05284
11329.5 9.66793
11329.6 12.3848
11329.7 17.7925
11329.8 23.0528
11329.8 30.6325
11329.9 46.6194
11330.0 56.8499
11330.1 46.7623
11330.2 30.8052
11330.2 21.1889
11330.3 16.0187
11330.4 12.4727
11330.5 10.5295
11330.6 8.17383
11330.8 7.03796
11331.1 5.88779
11331.3 5.39841
11331.9 4.96447
11332.5 4.77158
11333.7 4.57602
11334.9 4.45557
11339.6 4.09220
11344.3 3.74113
11349.0 3.37669
11353.7 3.06080
11356.1 3.00487
11358.4 3.16876
11360.8 3.91859
11362.0 4.80421
11363.1 6.38918
11364.3 9.34961
11365.5 15.0363
11366.1 19.8405
11366.7 26.8373
11367.3 37.1319
11367.8 51.9135
11368.9 95.5890
11370.0 137.386
11371.1 126.675
11372.2 91.2642
11373.2 65.0685
11374.3 48.6994
11375.3 38.2332
11376.4 31.3798
11378.4 23.1546
11380.5 18.5820
11382.6 15.7349
11384.7 13.8113
11388.9 11.3889
11393.1 9.91664
11397.3 8.90649
11405.6 7.53012
11414.0 6.48483
11418.1 5.97419
11422.3 5.41501
11426.5 4.74737
11428.6 4.34858
11430.7 3.89938
11432.8 3.43944
11433.8 3.26882
11434.9 3.26550
11435.9 3.74901
11436.4 4.42756
11437.0 5.73400
11437.5 8.25731
11438.0 13.2931
11438.3 17.5796
11438.5 23.8675
11438.8 33.1738
11439.0 46.8873
11439.5 88.3112
11440.0 129.045
11440.3 131.680
11440.5 121.320
11441.0 89.2346
11441.4 67.2296
11441.8 52.2937
11442.2 42.2649
11442.6 35.3414
11443.4 26.7297
11444.3 21.7609
11445.1 18.6005
11445.9 16.4394
11447.5 13.7027
11449.2 12.0522
11450.8 10.9483
11454.1 9.55628
11457.4 8.69128
11460.6 8.08701
11467.2 7.25095
11473.7 6.64989
11480.3 6.15330
11493.4 5.25890
11506.5 4.32243
11513.1 3.80456
11519.6 3.26978
11526.2 2.84032
11529.4 2.80343
11532.7 3.11299
11536.0 4.26586
11537.6 5.51628
11539.3 7.61410
11540.9 11.2137
11542.5 17.4890
11544.2 28.6837
11545.8 48.5996
11547.9 93.8312
11550.0 141.182
11552.1 136.049
11554.2 101.704
11555.6 81.5968
11557.1 66.5678
11558.5 55.5936
11559.9 47.5549
11562.8 36.8160
11565.6 30.2191
11568.5 25.8575
11571.3 22.8006
11577.0 18.8499
11582.7 16.4334
11588.4 14.8229
11591.3 14.2103
11594.1 13.7054
11595.6 13.5057
11597.0 13.3941
11597.7 13.4369
11598.4 13.7231
11598.8 14.1647
11599.1 15.2505
11599.3 16.5134
11599.5 19.1258
11599.6 21.5720
11599.7 25.6274
11599.7 32.7624
11599.8 44.3519
11599.9 62.9972
11600.0 76.0636
11600.1 63.1710
11600.2 44.5500
11600.2 36.4311
11600.3 30.0446
11600.4 22.7630
11600.5 19.1331
11600.6 17.2507
11600.9 15.1638
11601.1 14.2318
11601.6 13.3752
11602.0 13.0006
11603.0 12.6311
11603.9 12.4279
11607.6 11.9366
11611.4 11.5762
11615.1 11.2697
11622.6 10.7615
11630.0 10.3523
11645.0 9.72685
11652.4 9.48246
11656.1 9.38109
11658.0 9.36673
11658.9 9.47626
11659.4 9.87243
11659.6 10.7700
11659.8 12.2317
11659.9 15.8291
11659.9 20.1169
11660.0 22.4608
11660.1 19.5269
11660.1 15.8999
11660.2 12.9500
11660.3 11.4929
11660.5 10.2874
11660.8 9.62908
11661.4 9.34753
11662.6 9.22787
11665.1 9.13904
11670.1 9.01214
11680.0 8.79461
11689.9 8.60388
11694.9 8.51724
11697.4 8.47971
11698.6 8.47604
11699.3 8.52042
11699.6 8.65562
11699.7 8.92479
11699.9 9.95407
11700.0 11.4813
11700.1 9.96724
11700.3 8.80489
11700.5 8.58244
11700.9 8.46902
11701.8 8.41833
11703.4 8.38083
11706.6 8.32661
11713.1 8.22802
11726.1 8.04540
11752.1 7.71447
11778.1 7.39903
11804.0 7.06194
11830.0 6.64449
11843.0 6.36956
11856.0 6.00871
11862.5 5.77622
11869.0 5.49123
11875.5 5.12978
11882.0 4.65696
11885.2 4.36221
11888.5 4.01906
11891.7 3.62454
11895.0 3.19807
11898.2 2.84438
11899.8 2.81738
11901.5 3.09185
11903.1 4.11825
11903.9 5.23090
11904.7 7.11888
11905.5 10.3581
11906.3 16.0381
11907.1 26.2490
11907.9 44.7503
11909.0 86.7932
11910.0 131.220
11910.5 135.481
11911.0 126.148
11912.1 93.9435
11913.2 67.0748
11914.2 50.5546
11915.3 40.2391
11916.4 33.4745
11917.5 28.7708
11918.6 25.4143
11920.7 20.9638
11922.9 18.1794
11925.1 16.3084
11929.4 13.9592
11933.7 12.5586
11938.0 11.6320
11942.4 10.9739
11946.7 10.4819
11955.4 9.79292
11964.0 9.32989
11972.7 8.99387
11981.3 8.73606
11998.7 8.35884
12016.0 8.08658
12050.6 7.68866
12085.3 7.36275
12102.6 7.19607
12119.9 7.00615
12137.2 6.76056
12145.9 6.59486
12154.5 6.37333
12158.9 6.22803
12163.2 6.04619
12167.5 5.80918
12171.9 5.48367
12174.0 5.26900
12176.2 5.00490
12178.4 4.66960
12180.5 4.23953
12182.7 3.68454
12184.9 3.07952
12185.9 2.97711
12186.5 3.15790
12187.0 3.73037
12187.6 5.16489
12187.8 6.52071
12188.1 8.64115
12188.4 12.0042
12188.6 17.4345
12188.9 26.3440
12189.2 40.9646
12189.6 78.8555
12190.0 118.786
12190.2 122.551
12190.4 114.197
12190.8 85.1891
12191.3 59.4059
12191.8 44.3273
12192.2 35.1517
12192.7 29.2379
12193.1 25.1318
12193.6 22.2666
12194.5 18.4944
12195.5 16.1373
12196.4 14.5707
12198.2 12.6046
12200.1 11.4368
12201.9 10.6662
12203.8 10.1201
12205.6 9.71457
12209.3 9.14485
12213.0 8.76440
12216.7 8.48847
12220.4 8.27795
12227.8 7.96990
12235.2 7.74780
12250.0 7.41890
12264.8 7.13756
12272.1 6.98683
12279.5 6.80947
12283.2 6.70233
12286.9 6.57525
12290.6 6.41830
12294.3 6.21566
12298.0 5.93877
12299.9 5.76087
12301.7 5.55510
12303.6 5.34254
12305.4 5.28937
12306.3 5.57527
12306.8 5.95344
12307.3 6.66555
12307.7 8.01557
12308.2 10.6573
12308.6 16.0711
12308.9 20.7371
12309.1 27.5027
12309.6 48.5840
12310.0 70.0511
12310.5 66.2715
12310.9 49.7438
12311.3 37.3583
12311.8 29.3710
12312.2 24.2292
12312.6 20.8525
12313.5 16.6941
12314.3 14.3442
12315.2 12.8676
12316.0 11.8661
12317.7 10.6084
12319.4 9.85407
12321.1 9.35822
12322.8 9.00579
12324.5 8.74198
12327.9 8.37068
12331.3 8.12062
12334.7 7.93771
12338.1 7.79605
12345.0 7.58515
12351.8 7.42932
12365.4 7.19524
12379.0 7.00439
12392.6 6.82365
12406.2 6.63370
12413.0 6.53740
12416.4 6.52212
12418.1 6.64511
12419.0 7.11558
12419.2 7.52616
12419.4 8.37134
12419.6 10.6102
12419.7 13.4547
12419.8 18.8718
12419.9 26.1962
12420.0 31.4114
12420.1 26.2736
12420.2 18.9651
12420.2 15.2021
12420.3 12.5444
12420.4 9.88386
12420.7 7.86304
12421.0 7.18454
12421.2 6.88811
12422.3 6.51267
12424.4 6.36069
12428.7 6.23970
12437.2 6.02136
12445.7 5.75116
12454.2 5.38790
12458.5 5.15140
12462.8 4.86141
12467.0 4.49851
12471.3 4.03868
12475.5 3.46244
12479.8 2.88588
12481.9 2.87334
12483.0 3.15121
12484.0 3.88346
12485.1 5.60798
12485.6 7.16781
12486.2 9.54784
12486.7 13.2292
12487.2 19.0156
12487.8 28.2329
12488.3 42.8934
12489.1 82.9872
12490.0 125.307
12490.4 129.348
12490.9 120.358
12491.7 89.5919
12492.7 61.8214
12493.7 45.5549
12494.8 35.8552
12495.8 29.7391
12496.8 25.5589
12497.8 22.5898
12499.8 18.7259
12501.8 16.3350
12503.8 14.7399
12507.8 12.7515
12511.9 11.5679
12515.9 10.7888
12519.9 10.2353
12523.9 9.82324
12532.0 9.24716
12540.0 8.86190
12548.1 8.58390
12556.1 8.37199
12572.2 8.06510
12588.3 7.84739
12620.5 7.53727
12652.8 7.29129
12668.9 7.16729
12685.0 7.02583
12701.1 6.84046
12709.1 6.71311
12717.2 6.53984
12721.2 6.42428
12725.2 6.27820
12729.2 6.08451
12733.3 5.81427
12735.3 5.63250
12737.3 5.40534
12739.3 5.11215
12741.3 4.72187
12743.3 4.18627
12744.3 3.85218
12745.3 3.49188
12746.3 3.18943
12746.8 3.16531
12747.3 3.39401
12747.9 4.27002
12748.1 5.20949
12748.4 6.79842
12748.6 9.51316
12748.9 14.2480
12749.1 22.7021
12749.4 37.9046
12749.5 54.1008
12749.7 73.9604
12750.0 111.056
12750.2 114.674
12750.3 106.623
12750.7 79.9050
12750.9 62.5139
12751.2 50.1433
12751.4 41.4982
12751.7 35.3423
12752.2 27.4412
12752.6 22.8213
12753.1 19.7575
12753.6 17.6782
12754.6 14.9890
12755.6 13.3637
12756.6 12.2843
12757.6 11.5188
12758.6 10.9491
12760.6 10.1597
12762.5 9.63955
12764.5 9.27121
12766.5 8.99654
12770.5 8.61355
12774.4 8.35821
12778.4 8.17482
12782.3 8.03596
12790.3 7.83764
12798.2 7.70061
12814.0 7.51785
12829.9 7.39585
12845.7 7.30429
12877.4 7.16703
12940.7 6.96756
13004.1 6.79700
13067.5 6.61551
13099.2 6.50704
13130.8 6.37264
13162.5 6.18734
13178.4 6.05856
13194.2 5.88540
13202.1 5.77256
13210.0 5.63328
13218.0 5.45637
13225.9 5.22454
13229.8 5.08056
13233.8 4.91365
13237.8 4.72336
13241.7 4.52099
13245.7 4.36641
13247.7 4.37326
13249.6 4.54560
13251.6 5.12173
13253.6 6.76784
13254.6 8.53590
13255.6 11.6405
13256.6 17.2498
13257.6 27.4915
13258.8 50.1847
13260.0 73.5100
13261.2 70.1317
13262.5 52.6452
13263.6 39.6820
13264.7 31.2244
13265.8 25.6835
13266.9 21.9257
13269.2 17.3124
13271.4 14.7017
13273.7 13.0481
13275.9 11.9294
13280.4 10.5215
13284.9 9.67866
13289.4 9.12175
13293.9 8.72711
13298.4 8.43337
13307.3 8.02259
13316.3 7.74822
13325.3 7.54978
13334.3 7.39830
13352.2 7.17756
13370.2 7.01915
13406.1 6.79065
13442.0 6.61353
13477.9 6.45169
13495.8 6.36973
13513.8 6.28405
13531.7 6.19427
13540.7 6.15880
13545.2 6.18968
13547.4 6.37056
13548.0 6.53549
13548.5 6.91510
13549.1 8.08103
13549.4 9.75405
13549.5 11.3605
13549.7 14.0504
13549.8 18.9143
13550.0 22.0472
13550.2 18.9555
13550.3 14.0778
13550.6 10.1789
13550.8 8.40639
13551.3 7.08254
13551.8 6.62468
13552.3 6.41639
13553.3 6.23608
13554.3 6.15985
13558.3 6.05807
13566.3 5.98044
13582.3 5.84543
13598.3 5.68275
13614.3 5.46691
13622.3 5.32631
13630.3 5.15174
13638.3 4.92681
13646.3 4.62370
13650.3 4.42785
13654.3 4.19046
13658.3 3.89902
13662.3 3.54236
13666.3 3.12861
13668.3 2.93637
13670.3 2.83718
13672.3 3.05852
13673.3 3.48457
13674.3 4.38904
13675.3 6.26444
13675.8 7.87661
13676.3 10.2521
13676.8 13.8060
13677.3 19.2083
13677.8 27.5190
13678.3 39.9585
13679.1 75.6874
13680.0 112.407
13680.4 115.240
13680.9 106.587
13681.7 78.5625
13682.3 63.7141
13682.8 52.6522
13683.9 38.2133
13684.9 29.7623
13686.0 24.5417
13687.1 21.0274
13688.1 18.5772
13690.2 15.3875
13692.4 13.4420
13694.5 12.1450
13698.8 10.5405
13703.0 9.58812
13707.3 8.95977
13711.5 8.51342
13715.8 8.17963
13724.3 7.70806
13732.8 7.38786
13741.3 7.15632
13745.6 7.08525
13747.7 7.14578
13748.8 7.48693
13749.1 7.80725
13749.3 8.52273
13749.5 9.35636
13749.6 10.8771
13749.7 14.2679
13749.8 17.9341
13749.8 23.9692
13749.9 33.6446
13750.0 41.1055
13750.1 33.7625
13750.2 24.1101
13750.2 18.7703
13750.3 15.2392
13750.4 11.5068
13750.5 9.77650
13750.6 8.91771
13750.9 8.00186
13751.1 7.60897
13751.6 7.26351
13752.0 7.12048
13753.9 6.94191
13757.6 6.83529
13765.1 6.70510
13772.6 6.59658
13780.1 6.49866
13795.0 6.32179
13810.0 6.15832
13839.9 5.83503
13854.9 5.66133
13862.4 5.57167
13866.1 5.54017
13868.0 5.58151
13868.9 5.79647
13869.4 6.44384
13869.6 7.79417
13869.7 9.82811
13869.9 14.7857
13869.9 20.5776
13870.0 24.1873
13870.1 20.6315
13870.1 14.8527
13870.3 10.1509
13870.4 8.19163
13870.6 6.63333
13871.0 5.85602
13871.8 5.56221
13873.5 5.45015
13876.8 5.37634
13883.5 5.26642
13890.2 5.15323
13896.8 5.03024
13910.2 4.74270
13923.5 4.37403
13936.9 3.87609
13943.5 3.55722
13950.2 3.18440
13956.9 2.79032
13960.2 2.64002
13963.5 2.63087
13966.9 3.03934
13968.5 3.62634
13970.2 4.75650
13971.9 6.96163
13973.5 11.3824
13974.4 15.1826
13975.2 20.6992
13976.0 28.8577
13976.9 40.8728
13978.4 77.4194
13980.0 114.346
13980.8 116.954
13981.6 107.909
13983.1 79.2530
13984.4 60.2512
13985.7 47.2638
13987.0 38.4139
13988.2 32.2336
13990.8 24.4342
13993.3 19.9077
13995.9 16.9993
13998.4 15.0107
14003.5 12.4808
14008.6 10.9451
14013.7 9.91527
14023.8 8.59841
14034.0 7.76056
14044.2 7.14629
14064.5 6.19144
14084.9 5.29677
14095.0 4.79234
14105.2 4.20510
14115.4 3.50566
14120.5 3.12343
14125.5 2.77323
14130.6 2.63031
14133.2 2.80199
14135.7 3.37616
14138.3 4.82582
14139.5 6.18033
14140.8 8.27601
14142.1 11.5525
14143.3 16.7470
14144.6 25.0802
14145.9 38.4161
14147.9 75.1591
14150.0 114.502
14151.0 118.653
14152.1 110.796
14154.1 82.9439
14155.9 63.2967
14157.6 49.8437
14159.4 40.7044
14161.1 34.3337
14164.6 26.3178
14168.1 21.6288
14171.5 18.6107
14175.0 16.5247
14182.0 13.8436
14188.9 12.1913
14195.9 11.0598
14199.4 10.6155
14202.9 10.2353
14206.3 9.95601
14208.1 10.0502
14208.5 10.2495
14208.9 10.7794
14209.2 11.4222
14209.4 12.8144
14209.5 14.1806
14209.6 16.5631
14209.7 21.0745
14209.8 29.5183
14209.9 41.9379
14210.0 49.7023
14210.1 42.0498
14210.2 29.6484
14210.3 21.7606
14210.4 17.5769
14210.6 13.4721
14210.8 11.8012
14210.9 10.9746
14211.3 10.2126
14211.7 9.87992
14212.4 9.56802
14213.2 9.41028
14216.2 9.07510
14222.2 8.62073
14228.2 8.22397
14234.2 7.85238
14246.3 7.12630
14258.3 6.34602
14270.3 5.39894
14276.3 4.81548
14282.4 4.13436
14288.4 3.37355
14291.4 3.02130
14294.4 2.81146
14297.4 3.04932
14298.9 3.57541
14300.4 4.66951
14301.9 6.83306
14303.4 11.0080
14304.2 14.4094
14304.9 19.1833
14305.7 25.8839
14306.4 35.2182
14307.3 50.9169
14308.2 71.8207
14310.0 113.485
14310.9 119.501
14311.8 113.233
14313.6 86.9647
14315.3 66.3320
14316.9 52.3783
14318.5 43.0299
14320.2 36.5792
14323.5 28.5315
14326.7 23.8524
14330.0 20.8502
14333.3 18.7841
14334.9 17.9839
14336.6 17.3121
14338.2 16.8402
14339.0 17.0166
14339.2 17.3419
14339.4 18.1013
14339.7 20.5182
14339.8 23.5952
14339.9 30.5176
14339.9 39.7054
14340.0 45.0421
14340.1 39.7622
14340.1 30.5561
14340.2 25.6654
14340.3 22.3540
14340.4 19.1796
14340.7 17.1661
14341.0 16.4656
14341.2 16.1345
14342.3 15.5466
14344.5 14.9355
14346.7 14.4603
14348.9 14.0540
14353.3 13.3776
14357.6 12.8362
14366.3 12.0164
14375.1 11.4231
14392.5 10.6149
14410.0 10.0843
14427.5 9.70429
14444.9 9.41635
14453.7 9.29632
14462.4 9.18913
14471.1 9.09478
14475.5 9.06204
14477.7 9.08940
14478.8 9.25271
14479.3 9.78459
14479.6 11.0216
14479.7 13.1248
14479.8 15.4297
14479.9 18.8989
14479.9 24.8544
14480.0 28.9456
14480.1 24.9342
14480.1 18.9970
14480.2 15.1002
14480.3 12.7485
14480.5 10.7548
14480.8 9.65460
14481.4 9.19787
14482.6 9.03785
14485.1 8.97113
14490.1 8.91435
14500.1 8.82791
14520.0 8.68183
14539.9 8.56089
14549.8 8.51964
14554.8 8.55181
14556.1 8.60495
14557.3 8.75907
14557.9 8.96358
14558.5 9.48223
14558.9 10.0982
14559.2 11.4653
14559.3 12.9203
14559.5 15.4210
14559.6 20.9430
14559.7 26.0329
14559.8 33.2733
14559.9 47.8771
14560.0 58.3079
14560.1 48.0657
14560.2 33.5055
14560.3 24.7604
14560.4 19.3045
14560.6 14.1989
14560.8 11.8656
14561.0 10.7408
14561.4 9.66094
14561.8 9.19446
14562.6 8.80883
14563.3 8.65536
14566.4 8.48142
14572.7 8.40714
14585.1 8.33919
14610.0 8.23648
14634.9 8.14947
14647.4 8.11150
14653.6 8.09926
14656.7 8.11567
14658.2 8.20144
14659.0 8.47097
14659.4 9.09875
14659.6 10.0560
14659.8 12.7792
14660.0 17.5047
14660.2 12.7970
14660.4 9.93782
14660.6 9.00555
14661.1 8.42480
14661.9 8.17970
14663.6 8.09455
14667.1 8.06112
14673.9 8.03555
14687.6 7.99748
14715.0 7.93049
14742.5 7.87077
14756.2 7.84348
14763.0 7.83209
14766.4 7.83374
14768.2 7.86178
14769.0 7.96770
14769.4 8.27544
14769.7 8.90958
14769.8 9.86356
14769.9 12.2434
14770.0 16.7223
14770.1 12.2886
14770.2 9.90126
14770.4 8.93844
14770.6 8.29375
14771.0 7.97596
14771.9 7.86132
14773.6 7.82375
14777.0 7.80756
14783.9 7.79233
14797.6 7.76748
14825.0 7.72213
14852.4 7.68070
14866.1 7.66221
14873.0 7.65814
14876.4 7.67625
14878.1 7.75985
14879.0 8.04917
14879.4 8.85787
14879.6 10.4467
14879.8 12.6998
14879.9 17.5050
14879.9 23.7316
14880.0 27.4045
14880.1 23.8118
14880.1 17.5415
14880.2 13.1060
14880.3 10.9710
14880.5 9.14023
14880.9 8.18586
14881.6 7.80965
14883.1 7.68710
14886.1 7.64807
14892.0 7.63033
14903.9 7.61218
14927.6 7.58207
14975.0 7.52804
15022.4 7.47962
15046.1 7.45777
15058.0 7.45073
15063.9 7.46267
15066.9 7.52916
15068.3 7.77626
15068.7 8.00149
15069.1 8.54167
15069.3 9.16789
15069.5 10.3849
15069.6 13.6159
15069.7 17.0463
15069.8 23.9784
15069.9 33.5022
15070.0 40.6141
15070.1 33.6560
15070.2 24.0709
15070.3 18.3089
15070.3 15.0518
15070.5 11.4755
15070.8 9.11945
15071.1 8.34697
15071.3 8.00565
15072.5 7.60432
15074.9 7.48066
15079.5 7.44186
15088.9 7.42391
15107.6 7.40523
15145.0 7.37433
15182.4 7.34614
15201.1 7.33421
15210.5 7.33573
15215.2 7.36728
15217.5 7.50088
15218.1 7.63352
15218.7 7.97193
15219.0 8.38474
15219.3 9.33772
15219.4 10.4037
15219.5 12.3316
15219.7 17.0238
15219.8 21.3960
15219.8 28.6131
15219.9 42.2517
15220.0 50.2162
15220.1 42.4205
15220.2 28.8311
15220.3 20.8356
15220.3 15.8758
15220.5 11.4655
15220.7 9.72188
15220.9 8.91312
15221.2 8.15256
15221.6 7.83090
15222.3 7.56953
15223.0 7.46768
15225.8 7.35838
15231.4 7.32431
15242.6 7.30813
15265.1 7.29074
15310.1 7.26159
15400.0 7.20913
15489.9 7.16154
15534.9 7.13916
15557.4 7.12886
15568.6 7.12711
15574.2 7.14092
15577.0 7.20577
15578.4 7.44226
15579.1 8.17188
15579.5 9.92079
15579.7 12.9684
15579.8 16.4123
15579.8 21.9852
15579.9 31.5102
15580.0 37.0763
15580.1 31.6416
15580.2 22.1549
15580.3 16.0707
15580.4 12.5769
15580.6 9.74112
15580.8 8.59638
15580.9 8.08153
15581.7 7.41877
15583.3 7.20384
15586.4 7.13988
15592.6 7.11927
15605.1 7.10830
15630.0 7.09512
15655.0 7.08332
15667.4 7.07787
15673.6 7.07664
15676.8 7.08213
15678.3 7.10795
15679.1 7.19821
15679.5 7.45540
15679.7 7.97257
15679.8 8.73273
15679.9 10.4047
15680.0 13.7625
15680.1 10.4408
15680.3 8.23007
15680.4 7.59737
15680.8 7.26451
15681.4 7.13167
15682.6 7.08806
15685.1 7.07445
15690.1 7.06865
15700.1 7.06309
15720.1 7.05372
15760.1 7.03559
15840.1 6.99929
16000.0 6.91983
16000.0 9.65856
17000.0 9.58381
20000.0 9.39452
21000.0 9.34068
25000.0 9.15804
30000.0 8.98347
35000.0 8.84688
40000.0 8.73573
50000.0 8.56250
60000.0 8.43056
70000.0 8.32410
80000.0 8.23467
90000.0 8.15731
99999.9 8.08894
100000 8.08525
150000 7.99677
200000 7.88856
250000 7.75731
279430 7.67090
279431 7.67089
300000 7.60735
400000 7.19795
500000 6.91987
542904 6.76872
544899 6.76173
573096 6.66349
658011 6.37576
700000 6.23885
776733 5.99968
800000 5.93017
802379 5.92315
812538 5.89317
825159 5.85665
838615 5.81803
842776 5.80619
846877 5.79457
900000 5.64822
950000 5.51341
1.00000E+06 5.39391
1.05924E+06 5.25342
1.11847E+06 5.12777
1.11847E+06 5.12776
1.20473E+06 4.95704
1.20473E+06 4.95703
1.25000E+06 4.87457
1.28239E+06 4.81846
1.33929E+06 4.72557
1.34405E+06 4.71811
1.36936E+06 4.67922
1.36936E+06 4.67922
1.39285E+06 4.64429
1.44643E+06 4.56846
1.50000E+06 4.49829
1.56203E+06 4.42295
1.56203E+06 4.42295
1.60678E+06 4.37239
1.60678E+06 4.37239
1.67839E+06 4.29809
1.75000E+06 4.22958
1.80605E+06 4.18200
1.86211E+06 4.13695
1.91816E+06 4.09424
1.97421E+06 4.05369
2.00000E+06 4.03653
2.00995E+06 4.03006
2.04574E+06 4.00763
2.08153E+06 3.98585
2.11059E+06 3.96902
2.14896E+06 3.94774
2.19108E+06 3.92556
2.22054E+06 3.91075
2.24490E+06 3.90167
2.26926E+06 3.89274
2.29362E+06 3.88397
2.31797E+06 3.87536
2.34233E+06 3.86688
2.36669E+06 3.85856
2.39105E+06 3.85036
2.41541E+06 3.84231
2.43976E+06 3.83438
2.46412E+06 3.82658
2.48848E+06 3.81891
2.51284E+06 3.81136
2.53720E+06 3.80393
2.56155E+06 3.79661
2.58591E+06 3.78940
2.61027E+06 3.78231
2.63463E+06 3.77532
2.65899E+06 3.76844
2.68335E+06 3.76166
2.70770E+06 3.75498
2.73206E+06 3.74840
2.75642E+06 3.74191
2.78078E+06 3.73552
2.80514E+06 3.72922
2.82949E+06 3.72300
2.85385E+06 3.71688
2.87821E+06 3.71084
2.90257E+06 3.70488
2.92693E+06 3.69900
2.95128E+06 3.69321
2.97564E+06 3.68749
3.00000E+06 3.68186
3.05801E+06 3.68141
3.11603E+06 3.68101
3.17404E+06 3.68063
3.23205E+06 3.68029
3.29006E+06 3.67997
3.34808E+06 3.67968
3.40609E+06 3.67942
3.46410E+06 3.67919
3.53109E+06 3.67874
3.59808E+06 3.67833
3.66506E+06 3.67795
3.73205E+06 3.67760
3.79904E+06 3.67728
3.86603E+06 3.67699
3.93301E+06 3.67674
4.00000E+06 3.67651
4.11804E+06 3.69741
4.23607E+06 3.71828
4.35411E+06 3.73912
4.47214E+06 3.75992
4.60043E+06 3.78115
4.72871E+06 3.80233
4.86436E+06 3.82380
5.00000E+06 3.84522
5.13152E+06 3.88096
5.26303E+06 3.91646
5.44124E+06 3.96316
5.61945E+06 4.00944
5.80973E+06 4.05726
6.00000E+06 4.10464
6.01720E+06 4.10908
6.03440E+06 4.11353
6.05160E+06 4.11797
6.06880E+06 4.12240
6.08600E+06 4.12683
6.10320E+06 4.13125
6.12040E+06 4.13567
6.13760E+06 4.14008
6.15480E+06 4.14449
6.17199E+06 4.14889
6.18919E+06 4.15329
6.20639E+06 4.15768
6.22359E+06 4.16207
6.24079E+06 4.16645
6.25799E+06 4.17083
6.27519E+06 4.17520
6.29318E+06 4.17973
6.31117E+06 4.18425
6.32916E+06 4.18877
6.34714E+06 4.19328
6.36513E+06 4.19778
6.38312E+06 4.20228
6.40111E+06 4.20678
6.41910E+06 4.21127
6.43708E+06 4.21575
6.45507E+06 4.22023
6.47306E+06 4.22470
6.49105E+06 4.22917
6.50904E+06 4.23363
6.52702E+06 4.23809
6.54501E+06 4.24255
6.56300E+06 4.24699
6.59031E+06 4.25367
6.61763E+06 4.26033
6.64494E+06 4.26697
6.67225E+06 4.27361
6.69956E+06 4.28023
6.72688E+06 4.28685
6.75419E+06 4.29345
6.78150E+06 4.30004
6.80881E+06 4.30662
6.83613E+06 4.31318
6.86344E+06 4.31974
6.89075E+06 4.32628
6.91806E+06 4.33281
6.94538E+06 4.33934
6.97269E+06 4.34585
7.00000E+06 4.35235
7.06041E+06 4.36142
7.12083E+06 4.37045
7.18124E+06 4.37945
7.24166E+06 4.38842
7.30207E+06 4.39734
7.36248E+06 4.40624
7.42290E+06 4.41510
7.48331E+06 4.42392
7.54263E+06 4.43246
7.60194E+06 4.44096
7.65170E+06 4.44800
7.70146E+06 4.45502
7.75121E+06 4.46202
7.80097E+06 4.46899
7.85073E+06 4.47595
7.90049E+06 4.48288
7.95024E+06 4.48979
8.00000E+06 4.49669
8.06066E+06 4.49814
8.12132E+06 4.49959
8.18198E+06 4.50104
8.24264E+06 4.50249
8.30330E+06 4.50394
8.36396E+06 4.50539
8.42462E+06 4.50685
8.48528E+06 4.50830
8.54962E+06 4.50976
8.61396E+06 4.51121
8.67830E+06 4.51266
8.74264E+06 4.51412
8.80698E+06 4.51558
8.87132E+06 4.51704
8.93566E+06 4.51850
9.00000E+06 4.51996
9.01030E+06 4.51912
9.02060E+06 4.51829
9.03089E+06 4.51745
9.04119E+06 4.51662
9.09690E+06 4.51212
9.15260E+06 4.50765
9.20831E+06 4.50322
9.26401E+06 4.49882
9.31972E+06 4.49444
9.37542E+06 4.49010
9.43113E+06 4.48579
9.48683E+06 4.48150
9.51890E+06 4.47905
9.55098E+06 4.47660
9.58305E+06 4.47417
9.61512E+06 4.47174
9.64720E+06 4.46933
9.67927E+06 4.46692
9.71134E+06 4.46453
9.74342E+06 4.46214
9.77549E+06 4.45977
9.80756E+06 4.45741
9.83964E+06 4.45505
9.87171E+06 4.45271
9.90378E+06 4.45039
9.93585E+06 4.44808
9.96793E+06 4.44578
1.00000E+07 4.44351
1.00180E+07 4.44043
1.00360E+07 4.43736
1.00540E+07 4.43430
1.00720E+07 4.43126
1.00899E+07 4.42823
1.01079E+07 4.42522
1.01259E+07 4.42222
1.01439E+07 4.41923
1.01619E+07 4.41626
1.01799E+07 4.41330
1.01979E+07 4.41036
1.02159E+07 4.40743
1.02338E+07 4.40451
1.02518E+07 4.40161
1.02698E+07 4.39872
1.02878E+07 4.39585
1.03101E+07 4.39202
1.03323E+07 4.38822
1.03546E+07 4.38444
1.03768E+07 4.38069
1.03991E+07 4.37696
1.04213E+07 4.37326
1.04436E+07 4.36958
1.04659E+07 4.36592
1.04881E+07 4.36229
1.05104E+07 4.35868
1.05326E+07 4.35510
1.05549E+07 4.35154
1.05771E+07 4.34801
1.05994E+07 4.34450
1.06217E+07 4.34101
1.06439E+07 4.33755
1.06662E+07 4.33411
1.06884E+07 4.33070
1.07107E+07 4.32731
1.07329E+07 4.32395
1.07552E+07 4.32060
1.07774E+07 4.31729
1.07997E+07 4.31399
1.08220E+07 4.31072
1.08442E+07 4.30748
1.08665E+07 4.30426
1.08887E+07 4.30106
1.09110E+07 4.29788
1.09332E+07 4.29473
1.09555E+07 4.29161
1.09778E+07 4.28850
1.10000E+07 4.28542
1.10626E+07 4.27580
1.11252E+07 4.26651
1.11878E+07 4.25755
1.12504E+07 4.24891
1.13441E+07 4.23416
1.14378E+07 4.21997
1.15315E+07 4.20633
1.16252E+07 4.19323
1.17189E+07 4.18065
1.18126E+07 4.16859
1.19063E+07 4.15705
1.20000E+07 4.14601
1.21455E+07 4.12007
1.22911E+07 4.09543
1.24366E+07 4.07205
1.25821E+07 4.04990
1.27911E+07 4.01644
1.30000E+07 3.98491
1.32500E+07 3.94653
1.35000E+07 3.90983
1.37500E+07 3.87478
1.40000E+07 3.84135
1.41250E+07 3.82497
1.42500E+07 3.80904
1.43750E+07 3.79357
1.45000E+07 3.77855
1.47500E+07 3.74791
1.50000E+07 3.71887
1.51517E+07 3.70196
1.53034E+07 3.68565
1.53034E+07 3.68564
1.56517E+07 3.64790
1.60000E+07 3.61286
1.60233E+07 3.61004
1.60466E+07 3.60724
1.60699E+07 3.60445
1.60932E+07 3.60168
1.60933E+07 3.60168
1.61074E+07 3.59993
1.61215E+07 3.59818
1.61357E+07 3.59644
1.61499E+07 3.59470
1.61641E+07 3.59297
1.61782E+07 3.59124
1.61924E+07 3.58951
1.62066E+07 3.58779
1.62207E+07 3.58607
1.62349E+07 3.58436
1.62491E+07 3.58265
1.62632E+07 3.58094
1.62774E+07 3.57924
1.62916E+07 3.57754
1.63057E+07 3.57585
1.63199E+07 3.57416
1.63341E+07 3.57248
1.63482E+07 3.57080
1.63624E+07 3.56912
1.63766E+07 3.56745
1.63908E+07 3.56578
1.64049E+07 3.56411
1.64191E+07 3.56245
1.64333E+07 3.56080
1.64474E+07 3.55914
1.64616E+07 3.55749
1.64758E+07 3.55585
1.64899E+07 3.55421
1.65041E+07 3.55257
1.65183E+07 3.55094
1.65324E+07 3.54931
1.65466E+07 3.54769
1.65608E+07 3.54607
1.65749E+07 3.54445
1.65891E+07 3.54284
1.66033E+07 3.54123
1.66175E+07 3.53963
1.66316E+07 3.53803
1.66458E+07 3.53643
1.66600E+07 3.53484
1.66741E+07 3.53326
1.66883E+07 3.53167
1.67025E+07 3.53009
1.67166E+07 3.52852
1.67308E+07 3.52695
1.67450E+07 3.52538
1.67591E+07 3.52381
1.67733E+07 3.52226
1.67875E+07 3.52070
1.68016E+07 3.51915
1.68158E+07 3.51760
1.68300E+07 3.51606
1.68442E+07 3.51452
1.68583E+07 3.51298
1.68725E+07 3.51145
1.68867E+07 3.50993
1.69008E+07 3.50840
1.69150E+07 3.50688
1.69292E+07 3.50537
1.69433E+07 3.50386
1.69575E+07 3.50235
1.69717E+07 3.50085
1.69858E+07 3.49935
1.70000E+07 3.49786
1.70156E+07 3.49608
1.70313E+07 3.49431
1.70469E+07 3.49254
1.70625E+07 3.49078
1.70781E+07 3.48902
1.70938E+07 3.48726
1.71094E+07 3.48551
1.71250E+07 3.48376
1.71406E+07 3.48202
1.71563E+07 3.48028
1.71719E+07 3.47855
1.71875E+07 3.47682
1.72031E+07 3.47510
1.72188E+07 3.47338
1.72344E+07 3.47166
1.72500E+07 3.46995
1.72656E+07 3.46824
1.72813E+07 3.46654
1.72969E+07 3.46484
1.73125E+07 3.46314
1.73281E+07 3.46145
1.73438E+07 3.45977
1.73594E+07 3.45808
1.73750E+07 3.45641
1.73906E+07 3.45473
1.74063E+07 3.45306
1.74219E+07 3.45140
1.74375E+07 3.44974
1.74531E+07 3.44808
1.74688E+07 3.44643
1.74844E+07 3.44478
1.75000E+07 3.44314
1.75156E+07 3.44150
1.75313E+07 3.43986
1.75469E+07 3.43823
1.75625E+07 3.43660
1.75781E+07 3.43498
1.75938E+07 3.43336
1.76094E+07 3.43175
1.76250E+07 3.43014
1.76406E+07 3.42853
1.76563E+07 3.42693
1.76719E+07 3.42533
1.76875E+07 3.42374
1.77031E+07 3.42215
1.77188E+07 3.42057
1.77344E+07 3.41899
1.77500E+07 3.41741
1.77656E+07 3.41584
1.77813E+07 3.41428
1.77969E+07 3.41271
1.78125E+07 3.41115
1.78281E+07 3.40960
1.78438E+07 3.40805
1.78594E+07 3.40650
1.78750E+07 3.40496
1.78906E+07 3.40342
1.79063E+07 3.40189
1.79219E+07 3.40036
1.79375E+07 3.39884
1.79531E+07 3.39732
1.79688E+07 3.39580
1.79844E+07 3.39429
1.80000E+07 3.39278
1.80354E+07 3.38774
1.80708E+07 3.38274
1.81062E+07 3.37776
1.81417E+07 3.37281
1.81771E+07 3.36788
1.82125E+07 3.36298
1.82479E+07 3.35811
1.82833E+07 3.35326
1.82833E+07 3.35326
1.83729E+07 3.34089
1.84625E+07 3.32865
1.85521E+07 3.31654
1.86417E+07 3.30455
1.87313E+07 3.29270
1.88208E+07 3.28097
1.89104E+07 3.26937
1.90000E+07 3.25791
1.91250E+07 3.24176
1.92500E+07 3.22583
1.93750E+07 3.21011
1.95000E+07 3.19462
1.96250E+07 3.17935
1.97500E+07 3.16430
1.98750E+07 3.14949
2.00000E+07 3.13491