Br-79(n,tot) ENDF/B-VII.1
Energy(eV) XS(b)
1.00000E-05 556.642
1.25000E-05 498.221
1.50000E-05 455.096
2.00000E-05 394.563
2.75000E-05 336.966
3.50000E-05 299.060
4.25000E-05 271.695
5.00000E-05 250.745
6.25000E-05 224.618
7.50000E-05 205.333
0.000100000 178.261
0.000125000 159.787
0.000150000 146.150
0.000200000 127.007
0.000275000 108.793
0.000350000 96.8063
0.000425000 88.1527
0.000500000 81.5279
0.000625000 73.2659
0.000750000 67.1671
0.00100000 58.6063
0.00125000 52.7642
0.00150000 48.4517
0.00200000 42.3982
0.00275000 36.6384
0.00350000 32.8477
0.00425000 30.1111
0.00500000 28.0161
0.00625000 25.4033
0.00750000 23.4746
0.0100000 20.7672
0.0125000 18.9196
0.0150000 17.5557
0.0200000 15.6411
0.0253000 14.2686
0.0314750 13.1302
0.0376500 12.2847
0.0500000 11.0914
0.0625000 10.2646
0.0750000 9.65414
0.100000 8.79696
0.125000 8.21170
0.150000 7.77946
0.200000 7.17223
0.275000 6.59361
0.350000 6.21205
0.500000 5.72423
0.750000 5.26293
1.00000 4.98558
1.50000 4.65231
2.00000 4.44983
2.75000 4.25262
3.50000 4.11913
5.00000 3.94252
7.50000 3.76723
10.0000 3.65876
15.0000 3.54339
20.0000 3.55588
23.9100 3.76534
25.8650 4.04947
27.8200 4.64492
28.7975 5.18688
29.7750 6.05395
30.7525 7.53493
31.7300 10.3148
32.2188 12.6922
32.7075 16.3455
33.1963 22.3387
33.6850 33.1047
33.9294 41.9884
34.1738 55.2291
34.4181 76.1484
34.6625 111.896
34.7847 140.037
34.9069 180.186
35.0291 240.089
35.1513 334.707
35.2734 495.734
35.3956 798.163
35.4567 1055.43
35.5178 1443.10
35.5789 2045.40
35.6400 2985.49
35.7200 4798.67
35.8000 6026.32
35.8800 4844.77
35.9600 3044.17
36.0149 2180.34
36.0697 1597.49
36.1245 1204.71
36.1794 934.305
36.2891 603.414
36.3988 419.791
36.5084 308.609
36.6181 236.585
36.8375 152.360
37.0569 106.963
37.2763 79.7522
37.4956 62.1570
37.7150 50.1191
38.1538 35.1449
38.5925 26.5131
39.0313 21.0722
39.4700 17.4137
40.3475 12.9360
41.2250 10.3933
42.1025 8.80964
42.9800 7.76139
44.7350 6.54296
46.4900 6.01476
48.2450 6.10133
49.1225 6.53074
50.0000 7.53116
50.8775 9.90480
51.3163 12.3248
51.7550 16.6869
52.1938 25.5683
52.4131 33.8277
52.6325 47.6415
52.8519 73.1142
52.9616 94.6178
53.0713 127.245
53.1809 179.673
53.2906 270.030
53.3455 340.541
53.4003 438.532
53.4552 576.406
53.5100 769.187
53.6050 1238.70
53.7000 1560.43
53.7950 1259.73
53.8900 795.599
53.9801 507.118
54.0701 339.662
54.1602 240.333
54.2502 178.294
54.4304 109.419
54.6105 74.5457
54.7906 54.6102
54.9707 42.1781
55.3309 28.1237
55.6912 20.7594
56.0514 16.4072
56.4117 13.6106
56.7719 11.6995
57.4924 9.31202
58.2128 7.91764
58.9333 7.02185
59.6538 6.40541
61.0947 5.62121
62.5356 5.14724
65.4175 4.60295
68.2994 4.29547
71.1813 4.09372
76.9450 3.83615
82.7088 3.67009
88.4725 3.54762
100.000 3.36484
114.437 3.18518
128.873 3.02004
143.310 2.84619
150.528 2.75126
154.137 2.71245
155.039 2.71459
155.942 2.74621
156.393 2.80054
156.618 2.85553
156.844 2.95245
157.069 3.14145
157.182 3.30860
157.295 3.57292
157.408 4.02232
157.521 4.86052
157.577 5.56681
157.633 6.62035
157.690 8.23475
157.746 10.7088
157.823 15.6684
157.900 19.0802
157.977 15.9322
158.054 11.0369
158.115 8.37689
158.176 6.68539
158.237 5.60362
158.298 4.88855
158.421 4.04883
158.543 3.60035
158.665 3.33437
158.787 3.16419
159.031 2.96602
159.276 2.85836
159.520 2.79242
160.009 2.71680
160.986 2.64591
161.963 2.60751
165.872 2.51109
169.781 2.42504
173.690 2.33414
177.598 2.24363
179.553 2.21078
181.507 2.21418
183.462 2.33992
184.439 2.53714
185.416 2.98029
185.905 3.39830
186.393 4.07923
186.882 5.25494
187.371 7.46358
187.615 9.33745
187.859 12.1793
188.104 16.7376
188.226 20.1043
188.348 24.6233
188.470 30.8729
188.592 39.8028
188.714 53.1388
188.836 74.1174
188.959 109.535
189.020 136.865
189.081 174.807
189.142 229.206
189.203 309.423
189.264 430.571
189.325 613.294
189.413 996.977
189.500 1267.06
189.588 1031.38
189.675 656.397
189.759 420.044
189.842 282.653
189.925 200.943
190.009 149.770
190.176 92.7310
190.342 63.6941
190.509 47.0241
190.676 36.6065
191.010 24.9013
191.343 19.1017
191.677 16.6621
191.844 16.8463
192.010 18.9368
192.094 21.4852
192.177 26.1405
192.261 34.9115
192.344 51.7276
192.422 77.2537
192.500 94.7217
192.578 77.8357
192.656 52.0158
192.713 38.8363
192.771 30.1450
192.886 20.4609
193.000 15.6420
193.115 12.9133
193.345 10.0223
193.574 8.52131
194.033 6.93477
194.492 6.05901
195.410 5.05618
196.328 4.47168
198.164 3.79942
200.000 3.41767
202.862 3.06380
205.723 2.85166
208.585 2.74598
209.300 2.75968
210.015 2.84782
210.373 2.98143
210.731 3.32699
210.910 3.73045
211.088 4.58974
211.178 5.42224
211.267 6.85658
211.357 9.53000
211.446 14.7700
211.523 22.1280
211.600 27.0946
211.677 22.3093
211.754 14.9942
211.806 11.5076
211.858 9.14034
211.963 6.42865
212.067 5.06615
212.172 4.30621
212.380 3.54376
212.589 3.19034
213.007 2.88146
213.424 2.75213
215.095 2.60397
218.436 2.61835
221.776 2.84976
225.117 3.50651
226.787 4.17675
228.458 5.31287
230.128 7.34289
231.799 11.2846
232.634 14.7138
233.469 20.0222
234.304 28.7496
235.139 44.3402
235.557 57.0648
235.975 75.7688
236.392 104.687
236.810 152.458
237.227 238.787
237.436 310.091
237.645 415.881
237.854 580.594
238.063 851.915
238.271 1325.74
238.480 2177.36
238.690 3531.38
238.900 4473.67
239.110 3627.61
239.320 2299.15
239.527 1443.74
239.734 956.330
239.942 671.104
240.149 494.734
240.356 379.407
240.563 300.417
240.977 202.599
241.391 146.767
241.806 111.950
242.634 72.5027
243.463 51.7425
244.291 39.4156
245.120 31.4567
245.948 25.9936
247.605 19.1312
249.262 15.0990
250.919 12.4977
252.576 10.7027
255.890 8.41433
259.204 7.02810
262.519 6.09679
265.833 5.42078
272.461 4.47312
279.089 3.78734
282.403 3.49284
285.717 3.23544
287.374 3.14868
289.031 3.16811
289.860 3.29289
290.688 3.63597
291.102 3.99729
291.517 4.66493
291.724 5.25020
291.931 6.24041
292.138 8.36997
292.242 10.7068
292.345 15.3714
292.500 25.2199
292.655 17.4013
292.746 14.3618
292.837 13.3953
293.019 14.4394
293.201 18.0269
293.383 24.7373
293.474 29.9915
293.564 37.2894
293.655 47.7444
293.746 63.2473
293.837 87.3452
293.928 126.734
294.019 194.724
294.110 315.104
294.205 513.702
294.300 655.629
294.395 536.562
294.490 343.674
294.583 219.588
294.675 147.923
294.768 105.566
294.860 79.1387
294.953 61.7440
295.045 49.7505
295.230 34.7847
295.415 26.1615
295.600 20.7351
295.970 14.5162
296.340 11.1916
296.710 9.18710
297.450 6.95863
298.190 5.78609
298.930 5.07893
300.410 4.28886
303.370 3.68504
306.330 3.76648
307.810 4.13690
309.290 4.92026
310.770 6.49251
311.510 7.81951
312.250 9.76866
312.990 12.7181
313.730 17.3668
314.470 25.1137
315.210 39.0692
315.580 50.4838
315.950 67.2375
316.320 93.0140
316.690 135.168
317.060 209.948
317.245 270.429
317.430 358.227
317.615 490.874
317.800 700.373
317.985 1045.53
318.170 1622.71
318.385 2654.56
318.600 3392.29
318.815 2774.80
319.030 1773.88
319.177 1285.87
319.325 953.535
319.472 727.722
319.619 571.037
319.913 377.417
320.208 268.556
320.502 201.823
320.797 158.105
321.385 106.163
321.974 77.5546
322.563 60.0517
323.152 48.5071
323.741 40.4546
324.918 30.1681
326.096 24.0221
327.274 20.0123
328.451 17.2254
330.807 13.6551
333.162 11.4958
335.517 10.0626
337.873 9.04612
342.583 7.70153
347.294 6.84764
352.004 6.24952
356.715 5.79874
366.136 5.13257
370.847 4.85928
375.558 4.59876
380.268 4.33265
382.624 4.19343
384.979 4.05530
386.157 3.99464
387.334 3.95345
388.512 3.96172
389.689 4.10095
390.278 4.28522
390.867 4.63255
391.456 5.30067
392.045 6.66634
392.339 7.88503
392.634 9.79266
392.928 12.9459
393.222 18.5623
393.370 23.1046
393.517 29.6993
393.664 39.6989
393.811 55.7243
393.958 83.3233
394.032 104.995
394.106 135.581
394.179 180.138
394.253 247.225
394.326 351.120
394.400 512.674
394.500 840.421
394.600 1077.99
394.700 886.365
394.800 570.152
394.868 416.777
394.935 311.655
395.003 239.762
395.071 189.608
395.206 127.217
395.341 91.9361
395.476 70.1879
395.612 55.8859
395.882 38.8026
396.153 29.3391
396.423 23.5189
396.694 19.6626
396.964 16.9616
397.505 13.4927
398.046 11.4051
398.587 10.0342
399.128 9.07557
400.210 7.83666
401.292 7.07863
402.374 6.56952
403.456 6.20422
405.620 5.71269
407.784 5.39316
412.111 4.98978
416.439 4.73161
420.767 4.54100
429.423 4.25390
438.078 4.02034
446.734 3.79818
451.062 3.68205
455.389 3.56034
457.553 3.50160
459.717 3.45882
460.799 3.45826
461.881 3.50283
462.422 3.57192
462.963 3.74234
463.234 3.93924
463.504 4.37970
463.639 4.84643
463.775 5.75534
463.842 6.56326
463.910 7.83846
463.977 9.94520
464.045 13.4899
464.123 19.7745
464.200 24.3250
464.278 20.6637
464.355 14.6431
464.412 11.5509
464.468 9.50564
464.581 7.24939
464.694 6.17477
464.808 5.61700
465.034 5.15853
465.260 5.08633
465.713 5.50110
466.165 6.64021
466.618 9.18246
466.844 11.6054
467.070 15.6790
467.296 23.1626
467.409 29.4091
467.523 38.7498
467.636 53.4326
467.749 77.8335
467.862 120.933
467.975 199.530
468.088 324.783
468.200 414.579
468.313 339.660
468.425 218.115
468.535 139.653
468.645 94.5043
468.755 67.8658
468.865 51.2648
468.975 40.3374
469.085 32.8143
469.305 23.4291
469.525 18.0196
469.745 14.6164
470.185 10.7131
470.625 8.62236
471.065 7.35892
471.946 5.94658
472.826 5.19446
473.706 4.73260
475.466 4.19914
477.226 3.93573
478.106 3.90498
478.987 4.01193
479.867 4.47179
480.307 5.04020
480.747 6.17046
481.187 8.66500
481.407 11.0996
481.627 15.3011
481.847 23.2814
481.957 30.1455
482.067 40.6936
482.177 57.8434
482.287 87.7221
482.342 111.202
482.397 143.990
482.452 190.344
482.507 255.530
482.604 419.188
482.700 538.794
482.797 444.144
482.893 286.716
482.954 214.905
483.014 164.174
483.135 103.223
483.257 70.9129
483.378 52.2062
483.499 40.4862
483.620 32.6899
483.862 23.2719
484.104 17.9924
484.347 14.7209
484.831 11.0043
485.316 9.02041
485.800 7.81820
486.285 7.02374
486.769 6.46517
487.738 5.74170
488.707 5.31564
489.192 5.19003
489.676 5.16778
489.919 5.25741
490.161 5.55909
490.282 5.91888
490.403 6.63830
490.464 7.27388
490.524 8.25393
490.585 9.81775
490.645 12.3193
490.723 17.1557
490.800 20.6255
490.877 17.7348
490.955 13.0290
491.025 10.1303
491.096 8.39138
491.167 7.32955
491.237 6.64979
491.379 5.86754
491.520 5.45137
491.662 5.19974
491.803 5.03282
492.085 4.82383
492.651 4.60347
493.216 4.47518
494.347 4.30767
495.477 4.18859
497.739 4.01258
500.000 3.87927
505.023 3.65544
507.534 3.56909
508.162 3.55513
508.790 3.55718
509.104 3.57823
509.418 3.64726
509.575 3.73352
509.732 3.91926
509.810 4.09705
509.889 4.39560
509.967 4.92781
510.046 5.90541
510.123 7.45018
510.200 8.55623
510.277 7.63070
510.354 6.12731
510.428 5.17160
510.502 4.61330
510.575 4.27936
510.649 4.06877
510.796 3.83092
510.943 3.70691
511.238 3.58501
511.532 3.52572
512.121 3.46427
512.710 3.42793
515.066 3.33384
519.777 3.18261
529.199 2.88095
533.911 2.71561
538.622 2.53540
543.333 2.34510
545.689 2.27770
546.278 2.29071
546.866 2.37445
547.161 2.50523
547.455 2.84657
547.603 3.24084
547.750 4.05416
547.823 4.80842
547.897 6.04114
547.971 8.16401
548.044 11.9099
548.122 18.1801
548.200 22.7231
548.278 19.0454
548.356 12.9881
548.419 9.59269
548.482 7.43477
548.545 6.05516
548.608 5.14350
548.734 4.06732
548.860 3.48852
549.113 2.91892
549.365 2.65565
549.869 2.42119
550.374 2.32005
552.392 2.22889
554.410 2.36337
556.428 2.86027
557.437 3.40112
558.446 4.34302
559.455 6.05424
559.960 7.43091
560.464 9.39730
560.969 12.2959
561.473 16.7454
561.978 23.9478
562.482 36.4739
562.734 46.4054
562.987 60.5739
563.239 81.6225
563.491 114.454
563.743 169.019
563.996 267.081
564.122 346.615
564.248 460.744
564.374 627.513
564.500 870.523
564.700 1429.32
564.900 1833.59
565.100 1505.66
565.300 966.178
565.450 682.530
565.599 495.884
565.749 372.868
565.898 289.546
566.197 189.091
566.496 133.906
566.795 100.555
567.094 78.9010
567.692 53.3605
568.290 39.3613
568.888 30.8061
569.486 25.1574
570.084 21.2099
571.281 16.1450
572.477 13.0950
573.673 11.0870
574.869 9.67676
577.261 7.83864
579.653 6.69443
582.045 5.90820
584.438 5.32884
589.222 4.53417
591.614 4.28501
594.006 4.19128
596.399 4.48143
597.595 5.00414
598.791 6.17681
599.987 8.98817
600.585 11.8738
601.183 17.0458
601.482 21.2389
601.781 27.3241
602.080 36.5362
602.379 51.2458
602.678 76.4114
602.977 123.518
603.127 163.186
603.276 222.183
603.426 312.129
603.575 449.523
603.788 739.507
604.000 951.732
604.213 784.946
604.425 506.418
604.555 382.014
604.685 293.198
604.945 185.034
605.204 126.984
605.464 93.0586
605.724 71.6836
605.984 57.3904
606.503 40.0533
607.023 30.2938
607.542 24.2250
608.581 17.3059
609.620 13.5937
610.659 11.3307
611.699 9.82393
612.738 8.75408
614.816 7.33542
616.894 6.42729
621.050 5.28165
625.206 4.50859
627.284 4.17763
629.363 3.86452
631.441 3.57745
632.480 3.46621
633.519 3.42645
634.558 3.60416
635.077 3.91744
635.597 4.61920
636.117 6.29184
636.376 7.99116
636.636 10.9943
636.766 13.3931
636.896 16.8246
637.026 21.9174
637.156 29.8212
637.285 42.8267
637.350 52.5887
637.415 65.7712
637.480 84.0000
637.545 109.619
637.610 146.149
637.675 198.000
637.788 328.077
637.900 426.051
638.013 354.950
638.125 231.597
638.246 144.405
638.368 96.3075
638.489 68.8121
638.610 52.0500
638.731 41.1622
638.853 33.7279
639.095 24.5162
639.337 19.2372
639.580 15.9342
640.065 12.2147
640.550 10.3561
641.035 9.43501
642.005 9.34208
642.974 11.8520
643.459 15.0029
643.944 20.9847
644.187 25.9681
644.429 33.3207
644.672 44.6313
644.914 63.0041
645.157 95.1395
645.278 120.677
645.399 157.093
645.520 210.849
645.642 292.954
645.763 422.452
645.884 628.036
646.042 1032.68
646.200 1328.88
646.359 1095.95
646.517 706.757
646.618 527.639
646.718 401.490
646.919 250.455
647.120 170.710
647.321 124.614
647.522 95.7718
647.723 76.5853
648.125 53.3999
648.527 40.3955
648.928 32.3212
649.732 23.1265
650.536 18.1972
651.340 15.1961
652.144 13.2038
652.947 11.7961
654.555 9.95153
656.162 8.80251
657.770 8.01844
659.377 7.44790
662.593 6.66743
665.808 6.15109
672.238 5.48939
678.668 5.06154
685.098 4.74382
697.959 4.25636
710.819 3.83165
717.249 3.60990
723.679 3.36355
730.110 3.07555
733.325 2.91318
736.540 2.74935
738.147 2.68030
739.755 2.64214
741.362 2.68195
742.970 2.92589
743.774 3.22466
744.578 3.77281
745.381 4.80758
746.185 6.89051
746.587 8.72998
746.989 11.5882
747.391 16.2716
747.793 24.5209
747.994 31.1311
748.194 40.6397
748.395 54.9066
748.596 77.4283
748.797 115.456
748.998 185.296
749.099 243.112
749.199 327.631
749.300 454.104
749.400 642.894
749.550 1056.97
749.700 1358.27
749.850 1117.63
750.000 718.807
750.148 458.136
750.296 307.985
750.444 219.409
750.592 164.221
750.739 127.864
750.887 102.796
751.183 71.4539
751.479 53.3459
751.774 41.9168
752.366 28.7623
752.957 21.6894
753.549 17.4024
754.140 14.5800
754.731 12.6057
755.914 10.0598
757.097 8.50852
759.463 6.72814
761.828 5.72724
764.194 5.06785
768.925 4.19511
771.291 3.86929
773.656 3.59248
776.022 3.37994
778.388 3.31057
779.570 3.40243
780.753 3.68060
781.936 4.33613
783.119 5.83354
783.710 7.23866
784.302 9.49652
784.893 13.3017
785.484 20.1664
785.780 25.7443
786.076 33.8436
786.372 46.0851
786.667 65.5478
786.963 98.5612
787.259 159.403
787.407 209.785
787.554 283.395
787.702 393.305
787.850 557.093
788.075 925.501
788.300 1201.80
788.525 999.231
788.750 649.362
788.934 449.033
789.119 321.460
789.303 239.787
789.487 185.662
789.856 121.725
790.224 87.1927
790.593 66.4838
790.962 53.0713
791.699 37.2394
792.436 28.5113
793.173 23.1318
793.910 19.5457
794.647 17.0143
796.122 13.7199
797.596 11.7009
799.070 10.3889
799.439 10.1698
799.807 10.0629
799.992 10.1213
800.176 10.4013
800.268 10.7416
800.360 11.3882
800.452 12.6864
800.544 15.3966
800.622 19.3283
800.700 22.2466
800.778 19.9904
800.856 16.1606
800.907 14.3230
800.958 13.0364
801.060 11.4923
801.163 10.6636
801.265 10.1672
801.469 9.60656
801.674 9.28913
802.083 8.90680
802.492 8.65051
804.128 7.96831
807.400 7.10223
810.673 6.51651
811.491 6.40128
812.309 6.31439
812.718 6.30515
813.127 6.38589
813.331 6.53380
813.434 6.67796
813.536 6.91615
813.638 7.33234
813.740 8.11482
813.843 9.73671
813.894 11.1862
813.945 13.3610
814.022 18.2806
814.100 22.0447
814.178 19.4327
814.255 14.7879
814.318 12.1454
814.380 10.4408
814.442 9.33320
814.505 8.59171
814.629 7.70115
814.754 7.20942
814.879 6.90691
815.003 6.70534
815.253 6.45572
815.751 6.20550
816.250 6.07444
816.749 5.99697
817.247 5.97905
817.497 6.02444
817.746 6.18705
817.871 6.38649
817.996 6.79440
818.058 7.16117
818.120 7.73525
818.183 8.66558
818.245 10.1861
818.322 13.0986
818.400 15.2661
818.478 13.6304
818.555 10.8379
818.606 9.51197
818.656 8.58298
818.758 7.47602
818.859 6.89203
818.960 6.55183
819.162 6.18833
819.365 6.00277
819.769 5.81264
820.174 5.70833
820.983 5.57715
821.793 5.48125
823.411 5.32228
825.030 5.18070
826.649 5.05706
827.458 5.01563
828.267 5.01848
829.077 5.15514
829.481 5.36081
829.886 5.80216
830.291 6.82557
830.493 7.84692
830.695 9.62572
830.898 13.0112
830.999 15.9115
831.100 20.3272
831.201 27.4111
831.302 39.4535
831.353 48.6991
831.403 61.3293
831.454 78.7285
831.505 102.484
831.553 132.602
831.602 168.042
831.700 217.655
831.749 209.374
831.798 182.323
831.896 120.367
831.970 86.7420
832.045 64.6165
832.119 50.0280
832.194 40.1356
832.343 28.1726
832.492 21.5609
832.641 17.5369
832.790 14.9025
833.088 11.7584
833.386 10.0050
833.684 8.91496
834.280 7.66187
834.876 6.97651
835.472 6.54885
836.664 6.04423
837.856 5.75213
839.048 5.55684
841.432 5.30073
843.816 5.12902
846.201 4.99780
850.969 4.79502
855.737 4.63085
860.505 4.48205
862.890 4.40848
865.274 4.33486
866.466 4.30307
867.062 4.29400
867.658 4.29917
868.254 4.34507
868.552 4.40819
868.850 4.53815
869.148 4.82849
869.297 5.11079
869.446 5.59204
869.595 6.48389
869.744 8.34504
869.819 10.0855
869.893 12.9477
869.968 17.9091
870.042 26.7286
870.121 41.6907
870.200 52.9132
870.279 44.6860
870.358 30.4700
870.445 20.2858
870.532 14.7319
870.618 11.5846
870.705 9.67394
870.792 8.43651
870.878 7.59321
871.052 6.54789
871.225 5.94579
871.399 5.56500
871.746 5.12200
872.092 4.87809
872.439 4.72564
873.133 4.54530
873.827 4.43987
874.520 4.36791
875.908 4.26878
878.683 4.13352
881.457 4.01834
884.232 3.89761
885.620 3.83044
887.007 3.75789
888.394 3.68766
889.088 3.66606
889.782 3.68118
890.129 3.72305
890.475 3.81540
890.822 4.00896
891.169 4.42475
891.516 5.40238
891.689 6.39455
891.863 8.15429
892.036 11.5942
892.123 14.6188
892.210 19.3512
892.296 27.2114
892.340 33.1699
892.383 41.2780
892.427 52.6142
892.470 68.7331
892.513 92.1167
892.557 125.763
892.592 163.109
892.628 206.936
892.700 267.658
892.736 256.890
892.772 222.971
892.844 145.865
892.929 87.5384
893.014 57.1854
893.099 40.5860
893.184 30.7588
893.270 24.4972
893.355 20.2803
893.525 15.1133
893.695 12.1741
893.866 10.3329
894.206 8.21595
894.547 7.07045
894.888 6.36889
895.228 5.90083
895.569 5.56887
896.250 5.13151
896.931 4.85664
898.294 4.52678
899.657 4.32941
901.019 4.19167
903.744 3.99626
906.470 3.84642
909.195 3.71307
911.920 3.59019
912.601 3.56902
913.283 3.57507
913.623 3.61550
913.794 3.66309
913.964 3.75164
914.134 3.92779
914.304 4.32223
914.390 4.71369
914.475 5.39356
914.560 6.66430
914.645 9.14162
914.723 12.9076
914.800 15.7290
914.878 13.6510
914.955 10.0658
915.014 8.12388
915.073 6.84887
915.133 6.00793
915.192 5.43908
915.310 4.75033
915.428 4.36870
915.665 3.98098
915.901 3.79370
916.374 3.61474
916.848 3.52601
918.740 3.36988
920.633 3.30976
922.525 3.36088
923.471 3.47931
924.418 3.73154
925.364 4.24989
926.310 5.34991
927.256 7.91251
927.729 10.4986
928.203 15.0641
928.676 23.9303
928.912 31.6852
929.149 43.7458
929.385 63.6339
929.622 98.8261
929.859 166.453
929.977 223.118
930.095 303.794
930.298 503.979
930.500 654.397
930.703 544.720
930.905 354.768
931.040 262.727
931.175 198.790
931.445 123.557
931.715 84.5165
931.985 62.1500
932.255 48.2324
932.525 38.9917
933.064 27.8371
933.604 21.5728
934.144 17.6733
935.224 13.2134
936.303 10.8091
937.383 9.33817
938.462 8.35813
939.542 7.66368
941.701 6.75148
943.860 6.18210
946.020 5.79323
948.179 5.51011
952.497 5.12243
956.816 4.86526
965.453 4.53298
974.089 4.31419
982.726 4.14778
991.363 4.00785
1000.00 3.87937
1005.92 3.79063
1007.40 3.76838
1008.88 3.74997
1009.63 3.74840
1010.00 3.75439
1010.37 3.77207
1010.74 3.81882
1010.92 3.86797
1011.11 3.95606
1011.29 4.12858
1011.38 4.28106
1011.48 4.51631
1011.57 4.90961
1011.66 5.60114
1011.75 6.95369
1011.85 9.69631
1011.92 13.6487
1012.00 16.5214
1012.08 14.2848
1012.16 10.5563
1012.21 8.79343
1012.26 7.55610
1012.35 6.09133
1012.45 5.31737
1012.55 4.86879
1012.65 4.58743
1012.75 4.39948
1012.95 4.17094
1013.15 4.04069
1013.35 3.95904
1013.74 3.86321
1014.14 3.80872
1014.53 3.77307
1015.33 3.72685
1016.91 3.67002
1018.50 3.62688
1020.08 3.58751
1020.88 3.56984
1021.67 3.55740
1022.46 3.56308
1022.86 3.58602
1023.25 3.64529
1023.65 3.79874
1023.85 3.96058
1024.05 4.25372
1024.24 4.83629
1024.34 5.35433
1024.44 6.17097
1024.54 7.53797
1024.64 10.0057
1024.74 14.8735
1024.79 19.1022
1024.84 25.1218
1024.92 39.6841
1025.00 50.7558
1025.08 42.9315
1025.16 29.1768
1025.25 19.2849
1025.34 13.8715
1025.43 10.7987
1025.52 8.93022
1025.61 7.71939
1025.70 6.89186
1025.87 5.86851
1026.05 5.27396
1026.23 4.89900
1026.58 4.46070
1026.94 4.21922
1027.29 4.06963
1028.00 3.89654
1028.72 3.80452
1029.43 3.76856
1029.78 3.78773
1029.96 3.82051
1030.14 3.88634
1030.31 4.02337
1030.49 4.33527
1030.58 4.65044
1030.67 5.20609
1030.76 6.26340
1030.85 8.34578
1030.92 11.4407
1031.00 13.6807
1031.08 11.9041
1031.16 8.97117
1031.25 6.76846
1031.34 5.61849
1031.43 4.98743
1031.52 4.61212
1031.61 4.37226
1031.70 4.20964
1031.88 4.00834
1032.07 3.89141
1032.25 3.81594
1032.61 3.72428
1033.34 3.63176
1034.07 3.57987
1035.52 3.51332
1036.98 3.47077
1037.71 3.46028
1038.43 3.46416
1039.16 3.49755
1039.89 3.59902
1040.25 3.70491
1040.62 3.88482
1040.98 4.20346
1041.34 4.80783
1041.71 6.08511
1041.89 7.29048
1042.07 9.30696
1042.25 12.9744
1042.44 20.4679
1042.53 27.3498
1042.62 38.4813
1042.71 57.3718
1042.75 71.3608
1042.80 89.6224
1042.85 116.137
1042.90 146.539
1043.00 188.097
1043.05 179.849
1043.10 155.780
1043.20 101.902
1043.29 68.0057
1043.39 47.9141
1043.48 35.5417
1043.57 27.7312
1043.76 18.7816
1043.94 14.1138
1044.13 11.3775
1044.31 9.63220
1044.68 7.60542
1045.05 6.49929
1045.42 5.82315
1045.79 5.37485
1046.16 5.06008
1046.90 4.64989
1047.64 4.39804
1048.38 4.22816
1049.12 4.10612
1050.60 3.94114
1052.08 3.83314
1055.03 3.69491
1057.99 3.60415
1060.95 3.53529
1066.86 3.42790
1078.69 3.25768
1090.52 3.10203
1114.18 2.77009
1126.01 2.57467
1131.93 2.46675
1133.41 2.44219
1134.89 2.43037
1135.63 2.44476
1136.00 2.46851
1136.37 2.51935
1136.74 2.63592
1136.92 2.75112
1137.10 2.94948
1137.29 3.32880
1137.38 3.65825
1137.47 4.16059
1137.57 4.99061
1137.66 6.43222
1137.75 9.17152
1137.84 14.6734
1137.92 22.5938
1138.00 28.1784
1138.08 23.4157
1138.16 15.8292
1138.21 12.1535
1138.26 9.67499
1138.37 6.75818
1138.47 5.26508
1138.58 4.42528
1138.68 3.90151
1138.79 3.55937
1138.99 3.14720
1139.20 2.91666
1139.41 2.77447
1139.83 2.61120
1140.25 2.52116
1140.67 2.46400
1141.51 2.39290
1143.18 2.31233
1144.85 2.25681
1151.55 2.07631
1158.25 1.88754
1161.59 1.76213
1162.43 1.71962
1163.27 1.67367
1163.69 1.66280
1163.90 1.67442
1164.10 1.72137
1164.31 1.86867
1164.42 2.04162
1164.52 2.37433
1164.63 3.09780
1164.68 3.78081
1164.73 4.92523
1164.78 7.05694
1164.81 8.78679
1164.84 11.3282
1164.86 15.2148
1164.88 17.9433
1164.89 21.4316
1164.90 25.9396
1164.91 31.8136
1164.93 39.4894
1164.94 49.4362
1164.96 64.0857
1164.97 81.2847
1165.00 105.298
1165.02 101.259
1165.03 88.1314
1165.06 58.0105
1165.08 42.1410
1165.10 31.8938
1165.12 24.9163
1165.15 20.0605
1165.19 13.9233
1165.23 10.5438
1165.27 8.40972
1165.32 7.03467
1165.40 5.35986
1165.49 4.42283
1165.57 3.84024
1165.74 3.17627
1165.91 2.81459
1166.08 2.59250
1166.42 2.33848
1167.10 2.10963
1167.78 2.00343
1170.49 1.84935
1175.92 1.85012
1178.64 1.98116
1181.36 2.28386
1182.71 2.56157
1184.07 3.05251
1184.75 3.52537
1185.09 3.92078
1185.43 4.55756
1185.77 5.74914
1185.94 6.79928
1186.11 8.47140
1186.28 11.4022
1186.45 17.0616
1186.53 22.0546
1186.62 29.7970
1186.70 42.2404
1186.79 62.1432
1186.84 80.1974
1186.89 101.018
1187.00 130.495
1187.11 109.802
1187.21 73.2528
1187.29 55.1130
1187.36 42.7456
1187.50 28.1831
1187.65 20.7203
1187.79 16.5330
1187.94 13.9601
1188.08 12.3018
1188.37 10.4286
1188.95 9.10293
1189.53 9.00687
1190.69 10.3205
1191.27 11.6537
1191.56 12.8390
1191.70 14.0401
1191.77 15.1126
1191.84 16.8639
1192.00 22.1239
1192.16 18.7084
1192.28 16.8228
1192.40 16.2509
1192.63 16.4166
1193.11 18.1827
1194.07 23.9753
1195.02 33.2643
1195.98 48.6199
1196.93 75.9377
1197.41 97.9403
1197.89 129.576
1198.37 176.901
1198.85 250.336
1199.32 368.303
1199.80 559.000
1200.40 925.337
1201.00 1197.58
1201.61 992.345
1202.21 642.053
1202.61 474.138
1203.01 357.830
1203.81 220.677
1204.61 149.479
1205.41 108.724
1206.21 83.3280
1207.01 66.4884
1208.62 46.1499
1210.22 34.7299
1211.82 27.6188
1215.02 19.4674
1218.22 15.0281
1221.42 12.2246
1223.02 11.1408
1224.63 10.1746
1225.43 9.74367
1225.83 9.57045
1226.23 9.48169
1226.63 9.63506
1226.83 9.94721
1227.03 10.6394
1227.23 12.1956
1227.33 13.6634
1227.43 16.0481
1227.53 20.1284
1227.63 27.5901
1227.73 42.3416
1227.78 54.9411
1227.83 73.1602
1227.87 94.9546
1227.91 120.570
1228.00 159.195
1228.09 138.088
1228.17 95.7120
1228.26 66.7050
1228.34 49.4541
1228.42 38.7766
1228.51 31.9986
1228.67 24.1192
1228.84 19.9266
1229.01 17.3803
1229.17 15.7069
1229.51 13.6736
1229.84 12.4843
1230.17 11.7044
1230.84 10.7199
1231.51 10.1009
1232.18 9.65599
1233.51 9.02095
1234.84 8.55671
1236.18 8.18332
1236.84 8.02348
1237.51 7.89662
1237.85 7.87137
1238.01 7.88683
1238.18 7.94476
1238.35 8.09651
1238.51 8.48300
1238.60 8.89360
1238.68 9.61861
1238.76 10.9930
1238.84 13.7013
1238.92 18.0596
1239.00 21.5861
1239.08 19.5137
1239.16 15.4946
1239.21 13.3699
1239.27 11.9358
1239.32 10.9356
1239.38 10.2477
1239.49 9.37302
1239.60 8.86879
1239.71 8.54379
1239.82 8.32081
1240.04 8.03581
1240.49 7.73161
1240.93 7.55657
1241.81 7.32855
1242.70 7.16090
1246.24 6.66917
1253.33 5.99148
1267.50 5.12988
1281.67 4.55169
1288.76 4.29796
1290.53 4.23264
1292.30 4.16787
1293.19 4.14233
1293.63 4.13765
1294.07 4.14873
1294.51 4.20265
1294.74 4.27028
1294.96 4.40199
1295.18 4.68214
1295.29 4.94254
1295.40 5.36285
1295.51 6.10156
1295.62 7.49292
1295.68 8.69958
1295.73 10.4772
1295.79 13.2009
1295.84 17.3853
1295.92 26.4448
1296.00 33.3881
1296.08 28.5712
1296.16 20.0352
1296.23 14.5813
1296.31 11.3521
1296.38 9.37529
1296.45 8.10664
1296.60 6.64398
1296.74 5.87858
1296.89 5.42143
1297.04 5.12813
1297.33 4.77838
1297.62 4.58167
1297.92 4.45668
1298.50 4.30671
1299.09 4.22075
1299.67 4.17670
1299.97 4.18058
1300.26 4.23714
1300.41 4.32124
1300.55 4.50978
1300.63 4.69183
1300.70 4.99587
1300.77 5.52906
1300.85 6.48596
1300.92 8.14011
1301.00 9.38372
1301.08 8.49042
1301.16 6.94315
1301.24 5.83169
1301.32 5.22145
1301.41 4.86533
1301.49 4.64813
1301.66 4.40363
1301.82 4.27507
1302.16 4.14382
1302.49 4.07487
1303.16 3.99425
1303.82 3.93957
1305.16 3.85208
1306.49 3.77353
1307.83 3.70521
1308.50 3.68665
1309.16 3.70437
1309.50 3.74574
1309.83 3.83339
1310.16 4.01264
1310.50 4.38693
1310.83 5.24394
1311.00 6.09235
1311.16 7.54868
1311.33 10.3056
1311.41 12.6630
1311.50 16.1820
1311.58 21.8257
1311.66 31.1600
1311.71 38.2907
1311.75 47.6517
1311.79 60.6320
1311.83 77.6493
1311.87 100.817
1311.92 127.429
1312.00 165.296
1312.04 159.043
1312.09 138.887
1312.17 91.9923
1312.24 63.5719
1312.32 46.0846
1312.39 35.0496
1312.46 27.8120
1312.61 19.3408
1312.76 14.7969
1312.90 12.0804
1313.05 10.3218
1313.34 8.24225
1313.63 7.09086
1313.92 6.37718
1314.51 5.56062
1315.09 5.12568
1315.68 4.90294
1315.97 4.88675
1316.11 4.92765
1316.26 5.03456
1316.41 5.27445
1316.55 5.82557
1316.63 6.36083
1316.70 7.25603
1316.77 8.82542
1316.84 11.6372
1316.92 16.4960
1317.00 20.2397
1317.08 17.6852
1317.16 13.1006
1317.22 10.5097
1317.28 8.82420
1317.34 7.72406
1317.40 6.98231
1317.53 6.08630
1317.65 5.58700
1317.78 5.27775
1317.90 5.07022
1318.15 4.81173
1318.40 4.65508
1318.64 4.54893
1319.14 4.40866
1320.13 4.24600
1321.12 4.14367
1323.10 4.00609
1325.08 3.90825
1329.04 3.76203
1333.00 3.64574
1340.92 3.44727
1344.89 3.35442
1346.87 3.31241
1347.36 3.30705
1347.86 3.31466
1348.10 3.33496
1348.35 3.39332
1348.48 3.46183
1348.60 3.60026
1348.72 3.91853
1348.79 4.23377
1348.85 4.73925
1348.92 5.71859
1349.00 6.45462
1349.08 5.92026
1349.15 4.98908
1349.20 4.54590
1349.25 4.23411
1349.35 3.86380
1349.45 3.66688
1349.55 3.55170
1349.75 3.42858
1349.95 3.36678
1350.35 3.30502
1350.74 3.27275
1352.33 3.20695
1355.50 3.11995
1357.09 3.07894
1358.67 3.03985
1359.47 3.02486
1360.26 3.02677
1360.66 3.05237
1360.85 3.08382
1361.05 3.14404
1361.25 3.26877
1361.35 3.38126
1361.45 3.56052
1361.55 3.86400
1361.65 4.41949
1361.75 5.53643
1361.80 6.52413
1361.85 7.94944
1361.92 11.2743
1362.00 13.7204
1362.08 11.8850
1362.16 8.76626
1362.22 6.84226
1362.29 5.66293
1362.36 4.93148
1362.43 4.45789
1362.57 3.91022
1362.71 3.62074
1362.84 3.44652
1362.98 3.33341
1363.26 3.19829
1363.81 3.07017
1364.36 3.00629
1365.46 2.93295
1366.56 2.88235
1368.76 2.79727
1370.97 2.71499
1373.17 2.63299
1374.27 2.59847
1375.37 2.58443
1375.92 2.59758
1376.47 2.64117
1377.02 2.74711
1377.57 2.99141
1378.12 3.59136
1378.40 4.21148
1378.67 5.32316
1378.95 7.52580
1379.09 9.47929
1379.22 12.5269
1379.36 17.6514
1379.50 26.8036
1379.57 34.2534
1379.64 44.9246
1379.71 60.4562
1379.77 82.5999
1379.89 136.307
1380.00 176.937
1380.11 147.817
1380.23 96.9786
1380.31 70.2588
1380.39 52.3879
1380.48 40.4523
1380.56 32.2772
1380.72 22.2908
1380.89 16.7197
1381.06 13.3100
1381.22 11.0700
1381.55 8.38949
1381.89 6.89282
1382.22 5.96211
1382.88 4.89511
1383.55 4.31269
1384.21 3.95127
1385.54 3.52710
1386.86 3.28402
1388.19 3.12790
1388.85 3.07678
1389.52 3.06321
1389.85 3.09829
1390.02 3.14478
1390.18 3.23361
1390.35 3.41159
1390.51 3.80804
1390.60 4.19735
1390.68 4.86661
1390.76 6.09583
1390.84 8.40514
1390.92 12.0184
1391.00 14.6935
1391.08 12.6336
1391.16 9.16535
1391.25 6.55361
1391.34 5.20389
1391.44 4.46802
1391.53 4.03559
1391.62 3.75604
1391.71 3.56832
1391.90 3.33374
1392.08 3.19661
1392.27 3.10736
1392.64 2.99730
1393.38 2.88216
1394.12 2.81412
1395.60 2.72091
1397.08 2.64899
1403.00 2.42077
1408.92 2.21785
1410.40 2.16969
1411.88 2.13046
1412.62 2.12553
1412.99 2.13526
1413.36 2.16534
1413.73 2.24483
1413.92 2.32765
1414.10 2.47473
1414.29 2.75957
1414.38 3.00911
1414.47 3.39140
1414.57 4.02549
1414.66 5.13027
1414.75 7.26740
1414.84 11.5441
1414.92 17.7300
1415.00 22.1403
1415.08 18.4821
1415.16 12.5818
1415.22 9.24152
1415.29 7.12728
1415.35 5.77984
1415.41 4.89026
1415.54 3.84407
1415.67 3.28491
1415.80 2.94738
1415.92 2.72900
1416.18 2.47106
1416.44 2.32620
1416.69 2.23495
1417.20 2.12497
1418.22 2.01116
1419.24 1.94216
1423.33 1.75133
1427.42 1.58227
1431.50 1.41614
1435.59 1.26567
1439.67 1.18757
1441.72 1.23086
1443.76 1.41652
1445.80 1.95963
1446.82 2.65076
1447.08 2.99099
1447.33 3.56752
1447.46 4.07526
1447.59 4.93617
1447.72 6.67989
1447.78 8.28278
1447.84 10.7335
1447.92 15.0665
1448.00 17.6835
1448.08 14.5051
1448.16 10.1529
1448.26 7.01822
1448.35 5.62728
1448.45 4.98882
1448.55 4.69701
1448.75 4.56670
1448.94 4.70189
1449.73 6.22697
1450.51 9.06099
1451.29 14.1619
1451.69 18.2935
1452.08 24.2568
1452.47 33.2450
1452.86 47.5191
1453.25 71.7652
1453.65 116.692
1453.84 154.150
1454.04 209.331
1454.23 292.452
1454.43 417.586
1454.72 684.255
1455.00 877.252
1455.29 719.987
1455.58 460.781
1455.84 304.794
1456.10 210.812
1456.36 153.038
1456.61 115.906
1457.13 73.3671
1457.65 51.0625
1458.16 37.9548
1458.68 29.5866
1459.71 19.8564
1460.74 14.5906
1461.77 11.4544
1462.29 10.4062
1462.81 9.75834
1463.06 9.74837
1463.32 10.3819
1463.45 11.3531
1463.58 13.5043
1463.65 15.5351
1463.71 18.7443
1463.77 24.1471
1463.84 33.0371
1463.88 41.2816
1463.92 50.9571
1464.00 65.7593
1464.08 57.7693
1464.16 41.4907
1464.25 29.9461
1464.33 23.2078
1464.41 19.1884
1464.49 16.6530
1464.66 13.7887
1464.83 12.3170
1465.16 10.9801
1465.49 10.5664
1466.15 11.0978
1466.81 13.3721
1467.47 18.7850
1467.81 23.8492
1468.14 31.9962
1468.47 45.8180
1468.80 71.0022
1468.96 91.5932
1469.13 121.024
1469.30 164.293
1469.46 226.945
1469.73 377.550
1470.00 492.783
1470.27 413.039
1470.54 271.188
1470.73 197.887
1470.93 148.363
1471.12 114.802
1471.31 91.5352
1471.69 62.6727
1472.08 46.3835
1472.46 36.2717
1472.85 29.5789
1473.62 21.4574
1474.38 16.8301
1475.15 13.9009
1476.69 10.4414
1478.23 8.48091
1479.76 7.23359
1480.53 6.79914
1481.30 6.55941
1481.69 6.63366
1481.88 6.80313
1482.07 7.16840
1482.26 7.95444
1482.36 8.67096
1482.45 9.80656
1482.55 11.7023
1482.65 15.0878
1482.74 21.6318
1482.84 34.9913
1482.92 54.4104
1483.00 68.6188
1483.08 57.7064
1483.16 39.3774
1483.25 26.0269
1483.35 18.8079
1483.44 14.7418
1483.53 12.2788
1483.62 10.6832
1483.71 9.58995
1483.89 8.22054
1484.07 7.41411
1484.26 6.88752
1484.62 6.23967
1484.98 5.84411
1485.35 5.56731
1486.07 5.18185
1487.53 4.68056
1488.98 4.32240
1491.89 3.78796
1494.80 3.38408
1500.62 2.80593
1506.44 2.50339
1512.26 2.73376
1515.17 3.36012
1518.08 4.86745
1519.54 6.29651
1520.99 8.58959
1522.45 12.4273
1523.90 19.2608
1524.63 24.7415
1525.36 32.5831
1526.08 44.2468
1526.81 62.3371
1527.54 92.0832
1528.27 144.304
1528.99 243.396
1529.36 325.548
1529.72 441.123
1530.36 734.815
1531.00 956.673
1531.65 797.190
1532.29 518.518
1532.91 338.395
1533.52 232.098
1534.14 168.125
1534.76 127.599
1535.99 81.7083
1537.23 57.8122
1538.46 43.7708
1539.69 34.7729
1542.16 24.2056
1544.63 18.3586
1547.10 14.7043
1552.03 10.3976
1556.97 7.86770
1561.91 6.06606
1564.37 5.28775
1565.61 4.91704
1566.84 4.56748
1568.08 4.28548
1568.69 4.22333
1569.31 4.31188
1569.93 4.80741
1570.24 5.44023
1570.54 6.68088
1570.85 9.32073
1571.01 11.7621
1571.16 15.7332
1571.31 22.6275
1571.39 28.0453
1571.47 35.6687
1571.55 46.7001
1571.62 63.1266
1571.70 88.1627
1571.78 126.376
1571.89 209.777
1572.00 273.757
1572.06 263.913
1572.11 230.103
1572.22 151.773
1572.36 91.4230
1572.49 60.0689
1572.63 42.6974
1572.76 32.4283
1572.89 25.8074
1573.03 21.3514
1573.29 15.8216
1573.56 12.6318
1573.83 10.5986
1574.36 8.19772
1574.89 6.83158
1575.43 5.94665
1576.49 4.83662
1577.56 4.13773
1578.63 3.64470
1580.76 3.07792
1581.83 3.05229
1582.90 3.34425
1583.96 4.24603
1584.50 5.11463
1585.03 6.45410
1585.57 8.54088
1586.10 11.8506
1586.63 17.2733
1587.17 26.5696
1587.70 43.6811
1587.97 57.7359
1588.23 78.1238
1588.50 108.911
1588.77 156.908
1589.03 234.098
1589.30 358.552
1589.65 613.961
1590.00 821.489
1590.36 703.242
1590.71 469.039
1591.05 314.323
1591.38 221.079
1591.72 163.992
1592.06 127.381
1592.73 85.0327
1593.40 62.5229
1594.08 49.0240
1594.75 40.2449
1596.10 29.7301
1597.44 23.7827
1598.79 20.0165
1601.48 15.5673
1604.18 13.0395
1606.87 11.4088
1612.26 9.40822
1617.65 8.20146
1623.03 7.36988
1628.42 6.74177
1629.77 6.60916
1631.11 6.50018
1631.79 6.47667
1632.12 6.48950
1632.46 6.54219
1632.80 6.68968
1632.96 6.84278
1633.13 7.10930
1633.30 7.60927
1633.47 8.63462
1633.55 9.57265
1633.64 11.0758
1633.72 13.5871
1633.81 17.8482
1633.90 25.6518
1634.00 31.4843
1634.10 27.2721
1634.20 19.9673
1634.26 16.3438
1634.33 13.8647
1634.46 10.9337
1634.59 9.40248
1634.72 8.51837
1634.85 7.96305
1634.98 7.59016
1635.24 7.13093
1635.50 6.86270
1635.76 6.68864
1636.28 6.47236
1636.80 6.33763
1637.32 6.24075
1638.36 6.09903
1640.44 5.89599
1642.52 5.73193
1646.68 5.44330
1647.72 5.37459
1648.76 5.31119
1649.28 5.29049
1649.80 5.30860
1650.06 5.37149
1650.19 5.44176
1650.32 5.56844
1650.45 5.81054
1650.58 6.31861
1650.65 6.78734
1650.71 7.54051
1650.78 8.79876
1650.84 10.9308
1650.92 15.0073
1651.00 18.2835
1651.08 16.3436
1651.16 12.5950
1651.25 9.75209
1651.33 8.20317
1651.42 7.32515
1651.51 6.79436
1651.60 6.44336
1651.69 6.20361
1651.87 5.89822
1652.04 5.71552
1652.22 5.59607
1652.57 5.44785
1653.28 5.29375
1653.99 5.20485
1655.41 5.08557
1656.83 4.99342
1662.50 4.69140
1668.17 4.41249
1669.59 4.34076
1671.01 4.26937
1671.72 4.24021
1672.07 4.23342
1672.43 4.24176
1672.78 4.29082
1672.96 4.35295
1673.14 4.47357
1673.31 4.72320
1673.40 4.95010
1673.49 5.30484
1673.58 5.90326
1673.67 6.95693
1673.76 9.00438
1673.84 13.0900
1673.92 19.3865
1674.00 24.2876
1674.08 21.1793
1674.16 15.4299
1674.25 10.9817
1674.34 8.62623
1674.43 7.29378
1674.52 6.49836
1674.62 5.97812
1674.71 5.62592
1674.89 5.18456
1675.07 4.92430
1675.25 4.75677
1675.62 4.55365
1675.98 4.43434
1676.35 4.35450
1677.08 4.24908
1678.54 4.12011
1680.00 4.02780
1681.46 3.94918
1682.92 3.88064
1683.65 3.85471
1684.38 3.85157
1684.75 3.88011
1685.11 3.98494
1685.30 4.12431
1685.48 4.43914
1685.57 4.75958
1685.66 5.32014
1685.75 6.38961
1685.84 8.54118
1685.92 11.6932
1686.00 13.9691
1686.08 12.1438
1686.16 9.15059
1686.22 7.40576
1686.29 6.32650
1686.35 5.64031
1686.42 5.18756
1686.55 4.65420
1686.68 4.36571
1686.94 4.07734
1687.20 3.93862
1687.72 3.80325
1688.24 3.73218
1689.28 3.64459
1690.32 3.58033
1694.49 3.37030
1698.65 3.17788
1702.81 3.00656
1706.98 2.91952
1709.06 2.97748
1711.14 3.22656
1713.22 3.98003
1714.26 4.82376
1715.31 6.40319
1716.35 9.66151
1716.87 12.6718
1717.39 17.6052
1717.91 26.4235
1718.17 33.5943
1718.43 44.0946
1718.69 60.2596
1718.95 86.2906
1719.21 130.649
1719.47 207.973
1719.74 328.263
1720.00 402.598
1720.27 314.505
1720.53 191.245
1720.80 114.209
1721.06 71.9765
1721.32 48.7554
1721.59 36.5080
1721.85 32.3227
1721.98 33.5539
1722.11 37.8739
1722.25 46.7760
1722.38 63.0524
1722.51 91.7816
1722.64 140.861
1722.73 191.311
1722.82 255.006
1723.00 363.874
1723.09 366.215
1723.18 332.382
1723.36 236.262
1723.52 169.015
1723.69 125.578
1723.85 97.4766
1724.02 78.5703
1724.34 55.5816
1724.67 42.5814
1725.00 34.3531
1725.33 28.7547
1725.98 21.7105
1726.64 17.4925
1727.29 14.7130
1728.60 11.2946
1729.91 9.28335
1731.22 7.96087
1732.53 7.03134
1732.86 6.85865
1733.19 6.75046
1733.35 6.76314
1733.52 6.91109
1733.60 7.10640
1733.68 7.48372
1733.76 8.23302
1733.84 9.72140
1733.92 12.2143
1734.00 14.3062
1734.08 13.2083
1734.16 10.9120
1734.23 9.32225
1734.31 8.35251
1734.38 7.74787
1734.46 7.35291
1734.61 6.86505
1734.76 6.57925
1735.07 6.23800
1735.37 6.02103
1736.58 5.48087
1739.00 4.79119
1740.21 4.52591
1741.42 4.31754
1742.02 4.27067
1742.33 4.29075
1742.63 4.38167
1742.93 4.64311
1743.08 4.91852
1743.23 5.40403
1743.38 6.33091
1743.54 8.27798
1743.61 10.1192
1743.69 13.1043
1743.76 18.3325
1743.84 27.4527
1743.92 43.4134
1744.00 55.3537
1744.08 46.7123
1744.16 31.8076
1744.22 24.5571
1744.27 19.5778
1744.38 13.6329
1744.48 10.4748
1744.59 8.66244
1744.70 7.51161
1744.80 6.74652
1745.01 5.80514
1745.23 5.25811
1745.44 4.90707
1745.86 4.47880
1746.29 4.22177
1746.71 4.04340
1747.56 3.79528
1749.27 3.46453
1750.97 3.21080
1754.37 2.77685
1757.77 2.38281
1761.17 2.05112
1762.87 1.97094
1764.57 2.07893
1765.42 2.29605
1766.27 2.73997
1767.12 3.61695
1767.97 5.39046
1768.40 6.92739
1768.82 9.24853
1769.25 12.8854
1769.67 18.8663
1770.10 29.3507
1770.31 37.6606
1770.52 49.3365
1770.73 66.3567
1770.95 91.6228
1771.16 130.352
1771.37 189.248
1771.69 322.053
1772.00 428.190
1772.32 364.300
1772.63 242.068
1772.82 186.167
1773.01 145.538
1773.39 95.0170
1773.78 67.2322
1774.16 50.6848
1774.54 40.0377
1774.92 32.8145
1775.68 23.8419
1776.45 18.6406
1777.21 15.3253
1778.74 11.4157
1780.26 9.22421
1781.79 7.84368
1782.55 7.34230
1783.32 6.96633
1783.70 6.86206
1784.08 6.92231
1784.27 7.12838
1784.46 7.69037
1784.56 8.29894
1784.65 9.39861
1784.75 11.5562
1784.84 16.0197
1784.92 22.3385
1785.00 26.8994
1785.08 23.1049
1785.16 16.9293
1785.23 13.2233
1785.30 10.9890
1785.37 9.59581
1785.44 8.68705
1785.57 7.62106
1785.71 7.03821
1785.85 6.67659
1785.99 6.42970
1786.26 6.10688
1786.82 5.73408
1787.37 5.49112
1788.47 5.13472
1789.58 4.85479
1794.00 4.04744
1798.42 3.47095
1799.52 3.34234
1800.62 3.22870
1801.18 3.20440
1801.45 3.22416
1801.73 3.30138
1802.01 3.52348
1802.14 3.76170
1802.28 4.18632
1802.42 4.99449
1802.56 6.69048
1802.63 8.25673
1802.70 10.7751
1802.76 14.9837
1802.80 18.1422
1802.83 22.1162
1802.88 28.4397
1802.92 36.0311
1803.00 47.2875
1803.08 41.0304
1803.17 28.5770
1803.26 18.8362
1803.36 13.5888
1803.46 10.5860
1803.55 8.77619
1803.65 7.58492
1803.75 6.77372
1803.94 5.74833
1804.13 5.14601
1804.33 4.75718
1804.71 4.29396
1805.48 3.86314
1806.25 3.66672
1807.80 3.50534
1809.34 3.48602
1812.42 3.76582
1815.51 4.68547
1817.05 5.60727
1818.60 7.11361
1820.14 9.66623
1821.68 14.2621
1823.22 23.3798
1823.99 31.5008
1824.77 44.3741
1825.54 66.1994
1826.31 106.363
1826.69 139.700
1827.08 188.410
1827.47 261.504
1827.85 370.568
1828.43 609.961
1829.00 784.621
1829.58 646.153
1830.15 415.864
1830.81 247.420
1831.47 158.528
1832.13 109.438
1832.79 80.2199
1833.45 61.5379
1834.11 48.9230
1835.43 33.4689
1836.75 24.6610
1838.07 19.1284
1840.71 12.7149
1843.34 9.17212
1845.98 6.93485
1851.26 4.28328
1853.90 3.50619
1856.54 3.08298
1859.18 3.19606
1860.50 3.59504
1861.82 4.37888
1863.14 5.77393
1864.45 8.18294
1865.77 12.3812
1867.09 19.9423
1867.75 25.9603
1868.41 34.4450
1869.07 46.7113
1869.73 64.9513
1870.39 93.1310
1871.05 138.255
1871.71 213.434
1872.37 339.862
1873.19 590.582
1874.00 800.050
1874.82 692.201
1875.64 466.509
1876.21 349.672
1876.77 268.025
1877.33 211.286
1877.90 171.116
1879.03 120.157
1880.15 90.5079
1881.28 71.7392
1882.41 59.0796
1884.67 43.4305
1886.92 34.3477
1889.18 28.5189
1893.69 21.5729
1898.20 17.6189
1902.72 15.0762
1911.74 11.9789
1920.77 10.1190
1929.79 8.81696
1938.82 7.76435
1943.33 7.25026
1944.46 7.11304
1945.59 6.97197
1946.15 6.90825
1946.43 6.88647
1946.71 6.88501
1947.00 6.93810
1947.14 7.01449
1947.28 7.16631
1947.42 7.47806
1947.56 8.17456
1947.63 8.85260
1947.70 9.96651
1947.77 11.9380
1947.84 15.3977
1947.92 21.8193
1948.00 27.1778
1948.08 24.3779
1948.16 18.5798
1948.24 14.4578
1948.32 12.0712
1948.40 10.6360
1948.48 9.72292
1948.64 8.67510
1948.80 8.11397
1948.96 7.77210
1949.12 7.54347
1949.44 7.25518
1949.76 7.07565
1950.08 6.94852
1950.72 6.76680
1952.00 6.51138
1953.28 6.29894
1955.84 5.88362
1958.40 5.41775
1960.97 4.85148
1962.25 4.52377
1963.53 4.19191
1964.17 4.05489
1964.81 3.98703
1965.45 4.08874
1966.09 4.61430
1966.73 6.30446
1967.05 8.22516
1967.21 9.72395
1967.37 11.7931
1967.53 14.7028
1967.69 18.8899
1967.85 25.0878
1968.01 34.5858
1968.17 49.7622
1968.33 75.2170
1968.49 120.071
1968.65 201.044
1968.83 348.018
1969.00 471.405
1969.18 408.989
1969.35 277.259
1969.48 205.811
1969.60 156.720
1969.73 123.199
1969.86 99.8020
1970.11 70.5618
1970.37 53.7947
1970.62 43.2880
1970.87 36.2403
1971.38 27.5968
1971.89 22.6016
1972.40 19.4098
1973.41 15.6301
1974.43 13.4916
1975.44 12.1273
1976.46 11.1811
1977.47 10.4852
1979.50 9.52352
1981.54 8.88243
1985.60 8.05695
1989.66 7.52228
1993.72 7.12684
1997.78 6.80672
1998.80 6.73611
1999.81 6.67682
2000.32 6.66309
2000.83 6.69569
2001.08 6.77143
2001.34 6.98716
2001.46 7.23975
2001.59 7.75169
2001.65 8.21612
2001.72 8.93478
2001.78 10.1007
2001.84 12.0114
2001.92 15.7306
2002.00 18.5886
2002.08 16.6263
2002.16 13.1232
2002.24 10.8078
2002.31 9.46061
2002.39 8.64702
2002.46 8.12935
2002.62 7.53560
2002.77 7.22417
2003.07 6.91350
2003.38 6.76188
2003.99 6.60794
2004.60 6.52174
2005.82 6.40919
2007.04 6.32412
2011.92 6.05299
2021.67 5.59747
2031.43 5.17013
2041.18 4.72714
2050.94 4.22758
2055.82 3.94294
2060.70 3.63370
2065.58 3.33215
2068.02 3.23285
2070.45 3.26748
2072.89 3.71395
2074.11 4.35250
2075.33 5.68035
2076.55 8.64102
2077.16 11.4847
2077.77 16.2350
2078.38 24.7825
2078.69 31.7058
2078.99 41.7078
2079.30 56.6536
2079.60 79.8120
2079.91 116.880
2080.21 176.456
2080.61 295.845
2081.00 388.252
2081.40 326.572
2081.79 214.830
2082.22 134.712
2082.64 90.1707
2083.07 64.5718
2083.50 48.8824
2083.92 38.6011
2084.35 31.5362
2085.20 22.6595
2086.06 17.4670
2086.91 14.1382
2088.62 10.2838
2090.32 8.59006
2091.18 8.58091
2092.03 9.61218
2092.88 12.9693
2093.31 16.5924
2093.73 22.9564
2094.16 34.8509
2094.37 44.6627
2094.59 59.0019
2094.80 80.7651
2095.01 114.644
2095.23 169.264
2095.44 258.052
2095.72 441.531
2096.00 591.927
2096.28 508.837
2096.56 342.095
2096.87 218.270
2097.17 148.891
2097.48 108.767
2097.79 83.9738
2098.10 67.6713
2098.40 56.3785
2099.02 42.1032
2099.63 33.6733
2100.24 28.2154
2101.47 21.6900
2102.70 17.9766
2103.93 15.6024
2106.38 12.7465
2108.84 11.0842
2111.29 9.98709
2116.20 8.60410
2121.11 7.74156
2126.02 7.12711
2130.93 6.63506
2132.16 6.51883
2133.39 6.40289
2134.00 6.35010
2134.62 6.32702
2134.92 6.36485
2135.08 6.42323
2135.23 6.54191
2135.38 6.79447
2135.54 7.37505
2135.61 7.95743
2135.69 8.94430
2135.77 10.7589
2135.84 14.1048
2135.92 19.9550
2136.00 24.8450
2136.08 22.3090
2136.16 17.0365
2136.22 13.9972
2136.28 12.0040
2136.34 10.6731
2136.40 9.75954
2136.53 8.62857
2136.65 7.99403
2136.77 7.59477
2136.89 7.32864
2137.14 6.99748
2137.38 6.80020
2137.63 6.66948
2138.12 6.50220
2139.09 6.31575
2140.07 6.19789
2142.03 6.02669
2143.98 5.88814
2151.81 5.42978
2159.64 5.01818
2167.46 4.60213
2175.29 4.14309
2179.20 3.88365
2183.11 3.59584
2187.03 3.27490
2188.98 3.10336
2190.94 2.93050
2192.90 2.77496
2193.87 2.72356
2194.85 2.72745
2195.83 2.89715
2196.32 3.15664
2196.81 3.72857
2197.30 5.10747
2197.54 6.53546
2197.79 9.08363
2197.91 11.1536
2198.03 14.1049
2198.15 18.4897
2198.27 25.2806
2198.40 36.4607
2198.52 55.6945
2198.58 70.6336
2198.64 91.2252
2198.70 119.863
2198.76 159.477
2198.88 272.393
2199.00 363.859
2199.12 312.650
2199.24 211.224
2199.34 147.016
2199.45 107.165
2199.55 81.7882
2199.66 65.3192
2199.86 45.9758
2200.07 35.7261
2200.28 29.6866
2200.49 25.9423
2200.91 21.9761
2201.32 20.5016
2201.74 20.4628
2202.57 23.6138
2203.41 31.8579
2204.24 49.6807
2204.66 65.7268
2205.08 90.6856
2205.49 130.618
2205.91 194.864
2206.46 324.077
2207.00 422.611
2207.55 352.427
2208.09 229.291
2208.43 172.961
2208.76 132.541
2209.10 103.455
2209.44 82.2303
2209.77 66.2656
2210.11 54.4933
2210.28 50.5382
2210.45 49.3438
2210.53 50.9555
2210.61 55.5928
2210.70 65.8299
2210.78 86.3860
2210.84 108.532
2210.89 138.439
2211.00 197.702
2211.11 195.953
2211.22 156.269
2211.31 128.075
2211.40 107.580
2211.48 92.9502
2211.57 82.2684
2211.75 67.9530
2211.92 58.8740
2212.10 52.4883
2212.27 47.7178
2212.63 40.9467
2212.98 36.2253
2213.33 32.6887
2214.03 27.6171
2214.73 24.1016
2215.44 21.5115
2215.79 20.4769
2216.14 19.6464
2216.32 19.3686
2216.49 19.3290
2216.58 19.5167
2216.67 20.0187
2216.76 21.1807
2216.84 23.7166
2216.92 27.8662
2217.00 31.2282
2217.08 29.1643
2217.16 25.1772
2217.21 23.2177
2217.26 21.7841
2217.36 19.9736
2217.46 18.9105
2217.55 18.2128
2217.75 17.3192
2217.95 16.7249
2218.35 15.8788
2218.74 15.2337
2219.54 14.2089
2220.33 13.3869
2221.92 12.1076
2223.50 11.1435
2226.67 9.76102
2227.47 9.48736
2228.26 9.23555
2228.66 9.12407
2229.05 9.04976
2229.25 9.06091
2229.45 9.18604
2229.55 9.36278
2229.65 9.73114
2229.74 10.5446
2229.79 11.3038
2229.84 12.4404
2229.92 15.3004
2230.00 17.7837
2230.08 16.7129
2230.16 14.2240
2230.22 12.8097
2230.27 11.8292
2230.39 10.6766
2230.51 10.0683
2230.62 9.70622
2230.85 9.29970
2231.08 9.07275
2231.55 8.80462
2232.01 8.63112
2232.94 8.37930
2233.87 8.17998
2237.57 7.57423
2244.99 6.73656
2248.70 6.39857
2250.55 6.23447
2252.41 6.06605
2254.26 5.88448
2255.19 5.78544
2256.11 5.68100
2257.04 5.58246
2257.50 5.55203
2257.97 5.56862
2258.43 5.72877
2258.66 5.95299
2258.89 6.41231
2259.13 7.42469
2259.24 8.38167
2259.36 9.93670
2259.47 12.6682
2259.59 17.8255
2259.71 28.5441
2259.76 38.1471
2259.82 52.2732
2259.87 67.5719
2259.91 85.8758
2260.00 113.144
2260.09 97.6882
2260.18 67.0533
2260.28 44.6199
2260.37 32.0397
2260.47 24.6260
2260.57 20.0710
2260.66 17.0360
2260.76 14.9531
2260.95 12.3142
2261.14 10.7487
2261.34 9.74268
2261.72 8.54043
2262.11 7.85955
2262.49 7.42706
2263.26 6.90755
2264.03 6.60218
2264.80 6.39672
2266.34 6.12516
2267.88 5.94069
2269.42 5.79726
2272.51 5.56681
2275.59 5.36580
2277.13 5.26615
2278.67 5.16199
2280.21 5.04841
2280.98 4.98719
2281.75 4.92534
2282.52 4.87624
2282.90 4.87303
2283.29 4.91526
2283.67 5.08549
2283.87 5.29341
2284.06 5.69321
2284.25 6.52906
2284.35 7.28471
2284.44 8.48492
2284.54 10.5230
2284.64 14.1457
2284.73 21.1459
2284.78 27.0163
2284.83 35.3890
2284.87 45.4928
2284.92 57.6100
2285.00 75.4170
2285.09 65.0095
2285.17 44.9489
2285.22 35.5123
2285.28 28.6942
2285.38 20.2791
2285.49 15.6831
2285.59 12.9703
2285.70 11.2130
2285.81 10.0282
2286.02 8.54765
2286.23 7.68391
2286.44 7.13316
2286.86 6.47878
2287.28 6.10688
2287.71 5.86839
2288.55 5.57607
2289.40 5.39851
2290.24 5.27413
2291.93 5.09990
2295.31 4.86568
2298.69 4.68246
2305.45 4.35105
2312.21 4.00922
2318.97 3.62253
2322.34 3.40886
2325.72 3.19684
2329.10 3.06100
2330.79 3.10922
2332.48 3.39664
2334.17 4.34478
2335.02 5.44090
2335.86 7.50931
2336.71 11.7409
2337.13 15.5511
2337.55 21.5531
2337.97 31.5736
2338.40 49.3524
2338.82 83.3766
2339.03 111.674
2339.24 151.761
2339.62 257.876
2340.00 343.206
2340.38 292.885
2340.76 195.526
2341.20 121.307
2341.63 81.1706
2342.07 58.4743
2342.51 44.7281
2342.94 35.7853
2343.38 29.6663
2344.25 22.0038
2345.13 17.5293
2346.00 14.6547
2347.74 11.2385
2349.49 9.29566
2351.23 8.03897
2354.73 6.46027
2358.22 5.42352
2359.96 4.99694
2361.71 4.61682
2363.45 4.33007
2364.33 4.28869
2365.20 4.44356
2366.07 5.13685
2366.51 5.99794
2366.95 7.68009
2367.38 11.2612
2367.60 14.5884
2367.82 20.0250
2368.04 29.5230
2368.25 47.6512
2368.36 63.1193
2368.47 86.3386
2368.58 122.081
2368.69 177.259
2368.85 295.831
2369.00 387.233
2369.16 325.453
2369.31 214.254
2369.47 136.632
2369.63 92.9054
2369.80 67.2424
2369.96 51.4334
2370.12 40.9746
2370.28 33.7921
2370.60 24.7505
2370.92 19.4404
2371.25 16.0348
2371.89 12.0089
2372.54 9.73422
2373.18 8.27850
2374.47 6.50830
2375.76 5.55720
2376.41 5.39924
2377.05 5.67076
2377.70 6.99017
2378.02 8.58211
2378.35 11.5608
2378.51 14.0067
2378.67 17.4969
2378.83 22.6360
2378.99 30.4527
2379.15 42.9148
2379.31 63.4461
2379.47 99.0048
2379.64 161.855
2379.82 279.210
2380.00 376.745
2380.18 326.295
2380.37 221.478
2380.50 162.933
2380.64 123.272
2380.78 96.5234
2380.91 78.1454
2381.19 55.2677
2381.46 42.2448
2381.73 34.1163
2382.00 28.6738
2382.55 21.9909
2383.10 18.1232
2383.64 15.6455
2384.74 12.6822
2385.83 10.9805
2386.92 9.87648
2389.11 8.51440
2391.29 7.68897
2393.48 7.11814
2395.66 6.68529
2396.21 6.59529
2396.75 6.52730
2397.03 6.52203
2397.30 6.59047
2397.44 6.70722
2397.57 6.98039
2397.64 7.25260
2397.71 7.70185
2397.78 8.48197
2397.84 9.85866
2397.92 12.4520
2398.00 14.6216
2398.08 13.4930
2398.16 11.1436
2398.22 9.73607
2398.28 8.82733
2398.41 7.81974
2398.54 7.31849
2398.66 7.03217
2398.91 6.72313
2399.17 6.55863
2399.67 6.37375
2400.18 6.25909
2401.19 6.09802
2402.20 5.97251
2406.24 5.58847
2414.31 5.02852
2422.39 4.57609
2430.47 4.15549
2438.55 3.71901
2446.63 3.21086
2450.67 2.89935
2454.71 2.51957
2456.73 2.29795
2457.74 2.18406
2458.75 2.08148
2459.76 2.03056
2460.26 2.06440
2460.77 2.20412
2461.27 2.61041
2461.52 3.05192
2461.78 3.84980
2462.03 5.43021
2462.15 6.81629
2462.28 8.97695
2462.41 12.5408
2462.53 18.8478
2462.60 23.8668
2462.66 30.9469
2462.72 41.0696
2462.78 55.4764
2462.89 91.1853
2463.00 117.904
2463.11 98.2067
2463.22 64.2541
2463.29 48.1987
2463.36 36.9333
2463.50 23.5821
2463.64 16.5135
2463.77 12.4701
2463.91 9.93549
2464.05 8.27517
2464.33 6.31241
2464.61 5.30394
2464.89 4.81151
2465.45 4.86396
2465.73 5.43184
2466.01 6.54151
2466.29 8.53853
2466.56 12.1581
2466.70 15.0473
2466.84 19.0906
2466.98 24.9867
2467.12 33.7423
2467.26 47.4633
2467.40 69.6220
2467.54 107.566
2467.68 172.777
2467.84 293.210
2468.00 389.292
2468.16 331.076
2468.32 220.066
2468.50 138.426
2468.67 93.1315
2468.85 67.1392
2469.02 51.1832
2469.20 40.7520
2469.38 33.5645
2469.73 24.5417
2470.08 19.2617
2470.43 15.8716
2471.14 11.8596
2471.84 9.60921
2472.54 8.18500
2473.95 6.49131
2475.36 5.50935
2476.77 4.85683
2479.58 4.00801
2482.40 3.44069
2485.21 3.00296
2488.03 2.64135
2488.73 2.56939
2489.43 2.53560
2489.79 2.57198
2490.14 2.75006
2490.31 3.00378
2490.49 3.59852
2490.58 4.20432
2490.67 5.27733
2490.75 7.31925
2490.84 11.3254
2490.88 14.1909
2490.92 17.5953
2491.00 22.4379
2491.08 19.2568
2491.16 13.4913
2491.22 10.4617
2491.27 8.42918
2491.38 6.07301
2491.50 4.85545
2491.61 4.16589
2491.83 3.44146
2492.06 3.08287
2492.51 2.73643
2492.96 2.56722
2494.76 2.30626
2496.55 2.25997
2498.35 2.40171
2500.15 2.92179
2501.05 3.50503
2501.95 4.59471
2502.40 5.51066
2502.85 6.88394
2503.30 9.06833
2503.75 12.7846
2504.20 19.7807
2504.42 25.7466
2504.65 34.7727
2504.87 49.2612
2505.10 73.8338
2505.32 118.148
2505.55 200.413
2505.77 340.305
2506.00 453.967
2506.23 390.615
2506.46 264.877
2506.68 177.809
2506.91 126.939
2507.14 96.7642
2507.37 78.0596
2507.82 57.6136
2508.28 48.1114
2508.73 43.7733
2509.19 42.4280
2510.10 45.5986
2511.01 55.6797
2511.92 74.6520
2512.83 107.941
2513.74 164.921
2514.87 278.946
2516.00 373.227
2517.13 321.868
2518.26 217.695
2519.20 154.818
2520.14 114.159
2521.09 87.7905
2522.03 70.1083
2523.91 48.8057
2525.79 36.9906
2527.68 29.7086
2529.56 24.8647
2533.33 18.9198
2537.09 15.4536
2540.86 13.1888
2548.39 10.3570
2555.93 8.53900
2559.69 7.79122
2563.46 7.08520
2567.23 6.39306
2569.11 6.06199
2570.99 5.78576
2572.88 5.72205
2573.82 5.93481
2574.76 6.59360
2575.70 8.39740
2576.17 10.3238
2576.64 13.7816
2577.11 20.5232
2577.35 26.3761
2577.58 35.2970
2577.82 49.6733
2578.06 73.9563
2578.29 117.586
2578.53 198.524
2578.76 333.981
2579.00 440.171
2579.24 372.755
2579.48 247.681
2579.71 162.671
2579.95 112.915
2580.18 83.1698
2580.42 64.4558
2580.65 51.9212
2580.89 43.1681
2581.36 32.0547
2581.83 25.4537
2582.30 21.1850
2583.25 16.0626
2584.19 13.1233
2585.13 11.1992
2587.02 8.73528
2588.90 7.11341
2589.85 6.52452
2590.79 6.20394
2591.73 6.60137
2592.20 7.50754
2592.68 9.56456
2592.91 11.4240
2593.15 14.2678
2593.38 18.7272
2593.62 25.9326
2593.85 38.2392
2594.09 60.3470
2594.21 78.1187
2594.33 103.194
2594.44 138.946
2594.56 189.183
2594.78 330.740
2595.00 453.061
2595.22 397.782
2595.44 272.942
2595.63 194.919
2595.81 144.643
2596.00 111.992
2596.19 90.0511
2596.56 63.6090
2596.93 48.9099
2597.30 39.8465
2597.67 33.8141
2598.42 26.4252
2599.16 22.1474
2599.91 19.3879
2601.39 16.0602
2602.88 14.1273
2604.37 12.8583
2607.35 11.2734
2610.32 10.3022
2613.30 9.63013
2619.25 8.73084
2625.20 8.12947
2631.15 7.67952
2643.06 7.00840
2654.96 6.47897
2666.87 5.98263
2672.82 5.71332
2675.80 5.56377
2678.77 5.39772
2681.75 5.20805
2683.24 5.10273
2684.72 4.99344
2686.21 4.89815
2686.96 4.87780
2687.70 4.91726
2688.44 5.12624
2688.82 5.39264
2689.19 5.91563
2689.56 7.01288
2689.75 8.01407
2689.93 9.61079
2690.12 12.2985
2690.30 17.1394
2690.49 26.5648
2690.58 34.5241
2690.68 45.9358
2690.76 59.5098
2690.84 75.5421
2691.00 99.2323
2691.16 85.1765
2691.33 58.1859
2691.47 41.3358
2691.61 30.7958
2691.75 24.1485
2691.90 19.8087
2692.18 14.6650
2692.47 11.8872
2692.75 10.1983
2693.04 9.09201
2693.61 7.74741
2694.18 6.97042
2694.75 6.46314
2695.89 5.82506
2697.04 5.41478
2698.18 5.10283
2700.46 4.59187
2701.60 4.35584
2702.74 4.12758
2703.89 3.92377
2705.03 3.81011
2706.17 4.02439
2706.74 4.49301
2707.31 5.59587
2707.60 6.62717
2707.88 8.24678
2708.17 10.8922
2708.45 15.3829
2708.74 23.5629
2708.88 30.2016
2709.03 39.6834
2709.17 53.8235
2709.31 75.2493
2709.45 109.037
2709.60 161.789
2709.80 279.047
2710.00 376.168
2710.20 325.245
2710.41 220.266
2710.55 163.991
2710.69 125.401
2710.84 98.7410
2710.98 80.1950
2711.27 56.8400
2711.56 43.4077
2711.85 34.9781
2712.14 29.3196
2712.72 22.3680
2713.30 18.3610
2713.87 15.8011
2715.03 12.7675
2716.19 11.0511
2717.34 9.95119
2718.50 9.18318
2719.65 8.61177
2721.96 7.79374
2724.28 7.18443
2725.43 6.89897
2726.01 6.74963
2726.59 6.59100
2727.17 6.42551
2727.46 6.35057
2727.74 6.30730
2728.03 6.37787
2728.18 6.53786
2728.32 6.91191
2728.47 7.81610
2728.54 8.70976
2728.61 10.2294
2728.68 12.9841
2728.76 18.4324
2728.79 23.2008
2728.83 30.4961
2728.86 41.9593
2728.90 60.0629
2728.95 100.019
2729.00 132.231
2729.05 114.262
2729.10 78.8371
2729.16 50.6250
2729.22 35.5390
2729.28 27.1074
2729.34 22.0815
2729.40 18.7610
2729.46 16.4871
2729.58 13.6617
2729.70 11.9929
2729.82 10.9270
2730.06 9.65060
2730.30 8.92645
2730.54 8.46249
2731.01 7.90050
2731.49 7.56692
2731.97 7.34034
2732.93 7.03927
2734.84 6.67943
2736.75 6.43837
2740.57 6.07557
2744.39 5.76482
2748.22 5.44922
2750.13 5.27479
2752.04 5.07989
2753.95 4.85881
2754.91 4.74269
2755.86 4.64030
2756.82 4.61304
2757.30 4.69200
2757.78 4.94221
2758.25 5.62554
2758.49 6.34506
2758.73 7.61227
2758.97 9.98870
2759.21 14.8684
2759.33 19.2980
2759.45 26.2040
2759.57 37.3913
2759.63 45.5154
2759.69 55.6766
2759.77 73.1343
2759.84 93.9495
2760.00 125.721
2760.08 123.063
2760.16 109.155
2760.31 74.9559
2760.47 50.4871
2760.64 36.2181
2760.80 27.7093
2760.96 22.3359
2761.12 18.7462
2761.28 16.2296
2761.60 13.0148
2761.92 11.0824
2762.24 9.82013
2762.89 8.28250
2763.53 7.38505
2764.17 6.79581
2765.46 6.07116
2766.75 5.73905
2767.39 5.77724
2768.03 6.12228
2768.68 7.21665
2769.00 8.41731
2769.32 10.5667
2769.64 14.6880
2769.80 18.1711
2769.96 23.3205
2770.12 31.3094
2770.28 44.1406
2770.45 65.5361
2770.61 101.402
2770.80 172.612
2771.00 231.468
2771.20 200.363
2771.40 136.527
2771.55 99.8480
2771.70 75.5521
2771.86 59.3681
2772.01 48.2879
2772.32 34.6758
2772.62 27.0424
2772.93 22.2982
2773.23 19.1492
2773.85 15.2957
2774.46 13.0806
2775.07 11.6639
2776.30 9.97788
2777.52 9.01408
2778.75 8.39075
2781.20 7.62624
2783.65 7.16614
2786.10 6.85159
2791.01 6.43319
2795.91 6.15201
2800.81 5.93813
2810.62 5.60854
2820.43 5.33865
2830.23 5.08825
2840.04 4.83077
2844.94 4.68640
2846.17 4.64639
2847.39 4.60565
2848.00 4.58887
2848.62 4.59019
2848.92 4.61905
2849.23 4.72372
2849.38 4.86260
2849.54 5.17377
2849.61 5.48070
2849.69 5.99518
2849.77 6.93105
2849.84 8.63654
2849.92 11.5731
2850.00 13.9513
2850.08 12.5882
2850.16 9.90322
2850.25 7.89145
2850.33 6.77611
2850.42 6.13600
2850.51 5.74235
2850.69 5.30547
2850.86 5.08013
2851.21 4.85673
2851.56 4.74823
2852.27 4.63786
2852.97 4.57617
2855.78 4.43294
2861.40 4.21012
2867.03 3.96876
2872.65 3.68240
2878.27 3.33458
2881.08 3.14264
2883.90 2.96983
2886.71 2.93544
2888.11 3.09937
2889.52 3.60888
2890.92 5.01576
2891.63 6.51798
2892.33 9.19555
2893.03 14.3138
2893.38 18.6482
2893.74 25.0921
2894.09 35.0821
2894.44 51.1104
2894.79 77.8785
2895.14 123.205
2895.57 212.606
2896.00 287.347
2896.43 248.943
2896.86 168.630
2897.33 108.877
2897.79 75.0852
2898.26 55.3650
2898.73 43.0984
2899.19 34.9779
2899.66 29.3451
2900.59 22.1946
2901.52 17.9502
2902.46 15.1968
2904.32 11.8889
2906.18 9.99275
2908.05 8.76349
2911.78 7.22905
2915.51 6.23387
2917.37 5.82091
2919.24 5.43409
2921.10 5.07773
2922.03 4.93859
2922.97 4.89116
2923.90 5.13138
2924.37 5.54863
2924.83 6.47126
2925.30 8.61007
2925.53 10.7083
2925.76 14.2661
2926.00 20.7327
2926.11 26.0347
2926.23 33.6617
2926.35 45.2029
2926.46 62.9875
2926.58 91.7804
2926.70 137.969
2926.85 232.879
2927.00 308.230
2927.15 262.607
2927.31 175.908
2927.42 128.149
2927.53 96.3936
2927.65 74.9554
2927.76 60.3659
2927.99 42.3687
2928.22 32.2821
2928.45 26.0194
2928.68 21.8667
2929.14 16.8370
2929.59 13.9654
2930.05 12.1481
2930.97 10.0011
2931.88 8.78442
2932.80 7.99791
2934.62 7.02094
2936.45 6.40803
2938.28 5.95947
2941.94 5.26859
2945.60 4.65611
2947.43 4.34222
2949.26 4.02304
2951.09 3.75542
2952.01 3.71968
2952.92 3.90358
2953.84 4.72204
2954.29 5.74500
2954.75 7.73918
2954.98 9.42646
2955.21 11.9206
2955.44 15.7268
2955.67 21.7428
2955.89 31.8397
2956.12 49.7248
2956.24 64.0640
2956.35 84.0289
2956.47 112.337
2956.58 152.289
2956.79 261.628
2957.00 351.405
2957.21 302.714
2957.42 204.279
2957.61 140.410
2957.80 101.056
2958.00 76.3132
2958.19 60.2465
2958.57 41.3922
2958.95 31.2386
2959.34 25.0851
2959.72 21.0509
2960.48 16.1878
2961.25 13.4044
2962.01 11.6198
2963.55 9.45017
2965.08 8.15479
2965.84 7.69272
2966.61 7.36126
2967.37 7.28003
2967.76 7.46121
2968.14 7.99412
2968.52 9.33725
2968.71 10.6567
2968.90 12.8452
2969.10 16.6758
2969.29 23.7439
2969.48 37.8639
2969.57 50.0787
2969.67 67.6369
2969.83 113.922
2970.00 153.330
2970.17 134.427
2970.33 93.2207
2970.49 64.8246
2970.65 47.7142
2970.81 37.1792
2970.97 30.3691
2971.29 22.4529
2971.61 18.1847
2971.93 15.5934
2972.25 13.8802
2972.89 11.7818
2973.53 10.5527
2974.17 9.74669
2975.45 8.74076
2976.74 8.12234
2978.02 7.69128
2980.58 7.10066
2983.14 6.68084
2985.70 6.32452
2986.98 6.14584
2987.62 6.05253
2988.26 5.95774
2988.90 5.87415
2989.22 5.85305
2989.54 5.87733
2989.86 6.02918
2990.02 6.22477
2990.18 6.60448
2990.34 7.37873
2990.50 9.10932
2990.58 10.7819
2990.66 13.5719
2990.74 18.4365
2990.82 27.0901
2990.86 34.5493
2990.91 43.4157
2991.00 57.4514
2991.09 51.0117
2991.18 36.5830
2991.25 28.4671
2991.32 22.9195
2991.39 19.1510
2991.45 16.5626
2991.59 13.2808
2991.72 11.4113
2991.86 10.2268
2992.00 9.43419
2992.27 8.44990
2992.54 7.87042
2992.81 7.49390
2993.35 7.03092
2993.89 6.75305
2994.43 6.56328
2995.51 6.30684
2996.60 6.12618
2997.68 5.98320
2998.22 5.93016
2998.76 5.92712
2999.03 5.99618
2999.30 6.24529
2999.44 6.57019
2999.57 7.26750
2999.64 7.92875
2999.71 8.98976
2999.77 10.8166
2999.84 13.9148
2999.92 19.8778
3000.00 24.7092
3000.08 22.0466
3000.16 16.7148
3000.22 13.7211
3000.28 11.6993
3000.34 10.3391
3000.40 9.40034
3000.52 8.23941
3000.64 7.58288
3000.88 6.88968
3001.12 6.54115
3001.60 6.19277
3002.07 6.01119
3003.03 5.79651
3003.99 5.64353
3004.94 5.50674
3005.42 5.44347
3005.90 5.39447
3006.38 5.39825
3006.62 5.45932
3006.86 5.62469
3007.10 6.04377
3007.22 6.46895
3007.34 7.18695
3007.46 8.48999
3007.58 10.9943
3007.70 16.3733
3007.76 21.2866
3007.81 28.6295
3007.86 36.7888
3007.91 46.5024
3008.00 61.8704
3008.09 54.7270
3008.19 38.8930
3008.28 27.9844
3008.37 21.4258
3008.46 17.3382
3008.54 14.7249
3008.72 11.6678
3008.90 10.0226
3009.08 9.02679
3009.26 8.37128
3009.62 7.57469
3009.98 7.11496
3010.33 6.81755
3011.05 6.45495
3011.77 6.23921
3012.48 6.09299
3013.91 5.90021
3015.35 5.77130
3016.78 5.67379
3019.64 5.52577
3025.37 5.31167
3031.09 5.14310
3042.54 4.85932
3054.00 4.60278
3065.45 4.34852
3076.90 4.07563
3082.63 3.92102
3088.35 3.73757
3091.22 3.62266
3092.65 3.55387
3094.08 3.47297
3095.51 3.37453
3096.23 3.31777
3096.94 3.25948
3097.66 3.21787
3098.02 3.22536
3098.37 3.29257
3098.73 3.52448
3098.91 3.79367
3099.09 4.29812
3099.27 5.30813
3099.45 7.55454
3099.54 9.75061
3099.63 13.4039
3099.72 19.8432
3099.76 24.8795
3099.81 31.4717
3099.85 41.1071
3099.90 52.7635
3100.00 70.4603
3100.05 69.1022
3100.10 61.4054
3100.20 42.5389
3100.26 33.0825
3100.32 26.3348
3100.45 18.1908
3100.58 13.7694
3100.71 11.1800
3100.83 9.51326
3100.96 8.38982
3101.22 6.98700
3101.47 6.16941
3101.73 5.64310
3102.24 5.01437
3102.75 4.65527
3103.26 4.42319
3104.27 4.13809
3105.29 3.96439
3106.31 3.84298
3108.35 3.67325
3112.43 3.44552
3116.51 3.26589
3124.67 2.93823
3132.82 2.61885
3140.98 2.35936
3145.06 2.33502
3149.14 2.54364
3153.22 3.42388
3155.26 4.51650
3157.29 6.66381
3158.31 8.49573
3159.33 11.2309
3160.35 15.4769
3161.37 22.3793
3162.39 34.3512
3163.41 56.8348
3163.92 75.7178
3164.43 103.599
3164.94 145.628
3165.45 208.853
3166.23 353.615
3167.00 467.851
3167.78 396.168
3168.55 262.058
3169.35 168.488
3170.15 114.839
3170.95 83.2030
3171.74 63.4654
3172.54 50.3917
3173.34 41.3204
3174.94 29.8394
3176.53 23.0638
3178.13 18.6889
3181.32 13.4566
3184.52 10.4574
3187.71 8.49007
3194.10 5.93698
3200.48 4.15860
3203.68 3.42300
3206.87 2.85161
3210.06 2.77395
3211.66 3.26681
3212.46 3.80826
3213.25 4.68424
3214.05 6.08427
3214.85 8.32615
3215.65 11.9885
3216.45 18.1720
3217.25 29.1450
3217.65 37.7847
3218.04 49.8684
3218.44 67.1161
3218.84 92.2236
3219.24 129.297
3219.64 183.900
3220.32 326.364
3221.00 451.519
3221.69 398.838
3222.37 274.160
3222.99 192.074
3223.60 140.191
3224.22 107.216
3224.84 85.4273
3226.07 59.4814
3227.30 45.2253
3228.54 36.4705
3229.77 30.6590
3232.24 23.5378
3234.70 19.4016
3237.17 16.7232
3242.10 13.4676
3247.04 11.5498
3251.97 10.2635
3256.90 9.30951
3258.14 9.10158
3259.37 8.90543
3259.99 8.82025
3260.60 8.77854
3260.91 8.82075
3261.22 9.02824
3261.37 9.31771
3261.53 9.97098
3261.60 10.6072
3261.68 11.6784
3261.76 13.5745
3261.84 17.0151
3261.92 23.1441
3262.00 28.0526
3262.08 25.1663
3262.17 19.6168
3262.26 15.2833
3262.36 12.9774
3262.46 11.6664
3262.55 10.8775
3262.74 10.0012
3262.94 9.54702
3263.32 9.08630
3263.71 8.85006
3264.48 8.58618
3265.25 8.41920
3266.79 8.17578
3268.33 7.97808
3274.50 7.32457
3277.58 7.02578
3280.67 6.71655
3282.21 6.54405
3282.98 6.44817
3283.75 6.34275
3284.52 6.22663
3284.91 6.16803
3285.29 6.12004
3285.68 6.11763
3285.87 6.16868
3286.06 6.31037
3286.26 6.67151
3286.35 7.03049
3286.45 7.63231
3286.54 8.70416
3286.64 10.6944
3286.74 14.7063
3286.83 23.2368
3286.87 29.3178
3286.92 36.7598
3287.00 48.6544
3287.08 43.6842
3287.17 31.8876
3287.25 23.9818
3287.32 19.0150
3287.40 15.8752
3287.48 13.8060
3287.63 11.3548
3287.78 10.0096
3287.94 9.18382
3288.09 8.63383
3288.40 7.95721
3288.71 7.55724
3289.02 7.29310
3289.63 6.96063
3290.25 6.75162
3290.86 6.60156
3292.09 6.38467
3294.55 6.07996
3297.01 5.83246
3301.94 5.37046
3306.86 4.87720
3311.78 4.28364
3314.24 3.91830
3316.71 3.48101
3319.17 2.94909
3320.40 2.65332
3321.63 2.37913
3322.86 2.28717
3323.47 2.48308
3323.78 2.72620
3324.09 3.13854
3324.40 3.82608
3324.71 4.97004
3324.86 5.80920
3325.01 6.90913
3325.17 8.36520
3325.32 10.3019
3325.47 12.9507
3325.63 16.6178
3325.78 21.8018
3325.94 29.2507
3326.09 40.3916
3326.24 57.4383
3326.40 84.1442
3326.55 125.787
3326.78 222.194
3327.00 306.450
3327.11 302.735
3327.23 270.156
3327.45 185.741
3327.70 120.283
3327.95 83.2811
3328.20 61.7446
3328.45 48.3980
3328.70 39.5290
3328.95 33.3748
3329.46 25.5251
3329.96 20.8543
3330.46 17.8335
3331.46 14.2541
3332.46 12.3069
3333.47 11.1984
3335.47 10.4753
3337.48 11.6208
3338.48 13.3179
3339.48 16.4464
3340.48 22.2896
3341.49 33.8195
3341.99 43.7861
3342.49 58.7342
3342.99 81.6528
3343.49 116.818
3344.25 198.385
3345.00 266.412
3345.76 231.028
3346.51 157.492
3347.16 112.053
3347.80 82.9486
3348.45 64.2300
3349.09 51.7424
3350.38 36.7916
3351.67 28.5103
3352.96 23.3607
3354.25 19.8335
3354.89 18.4128
3355.54 17.1280
3355.86 16.5427
3356.18 16.1078
3356.34 16.0977
3356.51 16.5713
3356.59 17.2703
3356.67 18.6518
3356.75 21.4730
3356.83 27.1087
3356.91 38.4939
3357.00 50.0546
3357.09 48.1419
3357.17 39.1931
3357.26 31.9396
3357.35 27.3830
3357.44 24.4988
3357.53 22.5941
3357.71 20.2449
3357.88 18.8679
3358.06 17.9521
3358.24 17.2860
3358.59 16.3479
3359.30 15.1625
3360.01 14.3539
3360.72 13.7164
3361.42 13.1893
3361.78 12.9732
3362.13 12.8458
3362.31 12.8836
3362.49 13.1417
3362.58 13.4804
3362.66 14.1389
3362.75 15.5080
3362.84 18.3811
3362.92 23.1055
3363.00 27.1910
3363.08 25.3680
3363.16 21.2212
3363.24 18.0719
3363.33 16.2310
3363.41 15.1235
3363.50 14.4184
3363.67 13.5739
3363.84 13.0956
3364.18 12.5482
3364.51 12.2176
3365.19 11.7758
3365.87 11.4505
3368.58 10.5249
3374.00 9.31246
3376.70 8.84281
3379.41 8.40137
3380.77 8.17300
3381.45 8.05216
3382.12 7.92525
3382.80 7.79646
3383.14 7.73996
3383.48 7.70764
3383.82 7.75263
3383.99 7.85304
3384.15 8.07996
3384.32 8.59589
3384.41 9.08023
3384.49 9.84715
3384.58 11.1451
3384.66 13.4048
3384.75 17.6754
3384.83 25.8171
3384.92 40.0164
3385.00 52.1553
3385.09 46.6940
3385.17 34.3699
3385.22 28.3204
3385.28 23.8975
3385.38 18.4092
3385.49 15.3304
3385.59 13.4895
3385.70 12.2814
3385.80 11.4562
3386.01 10.4050
3386.22 9.77607
3386.44 9.36019
3386.86 8.84177
3387.28 8.52448
3387.70 8.30250
3388.55 7.99235
3390.23 7.56923
3391.92 7.21238
3393.61 6.84470
3394.45 6.65072
3395.30 6.46657
3396.14 6.36817
3396.56 6.43495
3396.99 6.72394
3397.41 7.57948
3397.62 8.49761
3397.83 10.1127
3398.04 13.0966
3398.25 19.0149
3398.36 24.1749
3398.46 31.8775
3398.57 43.8318
3398.67 62.0493
3398.84 106.688
3399.00 146.139
3399.16 130.347
3399.33 91.9615
3399.47 67.5317
3399.60 51.6869
3399.74 41.2660
3399.88 34.2843
3400.16 25.7898
3400.44 21.0379
3400.71 18.0921
3400.99 16.1220
3401.54 13.6947
3402.10 12.2791
3402.65 11.3599
3403.76 10.2415
3404.87 9.58320
3405.98 9.14437
3408.19 8.58213
3410.41 8.22176
3412.62 7.95915
3417.05 7.57477
3421.48 7.27432
3423.70 7.13399
3425.92 6.98987
3428.13 6.83016
3429.24 6.73875
3430.35 6.63568
3431.45 6.52088
3432.01 6.46525
3432.56 6.42791
3433.12 6.46327
3433.39 6.56203
3433.67 6.80229
3433.95 7.38273
3434.09 7.95874
3434.22 8.91997
3434.36 10.6395
3434.50 13.8978
3434.64 20.6758
3434.71 26.7237
3434.78 35.7780
3434.83 45.9564
3434.89 58.3256
3435.00 77.4432
3435.11 68.4081
3435.22 48.6332
3435.35 32.8591
3435.48 24.2131
3435.61 19.2931
3435.74 16.2811
3435.87 14.3099
3436.00 12.9471
3436.26 11.2293
3436.52 10.2074
3436.78 9.54529
3437.30 8.74548
3437.82 8.28483
3438.34 7.98692
3439.38 7.62060
3440.42 7.39836
3441.45 7.24399
3443.53 7.02954
3445.61 6.86988
3447.68 6.72489
3448.72 6.64865
3449.76 6.56940
3450.28 6.54047
3450.80 6.57194
3451.06 6.68368
3451.19 6.81271
3451.32 7.04843
3451.45 7.51097
3451.58 8.49771
3451.64 9.41466
3451.71 10.8903
3451.77 13.3500
3451.84 17.4175
3451.92 25.8352
3452.00 32.9586
3452.08 29.5888
3452.16 22.2337
3452.22 18.3034
3452.28 15.5901
3452.33 13.6941
3452.39 12.3452
3452.50 10.6237
3452.61 9.61464
3452.72 8.97212
3452.84 8.53559
3453.06 7.99134
3453.51 7.46357
3453.96 7.21033
3454.85 6.96118
3455.75 6.83152
3457.54 6.68226
3459.33 6.58495
3462.92 6.43984
3466.50 6.31720
3470.09 6.19811
3473.67 6.06890
3475.46 5.99336
3477.25 5.90219
3478.15 5.84808
3479.05 5.79489
3479.49 5.78690
3479.94 5.85743
3480.17 6.00451
3480.39 6.42443
3480.50 6.91482
3480.61 7.89204
3480.67 8.74796
3480.73 10.0543
3480.78 12.0972
3480.84 15.3036
3480.92 22.5599
3481.00 28.7407
3481.08 25.7653
3481.16 19.3024
3481.22 16.0726
3481.27 13.7962
3481.37 10.9971
3481.48 9.47062
3481.58 8.56049
3481.79 7.57342
3482.00 7.06946
3482.41 6.57403
3482.83 6.33190
3483.66 6.08046
3484.49 5.93222
3485.33 5.81857
3485.74 5.77184
3486.16 5.74070
3486.58 5.75709
3486.78 5.81450
3486.99 5.95489
3487.20 6.29013
3487.30 6.61686
3487.41 7.15904
3487.51 8.10578
3487.62 9.87337
3487.72 13.4475
3487.82 21.1099
3487.91 32.9557
3488.00 42.9611
3488.09 38.1992
3488.18 27.8288
3488.25 21.4844
3488.32 17.3294
3488.40 14.6094
3488.47 12.7918
3488.61 10.5653
3488.76 9.31860
3488.90 8.54215
3489.05 8.02782
3489.34 7.39495
3489.63 7.02500
3489.92 6.78522
3490.50 6.49048
3491.08 6.31322
3491.66 6.19114
3492.82 6.02427
3495.15 5.80343
3497.47 5.61814
3499.80 5.41562
3500.96 5.29558
3502.12 5.15663
3502.70 5.07986
3503.28 5.00127
3503.86 4.93026
3504.44 4.89641
3505.02 4.99983
3505.31 5.20121
3505.60 5.65785
3505.89 6.72751
3506.04 7.76407
3506.18 9.48917
3506.33 12.5234
3506.47 18.2611
3506.55 23.1024
3506.62 30.1040
3506.69 40.6958
3506.76 56.2606
3506.82 73.8433
3506.88 95.1679
3507.00 128.267
3507.06 126.104
3507.12 112.330
3507.24 77.7029
3507.37 50.7198
3507.51 35.8950
3507.64 27.3305
3507.77 22.1029
3507.91 18.6465
3508.04 16.2713
3508.31 13.2616
3508.58 11.4720
3508.85 10.3101
3509.39 8.91508
3509.92 8.11317
3510.46 7.59442
3511.54 6.95086
3512.61 6.54702
3513.69 6.24816
3514.22 6.13125
3514.49 6.09221
3514.76 6.08753
3515.03 6.17250
3515.16 6.29568
3515.30 6.53982
3515.43 7.04200
3515.57 8.13830
3515.63 9.17328
3515.70 10.8571
3515.77 13.6976
3515.84 18.5534
3515.92 28.3928
3516.00 36.7873
3516.08 32.9132
3516.17 24.3320
3516.25 18.1764
3516.33 14.5390
3516.41 12.2975
3516.50 10.8765
3516.66 9.22012
3516.83 8.32712
3516.99 7.78207
3517.16 7.41845
3517.49 6.96469
3518.15 6.50100
3518.81 6.24629
3520.13 5.92480
3521.45 5.68018
3522.77 5.45715
3523.43 5.36053
3524.09 5.30622
3524.75 5.39841
3525.08 5.60139
3525.41 6.07253
3525.74 7.17876
3525.90 8.25392
3526.07 10.0404
3526.23 13.1710
3526.40 19.0518
3526.48 23.9738
3526.56 31.0551
3526.64 41.5038
3526.72 56.8898
3526.86 96.2888
3527.00 130.058
3527.14 114.341
3527.28 79.4585
3527.37 61.9909
3527.46 49.5562
3527.63 34.2081
3527.81 25.8705
3527.99 20.9165
3528.17 17.7377
3528.35 15.5694
3528.71 12.8679
3529.07 11.2805
3529.42 10.2578
3530.14 9.03067
3530.85 8.32901
3531.57 7.87814
3532.28 7.56357
3533.00 7.33100
3534.43 7.00775
3535.86 6.79115
3538.72 6.51109
3541.58 6.33016
3544.44 6.19784
3550.16 6.00556
3561.61 5.74050
3573.05 5.52932
3584.49 5.32352
3595.94 5.08244
3601.66 4.92367
3604.52 4.82431
3607.38 4.70268
3610.24 4.54542
3611.67 4.44631
3613.10 4.32755
3614.53 4.18325
3615.25 4.10115
3615.96 4.01667
3616.68 3.94873
3617.04 3.94204
3617.39 3.99082
3617.75 4.18899
3617.93 4.42494
3618.11 4.86642
3618.29 5.75766
3618.47 7.75912
3618.56 9.74462
3618.64 13.1109
3618.73 19.2185
3618.78 24.1250
3618.82 30.6741
3618.87 39.4889
3618.91 49.7603
3619.00 64.9715
3619.09 55.6798
3619.18 38.0451
3619.25 27.8225
3619.32 21.2621
3619.39 16.9207
3619.46 14.0373
3619.61 10.5322
3619.75 8.58830
3619.89 7.39294
3620.04 6.59847
3620.32 5.62666
3620.61 5.05919
3620.89 4.69585
3621.46 4.31918
3622.04 4.40795
3622.32 4.79568
3622.61 5.71419
3622.89 7.85612
3623.04 9.91038
3623.18 13.2516
3623.32 19.0476
3623.39 23.5682
3623.46 29.7202
3623.54 38.5036
3623.61 50.9238
3623.68 68.9219
3623.75 94.9177
3623.88 164.519
3624.00 223.441
3624.06 219.754
3624.13 195.242
3624.25 133.997
3624.33 104.186
3624.41 82.5212
3624.57 55.7618
3624.72 40.9298
3624.88 32.1000
3625.04 26.3667
3625.20 22.4678
3625.51 17.5802
3625.83 14.7022
3626.14 12.8439
3626.77 10.6259
3627.40 9.36334
3628.03 8.55772
3628.66 7.99968
3629.29 7.59194
3630.55 7.03439
3631.81 6.67005
3633.06 6.41173
3634.32 6.21764
3636.84 5.94166
3639.36 5.75038
3644.40 5.49004
3649.43 5.30733
3654.47 5.16012
3664.54 4.90703
3674.61 4.65665
3684.68 4.35999
3689.72 4.17203
3694.76 3.93322
3697.27 3.78190
3699.79 3.59364
3701.05 3.47827
3701.68 3.41431
3702.31 3.34913
3702.94 3.29652
3703.25 3.29154
3703.57 3.33108
3703.88 3.49333
3704.04 3.68909
3704.20 4.05757
3704.36 4.80405
3704.51 6.45507
3704.59 8.06523
3704.67 10.7286
3704.75 15.4738
3704.79 19.0849
3704.83 23.9015
3704.87 31.0413
3704.91 39.4740
3705.00 52.3966
3705.04 51.3729
3705.09 45.8024
3705.17 32.0333
3705.26 22.2729
3705.35 16.5450
3705.43 13.0721
3705.52 10.8528
3705.69 8.30378
3705.86 6.94713
3706.04 6.12850
3706.21 5.59640
3706.55 4.95419
3706.90 4.58698
3707.24 4.35460
3707.93 4.08659
3709.31 3.91639
3710.68 4.10239
3712.06 4.93873
3712.75 5.91411
3713.44 7.71802
3714.13 11.2597
3714.47 14.3158
3714.82 18.9241
3715.16 26.1847
3715.51 38.0585
3715.85 58.3580
3716.20 93.6810
3716.60 161.300
3717.00 218.118
3717.40 189.680
3717.81 129.363
3718.16 90.5884
3718.52 66.2066
3718.88 50.7748
3719.24 40.6081
3719.96 28.6007
3720.68 22.0648
3721.39 18.0827
3722.11 15.4622
3723.55 12.2822
3724.98 10.4590
3726.42 9.28901
3727.85 8.47558
3729.29 7.87431
3732.16 7.02522
3735.03 6.40540
3736.46 6.12159
3737.18 5.97728
3737.90 5.83145
3738.62 5.69796
3738.97 5.65612
3739.33 5.67004
3739.69 5.84158
3739.87 6.07523
3740.05 6.53000
3740.23 7.45627
3740.41 9.46411
3740.50 11.3540
3740.59 14.3596
3740.68 19.4063
3740.77 27.7694
3740.83 35.8991
3740.88 45.7315
3741.00 61.6583
3741.12 55.4187
3741.23 40.0574
3741.33 30.0864
3741.44 23.6279
3741.54 19.4420
3741.64 16.6313
3741.84 13.2400
3742.04 11.3540
3742.24 10.1768
3742.44 9.39090
3742.85 8.41319
3743.25 7.83476
3743.65 7.45459
3744.46 6.98017
3745.27 6.68940
3746.07 6.48779
3747.68 6.21447
3749.30 6.02712
3750.91 5.88367
3754.14 5.66626
3760.59 5.36062
3767.04 5.13107
3779.94 4.75349
3783.16 4.66222
3786.39 4.56586
3788.00 4.51295
3789.61 4.45377
3790.42 4.42163
3791.23 4.39480
3791.63 4.39713
3792.03 4.45495
3792.23 4.55792
3792.44 4.82969
3792.54 5.13280
3792.64 5.71066
3792.74 6.91472
3792.79 7.97805
3792.84 9.56564
3792.92 13.4960
3793.00 16.8284
3793.08 15.1897
3793.16 11.6772
3793.23 9.42745
3793.31 8.00991
3793.38 7.11081
3793.45 6.52398
3793.59 5.81738
3793.74 5.43278
3794.02 5.03918
3794.31 4.84672
3794.88 4.65872
3795.46 4.56414
3796.60 4.46025
3797.75 4.39514
3800.04 4.29923
3802.33 4.21778
3811.50 3.90047
3816.09 3.72198
3820.67 3.51664
3822.96 3.39852
3825.25 3.26455
3826.40 3.18985
3827.55 3.11398
3828.12 3.08713
3828.69 3.11125
3828.98 3.19982
3829.27 3.48673
3829.41 3.85297
3829.55 4.63919
3829.62 5.38933
3829.70 6.60544
3829.77 8.72735
3829.84 12.3952
3829.92 19.1758
3830.00 24.6966
3830.08 21.5829
3830.16 15.3984
3830.21 12.4527
3830.26 10.3651
3830.36 7.77520
3830.46 6.34082
3830.56 5.49325
3830.77 4.56969
3830.97 4.10171
3831.37 3.64229
3831.77 3.41732
3832.57 3.18366
3833.37 3.04726
3834.98 2.85722
3836.58 2.70010
3839.79 2.40360
3843.00 2.12286
3846.21 1.96146
3847.81 2.05228
3849.41 2.48055
3850.22 2.96214
3851.02 3.78410
3851.82 5.20145
3852.62 7.71977
3853.43 12.4292
3853.83 16.3061
3854.23 21.9278
3854.63 30.2984
3855.03 43.1124
3855.43 63.1913
3855.83 94.7548
3856.42 167.235
3857.00 230.207
3857.59 203.098
3858.17 141.642
3858.54 113.577
3858.91 98.0367
3859.09 96.4192
3859.28 101.555
3859.46 118.845
3859.65 159.664
3859.83 230.536
3860.00 288.012
3860.18 250.365
3860.35 179.295
3860.50 134.443
3860.66 105.651
3860.81 86.7476
3860.96 73.7706
3861.27 57.3881
3861.57 47.5990
3861.87 41.0212
3862.18 36.2844
3862.79 29.8047
3863.40 25.5281
3864.01 22.4655
3865.22 18.3465
3866.44 15.6897
3867.66 13.8342
3870.09 11.4051
3872.53 9.87141
3874.96 8.78903
3876.18 8.34572
3877.40 7.94988
3878.01 7.78071
3878.62 7.69046
3878.92 7.75823
3879.07 7.87663
3879.23 8.12208
3879.38 8.63644
3879.53 9.79871
3879.61 10.9271
3879.68 12.8168
3879.76 16.1314
3879.83 22.0699
3879.92 32.8601
3880.00 41.6039
3880.08 36.7710
3880.17 27.1012
3880.27 19.4010
3880.36 15.2880
3880.46 12.9452
3880.56 11.5326
3880.66 10.5994
3880.76 9.95932
3880.95 9.14087
3881.15 8.64217
3881.35 8.30708
3881.74 7.87752
3882.53 7.39581
3883.32 7.08905
3884.89 6.63119
3886.46 6.23261
3888.04 5.83596
3888.82 5.63792
3889.61 5.46379
3890.40 5.40728
3890.79 5.52464
3891.19 5.91437
3891.58 7.00916
3891.78 8.18210
3891.97 10.2640
3892.17 14.2535
3892.27 17.6041
3892.37 22.5864
3892.46 30.3609
3892.56 42.7267
3892.66 63.3044
3892.76 98.0061
3892.88 166.868
3893.00 224.408
3893.12 194.699
3893.24 132.769
3893.35 93.4612
3893.46 68.8919
3893.56 53.2592
3893.67 42.9198
3893.88 30.6246
3894.09 23.9469
3894.31 19.8642
3894.52 17.1875
3894.94 13.9367
3895.37 12.0774
3895.79 10.8885
3896.64 9.46689
3897.49 8.64330
3898.34 8.10111
3900.04 7.41064
3901.74 6.96451
3903.44 6.62466
3904.29 6.47194
3905.14 6.32547
3905.56 6.26289
3905.99 6.24854
3906.20 6.31459
3906.41 6.56370
3906.52 6.87753
3906.62 7.51715
3906.73 8.93297
3906.78 10.2541
3906.84 12.2995
3906.92 17.3043
3907.00 21.8278
3907.08 20.1472
3907.16 15.8412
3907.22 13.5442
3907.28 11.9006
3907.39 9.91516
3907.50 8.82908
3907.61 8.18647
3907.83 7.47778
3908.06 7.10782
3908.50 6.72515
3908.95 6.52326
3909.84 6.29284
3910.73 6.14644
3912.51 5.93684
3914.29 5.77023
3917.86 5.48023
3921.42 5.19884
3924.98 4.88584
3926.77 4.70292
3928.55 4.49392
3929.44 4.37971
3930.33 4.26387
3931.22 4.16119
3932.11 4.11800
3933.00 4.29258
3933.45 4.61764
3933.89 5.35316
3934.34 7.08571
3934.56 8.78999
3934.78 11.6515
3935.01 16.8097
3935.12 20.9343
3935.23 26.8167
3935.34 35.5324
3935.45 48.5765
3935.56 68.7012
3935.67 99.8280
3935.84 170.830
3936.00 229.520
3936.16 198.705
3936.33 135.231
3936.46 98.5708
3936.58 74.1842
3936.71 57.9979
3936.84 46.9491
3937.10 33.4513
3937.35 25.8993
3937.61 21.2088
3937.86 18.0917
3938.37 14.3004
3938.89 12.1244
3939.40 10.7410
3939.91 9.78975
3940.42 9.10161
3941.44 8.17390
3942.47 7.57919
3943.49 7.16463
3944.51 6.85798
3946.56 6.42921
3948.60 6.13827
3952.69 5.75226
3956.78 5.49088
3960.88 5.28881
3969.06 4.96611
3977.24 4.68302
3985.42 4.38873
3989.51 4.21643
3991.56 4.11605
3993.60 3.99924
3995.65 3.85513
3996.67 3.76704
3997.70 3.66410
3998.72 3.54601
3999.23 3.48754
3999.74 3.44727
4000.25 3.48150
4000.51 3.58239
4000.76 3.82806
4001.02 4.42350
4001.15 5.01031
4001.28 5.98307
4001.40 7.70881
4001.53 10.9684
4001.60 13.6862
4001.66 17.6539
4001.72 23.5351
4001.79 32.0709
4001.84 42.1388
4001.89 54.1662
4002.00 73.2803
4002.05 72.2769
4002.11 64.7377
4002.21 45.2901
4002.30 33.4260
4002.39 25.6251
4002.48 20.5026
4002.57 17.0649
4002.74 12.8515
4002.92 10.4879
4003.09 9.02240
4003.27 8.04346
4003.62 6.84017
4003.97 6.13916
4004.32 5.68654
4005.02 5.13568
4005.72 4.80885
4006.42 4.58794
4007.82 4.29342
4009.22 4.08894
4010.62 3.92339
4013.42 3.63393
4016.22 3.34993
4017.62 3.20770
4019.02 3.08516
4020.43 3.06047
4021.13 3.16972
4021.83 3.50823
4022.53 4.44600
4022.88 5.45338
4023.23 7.27209
4023.58 10.8124
4023.75 13.8690
4023.93 18.5253
4024.10 25.9364
4024.28 38.3496
4024.45 60.2587
4024.63 99.9641
4024.81 169.842
4025.00 226.044
4025.19 193.334
4025.37 129.789
4025.55 87.0641
4025.73 61.6126
4025.91 46.0951
4026.09 36.1537
4026.27 29.4238
4026.45 24.7139
4026.81 18.6694
4027.17 15.0501
4027.52 12.7031
4028.24 9.89130
4028.96 8.29370
4029.67 7.27431
4031.11 6.04010
4032.54 5.29863
4033.97 4.77590
4034.69 4.56118
4035.41 4.37918
4035.76 4.31742
4036.12 4.33023
4036.30 4.42483
4036.48 4.70641
4036.57 5.02133
4036.66 5.59530
4036.75 6.73388
4036.84 9.03332
4036.92 12.6897
4037.00 15.7114
4037.08 14.0577
4037.16 10.7139
4037.25 8.34465
4037.33 6.95783
4037.41 6.12486
4037.49 5.59318
4037.66 4.97549
4037.83 4.63613
4038.16 4.26508
4038.49 4.05373
4039.15 3.78171
4039.81 3.57883
4041.14 3.22734
4042.46 2.89018
4043.79 2.56710
4044.45 2.43774
4045.11 2.38487
4045.78 2.54904
4046.11 2.83488
4046.44 3.43933
4046.60 3.96779
4046.77 4.76328
4046.94 6.00190
4047.10 8.00959
4047.18 9.51017
4047.27 11.5293
4047.35 14.3113
4047.43 18.1938
4047.52 23.9153
4047.60 32.5303
4047.68 45.8557
4047.76 66.2729
4047.88 111.838
4048.00 149.186
4048.06 146.041
4048.12 129.841
4048.24 90.4174
4048.32 70.8454
4048.39 57.5030
4048.55 42.5819
4048.71 36.5232
4048.86 35.6082
4049.02 38.6634
4049.18 45.8823
4049.33 58.6354
4049.49 78.9026
4049.75 132.026
4050.00 178.861
4050.26 158.054
4050.51 110.173
4050.68 85.5961
4050.85 67.8993
4051.19 46.1757
4051.53 34.3137
4051.86 27.2238
4052.20 22.6131
4052.54 19.4354
4053.21 15.4125
4053.89 13.0037
4054.56 11.4203
4055.91 9.47704
4057.27 8.33271
4058.62 7.57718
4061.32 6.63115
4064.02 6.04901
4066.72 5.64289
4072.12 5.08371
4077.53 4.68028
4082.93 4.33492
4085.63 4.16588
4086.98 4.08110
4088.33 4.00010
4089.68 3.94026
4090.36 3.93841
4091.03 3.99226
4091.71 4.19898
4092.05 4.44692
4092.38 4.92243
4092.72 5.91668
4092.89 6.82801
4093.06 8.28415
4093.23 10.7866
4093.40 15.4155
4093.57 24.8226
4093.65 33.0448
4093.73 45.2061
4093.87 74.1251
4094.00 96.6008
4094.13 81.9715
4094.27 55.2746
4094.35 42.4849
4094.44 33.4237
4094.61 22.5021
4094.78 16.6864
4094.96 13.2894
4095.13 11.1426
4095.30 9.69804
4095.64 7.92500
4095.99 6.90741
4096.33 6.26056
4097.02 5.49872
4097.71 5.06759
4098.39 4.79010
4099.77 4.44592
4101.14 4.23076
4102.52 4.07474
4105.27 3.84372
4110.77 3.50163
4116.27 3.21097
4121.77 2.95721
4124.52 2.87038
4127.27 2.86936
4130.02 3.12082
4131.40 3.49922
4132.77 4.30177
4134.15 6.13008
4134.84 7.92497
4135.53 10.9968
4136.21 16.7258
4136.56 21.5395
4136.90 28.7208
4137.24 39.9948
4137.59 58.6004
4137.93 90.9879
4138.28 148.621
4138.64 246.470
4139.00 319.916
4139.36 266.484
4139.73 173.975
4139.98 126.396
4140.24 94.3177
4140.50 72.6483
4140.76 57.6708
4141.27 39.2007
4141.79 28.8002
4142.31 22.3938
4142.82 18.1643
4143.85 13.0730
4144.89 10.2066
4145.92 8.40712
4147.98 6.30650
4150.05 5.12567
4152.11 4.36409
4156.24 3.43079
4160.37 2.93221
4164.49 2.88603
4166.56 3.20359
4168.62 4.11064
4169.65 5.10889
4170.17 5.92588
4170.69 7.16835
4171.20 9.27624
4171.46 10.9887
4171.72 13.5791
4171.98 17.8722
4172.23 25.9744
4172.36 33.1051
4172.49 44.4225
4172.62 63.4881
4172.75 96.4293
4172.88 143.047
4173.00 166.870
4173.13 125.777
4173.25 75.0459
4173.32 56.2862
4173.39 42.9903
4173.45 33.6199
4173.52 27.0341
4173.66 18.6803
4173.79 14.0256
4174.06 9.63151
4174.33 8.00449
4174.60 7.48142
4174.87 7.49552
4175.41 8.33588
4176.49 11.8846
4177.58 17.9887
4178.66 28.3445
4179.74 46.7923
4180.82 81.7908
4181.36 110.554
4181.90 150.802
4182.95 267.914
4184.00 370.514
4185.06 326.847
4186.11 224.352
4187.07 156.314
4188.03 113.592
4188.99 86.5379
4189.95 68.7217
4191.87 47.6132
4193.79 36.0512
4195.72 28.9763
4197.64 24.2851
4201.48 18.5466
4205.32 15.2152
4209.16 13.0490
4213.00 11.5166
4214.93 10.8927
4215.89 10.6061
4216.37 10.5105
4216.61 10.5974
4216.73 10.8362
4216.85 11.5832
4216.92 12.6419
4217.00 13.6363
4217.08 13.3331
4217.16 12.4353
4217.27 11.5426
4217.38 11.0844
4217.60 10.6594
4218.04 10.3258
4218.92 10.0079
4220.69 9.57377
4224.22 8.88153
4231.29 7.79760
4238.36 6.92076
4245.43 6.12405
4252.50 5.30622
4256.03 4.85406
4259.56 4.35026
4263.10 3.78262
4264.86 3.48267
4266.63 3.20080
4268.40 3.02521
4269.28 3.05910
4270.17 3.30020
4271.05 4.03274
4271.49 4.81361
4271.93 6.19261
4272.37 8.84658
4272.60 11.1498
4272.82 14.7330
4273.04 20.7011
4273.26 31.5917
4273.37 40.6680
4273.48 53.9206
4273.59 73.9248
4273.70 104.127
4273.85 163.268
4274.00 199.873
4274.15 156.973
4274.30 96.9331
4274.42 64.7021
4274.54 44.9946
4274.67 32.7377
4274.79 24.8744
4274.91 19.6656
4275.03 16.1269
4275.27 12.0013
4275.51 10.1245
4275.76 9.59126
4276.00 10.0372
4276.24 11.3802
4276.48 13.7253
4276.72 17.3101
4276.97 22.6016
4277.21 30.3574
4277.45 41.8626
4277.69 59.0053
4277.94 84.9146
4278.18 123.941
4278.59 229.214
4279.00 328.378
4279.21 329.997
4279.41 298.877
4279.82 211.164
4280.31 137.326
4280.79 95.7887
4281.28 71.6945
4281.76 56.7015
4282.24 46.7473
4282.73 39.7766
4283.70 30.8227
4284.66 25.4200
4285.63 21.8536
4287.57 17.4868
4289.50 14.9382
4291.44 13.2743
4295.31 11.2301
4299.18 10.0098
4303.05 9.18614
4310.80 8.11045
4318.54 7.39654
4326.28 6.83910
4330.15 6.58069
4334.03 6.30889
4335.96 6.15355
4336.93 6.06594
4337.90 5.96900
4338.87 5.86396
4339.35 5.81414
4339.83 5.78075
4340.32 5.80805
4340.56 5.88679
4340.80 6.07523
4341.04 6.51759
4341.16 6.94201
4341.29 7.63488
4341.41 8.81695
4341.53 10.9499
4341.65 15.0495
4341.77 23.1548
4341.83 29.3517
4341.88 36.9497
4342.00 49.1367
4342.12 44.0951
4342.23 32.0729
4342.37 22.4130
4342.50 17.0677
4342.64 14.0027
4342.77 12.1249
4342.91 10.8775
4343.04 10.0158
4343.31 8.91180
4343.58 8.24817
4343.85 7.81328
4344.39 7.27941
4344.93 6.96303
4345.46 6.75178
4346.54 6.47850
4347.62 6.29941
4348.69 6.16481
4350.85 5.95793
4355.15 5.63276
4359.46 5.32538
4363.77 4.97808
4365.92 4.76929
4368.07 4.51937
4370.23 4.20693
4371.31 4.02160
4372.38 3.82485
4373.46 3.66885
4374.00 3.67180
4374.54 3.85183
4375.07 4.52790
4375.34 5.32661
4375.61 6.83002
4375.88 9.83353
4376.02 12.4629
4376.15 16.4415
4376.29 22.7906
4376.42 33.2128
4376.55 51.3448
4376.69 82.9950
4376.84 143.751
4377.00 195.952
4377.08 192.998
4377.16 171.853
4377.31 118.119
4377.42 90.0263
4377.53 70.3527
4377.63 56.4448
4377.74 46.6309
4377.95 34.0261
4378.16 26.6373
4378.38 21.9357
4378.59 18.7458
4379.02 14.7870
4379.44 12.4675
4379.87 10.9693
4380.72 9.17052
4381.57 8.13169
4382.42 7.45351
4384.12 6.60246
4385.83 6.06467
4387.53 5.66795
4390.94 5.04673
4394.34 4.47480
4396.05 4.16785
4397.75 3.83643
4399.45 3.50757
4400.30 3.39353
4401.15 3.41907
4402.01 3.87902
4402.43 4.54082
4402.86 5.89186
4403.07 7.05616
4403.28 8.78760
4403.50 11.4312
4403.71 15.6075
4403.92 22.4951
4404.14 34.4575
4404.35 56.4105
4404.45 73.8274
4404.56 97.6846
4404.78 170.926
4405.00 234.599
4405.22 206.544
4405.44 142.195
4405.68 93.5511
4405.92 65.7050
4406.15 49.2145
4406.39 38.9150
4406.63 32.0306
4406.87 27.2339
4407.34 21.0836
4407.82 17.4030
4408.29 14.9947
4409.24 12.0816
4410.19 10.4004
4411.14 9.31257
4413.04 7.97930
4414.94 7.17729
4416.84 6.62399
4420.63 5.86233
4424.43 5.30181
4428.23 4.80878
4430.13 4.56239
4432.03 4.30161
4432.98 4.16216
4433.93 4.02462
4434.40 3.97762
4434.88 4.02136
4435.12 4.17222
4435.35 4.63394
4435.47 5.18585
4435.59 6.27909
4435.65 7.25249
4435.71 8.71090
4435.77 10.9759
4435.83 14.5015
4435.91 22.6011
4436.00 29.4986
4436.09 26.1858
4436.17 18.9664
4436.26 14.0988
4436.34 11.1352
4436.42 9.26446
4436.50 8.05866
4436.66 6.63160
4436.83 5.85567
4437.15 5.05323
4437.48 4.64669
4438.13 4.22102
4438.78 3.97677
4440.08 3.65012
4441.38 3.39335
4443.98 2.93289
4446.58 2.51940
4449.18 2.30706
4450.48 2.46669
4451.78 3.13421
4452.43 3.86540
4453.08 5.09641
4453.73 7.19341
4454.38 10.8720
4455.03 17.6453
4455.36 23.1442
4455.68 31.0182
4456.01 42.5612
4456.33 59.8907
4456.66 86.4041
4456.98 126.994
4457.49 226.769
4458.00 315.629
4458.51 280.352
4459.02 193.925
4459.56 129.204
4460.09 91.1518
4460.63 68.3231
4461.16 53.8358
4461.70 44.0701
4462.23 37.1885
4463.31 28.2969
4464.38 23.0143
4464.91 21.2459
4465.45 20.0526
4465.98 19.7067
4466.25 20.1179
4466.52 21.2796
4466.79 23.8714
4467.05 29.4614
4467.32 42.0805
4467.46 53.8934
4467.59 71.9837
4467.80 115.751
4468.00 153.503
4468.21 136.219
4468.41 97.4226
4468.61 70.6005
4468.81 54.1199
4469.00 43.8519
4469.20 37.1298
4469.59 29.1561
4469.99 24.7120
4470.38 21.9103
4470.78 19.9809
4471.56 17.4697
4472.35 15.8712
4473.14 14.7366
4474.71 13.1845
4476.29 12.1344
4477.87 11.3570
4481.02 10.2540
4484.17 9.48966
4487.32 8.91699
4493.62 8.09129
4499.92 7.49208
4506.23 6.99218
4509.38 6.74776
4512.53 6.48015
4514.10 6.32307
4515.68 6.13317
4516.47 6.02033
4517.25 5.90964
4517.65 5.89253
4517.85 5.92531
4518.04 6.03173
4518.24 6.31602
4518.34 6.60753
4518.44 7.09677
4518.54 7.97406
4518.63 9.61318
4518.73 12.9371
4518.83 20.0538
4518.87 25.1712
4518.92 31.4558
4519.00 41.4119
4519.09 37.2194
4519.17 27.4004
4519.25 21.0175
4519.32 16.9259
4519.40 14.2946
4519.47 12.5376
4519.62 10.4287
4519.77 9.26188
4519.92 8.53252
4520.07 8.04268
4520.37 7.43260
4520.97 6.81544
4521.57 6.48472
4522.77 6.07273
4523.96 5.74657
4525.16 5.41310
4525.76 5.23727
4526.36 5.07466
4526.96 5.00955
4527.26 5.10514
4527.56 5.44074
4527.86 6.38325
4528.01 7.37270
4528.16 9.07397
4528.31 12.1839
4528.38 14.6831
4528.46 18.1749
4528.53 23.2963
4528.61 30.8862
4528.68 42.3196
4528.75 59.2454
4528.82 79.0175
4528.88 102.953
4529.00 142.196
4529.06 141.311
4529.12 127.269
4529.25 89.6478
4529.33 70.4556
4529.41 56.6615
4529.56 39.4943
4529.72 29.9669
4529.88 24.2768
4530.04 20.5666
4530.20 18.0313
4530.51 14.8228
4530.83 12.9218
4531.15 11.6821
4531.78 10.1807
4532.42 9.31208
4533.05 8.74710
4533.68 8.34934
4534.32 8.05285
4535.59 7.63636
4536.85 7.35280
4539.39 6.97793
4541.93 6.72735
4544.46 6.53716
4549.53 6.24391
4554.61 6.00110
4559.68 5.76448
4562.21 5.63165
4563.48 5.55541
4564.75 5.46748
4566.02 5.36119
4567.28 5.23175
4567.92 5.17243
4568.24 5.16252
4568.55 5.19827
4568.87 5.36490
4569.03 5.57295
4569.19 5.97070
4569.35 6.78456
4569.50 8.59123
4569.58 10.3348
4569.66 13.2394
4569.74 18.2948
4569.82 27.2687
4569.91 44.4425
4570.00 59.1018
4570.09 52.4228
4570.18 37.4835
4570.25 28.8712
4570.32 23.0941
4570.39 19.1732
4570.45 16.4478
4570.59 13.0333
4570.73 11.0942
4570.86 9.86882
4571.00 9.05077
4571.27 8.03607
4571.55 7.44538
4571.82 7.06363
4572.36 6.60356
4572.91 6.33531
4573.46 6.15858
4574.55 5.93398
4575.64 5.79086
4576.73 5.68623
4578.91 5.53164
4583.28 5.30659
4587.64 5.11644
4596.37 4.74269
4605.10 4.31406
4613.83 3.75915
4618.19 3.40150
4622.55 2.96656
4626.92 2.45144
4629.10 2.19391
4631.28 2.02242
4633.46 2.20888
4634.56 2.70159
4635.10 3.16901
4635.65 3.88297
4636.19 4.98111
4636.74 6.68707
4637.28 9.41120
4637.83 13.8980
4638.37 21.6741
4638.92 35.9423
4639.19 47.5586
4639.47 64.1397
4639.74 88.0839
4640.01 122.383
4640.51 216.966
4641.00 299.896
4641.50 264.623
4641.99 181.904
4642.46 124.976
4642.93 89.9063
4643.40 68.0831
4643.87 53.8892
4644.82 37.2335
4645.76 28.2768
4646.70 23.0997
4647.64 20.7303
4648.11 21.1372
4648.58 24.1672
4648.82 27.9206
4649.05 34.8704
4649.29 48.1432
4649.52 73.8945
4649.76 119.428
4650.00 158.806
4650.24 140.939
4650.48 100.497
4650.72 71.5698
4650.96 54.1617
4651.20 43.4046
4651.43 36.4475
4651.91 28.2204
4652.39 23.6534
4652.86 20.7647
4653.34 18.7762
4654.29 16.1804
4655.25 14.5276
4656.20 13.3604
4658.11 11.7779
4660.01 10.7239
4661.92 9.95491
4665.73 8.87969
4669.54 8.13933
4673.36 7.57748
4680.98 6.71755
4688.61 5.97636
4692.42 5.58364
4696.23 5.13064
4700.05 4.55843
4701.95 4.19891
4703.86 3.77408
4705.77 3.30088
4706.72 3.09545
4707.67 3.02679
4708.63 3.43173
4709.10 4.12503
4709.58 5.61677
4709.82 6.93524
4710.06 8.90912
4710.29 11.9425
4710.53 16.7483
4710.77 24.7072
4711.01 38.4043
4711.25 63.2422
4711.49 109.448
4711.74 195.342
4712.00 271.968
4712.26 242.227
4712.52 168.437
4712.80 110.539
4713.09 77.4682
4713.37 58.0877
4713.66 46.0265
4713.95 38.1857
4714.23 33.2476
4714.37 31.9045
4714.52 31.7953
4714.66 34.2975
4714.73 37.6602
4714.80 43.5336
4714.90 57.2806
4715.00 69.1735
4715.10 62.9573
4715.20 49.6056
4715.31 38.7689
4715.42 32.5036
4715.53 28.6457
4715.65 26.0644
4715.87 22.7866
4716.09 20.7169
4716.54 18.0806
4716.99 16.3700
4717.89 14.1485
4718.78 12.7227
4719.68 11.7133
4720.58 10.9580
4722.37 9.89464
4724.16 9.17593
4725.96 8.65205
4729.54 7.92479
4733.13 7.42579
4736.71 7.04444
4743.89 6.44568
4751.06 5.90434
4754.65 5.60682
4758.23 5.25555
4761.82 4.80076
4763.61 4.50819
4765.40 4.15228
4766.30 3.94754
4767.20 3.72975
4768.09 3.51735
4768.99 3.37462
4769.89 3.52458
4770.33 3.92704
4770.78 4.89348
4771.01 5.79514
4771.23 7.19130
4771.46 9.41038
4771.68 13.0557
4771.90 19.3169
4772.13 30.6999
4772.24 39.8488
4772.35 52.7721
4772.46 71.2074
4772.58 97.3934
4772.79 172.889
4773.00 239.908
4773.11 238.056
4773.21 213.399
4773.43 148.459
4773.60 107.631
4773.78 80.8164
4773.96 63.2338
4774.14 51.3839
4774.49 36.9175
4774.85 28.7917
4775.20 23.7408
4775.56 20.3563
4776.27 16.1754
4776.98 13.7228
4777.69 12.1200
4779.11 10.1208
4780.53 8.84629
4781.24 8.32530
4781.95 7.83411
4782.66 7.35474
4783.01 7.13057
4783.37 6.95479
4783.72 6.94837
4783.90 7.12399
4784.08 7.59099
4784.26 8.71815
4784.43 11.4716
4784.52 14.2623
4784.61 19.0182
4784.70 27.4304
4784.75 33.8180
4784.79 42.3155
4784.84 55.9319
4784.90 72.9338
4785.00 101.437
4785.05 101.889
4785.11 92.8423
4785.21 67.5521
4785.30 51.0295
4785.39 40.1345
4785.48 32.8223
4785.57 27.8786
4785.74 21.7551
4785.92 18.2813
4786.10 16.0783
4786.27 14.5842
4786.63 12.7123
4786.98 11.5891
4787.33 10.8441
4788.04 9.90601
4788.75 9.33018
4789.45 8.93212
4790.87 8.40071
4792.28 8.04735
4793.70 7.78562
4796.52 7.40591
4799.35 7.12509
4802.18 6.88600
4803.59 6.76639
4805.01 6.63239
4805.71 6.55490
4806.42 6.47757
4806.78 6.46256
4807.13 6.54821
4807.31 6.73042
4807.48 7.23201
4807.57 7.79115
4807.66 8.81907
4807.75 10.8504
4807.84 15.0410
4807.92 22.2011
4808.00 28.6518
4808.08 26.3067
4808.17 20.2667
4808.22 17.0388
4808.28 14.7241
4808.39 11.9044
4808.50 10.3783
4808.61 9.46981
4808.84 8.48104
4809.06 7.97181
4809.51 7.46623
4809.96 7.21660
4810.85 6.96294
4811.75 6.82598
4813.54 6.66311
4815.33 6.55494
4818.92 6.39593
4822.50 6.26904
4829.67 6.04767
4831.46 5.99075
4833.25 5.92726
4834.15 5.89116
4835.05 5.85474
4835.49 5.84548
4835.94 5.87673
4836.17 5.95141
4836.39 6.17209
4836.50 6.43331
4836.61 6.95699
4836.73 8.11902
4836.78 9.21647
4836.84 10.8985
4836.92 14.8229
4837.00 18.2225
4837.08 16.6978
4837.16 13.2387
4837.22 11.3779
4837.28 10.0962
4837.39 8.55898
4837.51 7.74946
4837.62 7.28005
4837.85 6.77377
4838.08 6.51909
4838.54 6.26965
4839.00 6.14824
4839.92 6.02467
4840.83 5.95676
4842.67 5.87160
4844.50 5.80954
4848.17 5.70108
4850.01 5.64231
4850.93 5.62574
4851.39 5.70748
4851.62 5.97278
4851.73 6.40175
4851.84 7.51388
4851.92 9.03161
4852.00 10.3783
4852.08 9.83664
4852.16 8.51836
4852.25 7.46813
4852.33 6.87774
4852.51 6.32391
4852.87 5.95558
4853.57 5.75959
4854.99 5.64926
4857.83 5.55366
4863.50 5.41213
4866.33 5.33899
4869.17 5.25325
4870.58 5.19937
4872.00 5.13059
4872.71 5.08944
4873.42 5.05717
4873.77 5.07210
4874.13 5.19749
4874.31 5.40417
4874.48 5.92986
4874.57 6.49535
4874.66 7.51456
4874.75 9.52673
4874.84 13.5834
4874.92 20.2868
4875.00 26.1770
4875.08 23.7134
4875.16 17.8680
4875.25 13.5189
4875.34 10.9898
4875.42 9.45346
4875.51 8.48912
4875.68 7.37717
4875.85 6.78764
4876.19 6.19514
4876.53 5.90817
4877.21 5.63212
4877.89 5.49680
4879.26 5.35592
4880.62 5.27516
4883.35 5.16864
4886.08 5.08708
4896.99 4.80082
4902.45 4.64715
4907.90 4.46916
4910.63 4.36267
4913.36 4.23268
4914.73 4.15198
4916.09 4.05682
4916.77 4.01120
4917.45 4.01064
4917.79 4.09337
4918.14 4.41714
4918.31 4.86396
4918.48 5.87764
4918.56 6.89030
4918.65 8.59592
4918.73 11.6444
4918.82 17.2342
4918.86 21.8259
4918.91 27.4011
4919.00 35.9753
4919.09 31.8665
4919.18 22.9529
4919.27 17.0202
4919.35 13.3585
4919.43 11.0470
4919.52 9.52584
4919.68 7.72106
4919.85 6.74249
4920.18 5.74579
4920.52 5.25976
4921.18 4.79065
4921.85 4.55896
4923.18 4.31002
4924.51 4.15638
4925.84 4.03260
4927.17 3.91695
4927.84 3.86072
4928.50 3.81799
4928.84 3.82361
4929.17 3.91271
4929.34 4.06028
4929.50 4.42241
4929.59 4.79672
4929.67 5.45783
4929.75 6.69520
4929.84 9.09237
4929.92 13.2392
4930.00 16.7616
4930.08 15.1022
4930.17 11.4734
4930.23 9.44300
4930.29 8.06934
4930.41 6.46626
4930.53 5.62886
4930.65 5.14777
4930.89 4.63171
4931.13 4.36875
4931.61 4.10155
4932.09 3.96055
4933.05 3.79529
4934.02 3.68308
4937.87 3.33465
4941.72 2.98347
4945.57 2.58561
4947.49 2.37206
4949.42 2.16513
4951.34 2.00737
4953.27 2.02063
4954.23 2.18889
4955.19 2.58867
4956.15 3.43238
4957.12 5.17639
4957.60 6.68599
4958.08 8.92856
4958.56 12.3490
4959.04 17.7360
4959.52 26.5922
4960.00 41.8052
4960.48 69.3269
4960.97 120.441
4961.48 214.390
4962.00 297.315
4962.52 263.320
4963.04 181.819
4963.63 116.466
4964.23 80.1074
4964.83 59.1826
4965.43 46.2586
4966.03 37.7494
4966.62 31.9000
4966.92 29.7315
4967.22 28.1718
4967.37 27.8111
4967.52 28.1122
4967.60 28.7775
4967.67 30.0934
4967.74 32.6089
4967.82 37.1081
4967.91 46.3589
4968.00 54.1900
4968.09 49.8610
4968.18 40.8887
4968.28 34.1386
4968.38 30.1371
4968.47 27.6076
4968.57 25.9172
4968.76 23.7326
4968.95 22.3280
4969.34 20.4443
4969.72 19.1107
4970.49 17.1598
4971.26 15.7160
4972.80 13.6450
4974.34 12.2112
4977.43 10.3360
4980.51 9.14783
4983.59 8.30343
4986.67 7.63324
4988.21 7.32224
4989.75 6.99596
4990.52 6.81391
4991.29 6.61965
4991.67 6.54399
4992.06 6.59235
4992.25 6.80318
4992.44 7.45981
4992.54 8.23757
4992.64 9.72392
4992.73 12.7813
4992.83 19.3763
4992.87 24.2571
4992.92 30.3272
4993.00 40.3633
4993.09 37.1065
4993.17 28.0044
4993.23 23.3632
4993.28 19.9814
4993.39 15.6368
4993.49 13.1830
4993.60 11.6919
4993.81 10.0088
4994.03 9.12425
4994.45 8.22175
4994.88 7.76232
4995.73 7.27442
4996.59 6.99251
4998.29 6.62098
5000.00 6.33646
5003.17 5.85034
5004.75 5.58700
5006.33 5.28534
5007.92 4.92207
5008.71 4.71412
5009.50 4.50378
5010.29 4.36313
5010.69 4.40117
5011.08 4.65341
5011.48 5.45883
5011.68 6.33898
5011.88 7.89144
5012.07 10.7448
5012.17 13.0473
5012.27 16.3191
5012.37 21.0634
5012.47 28.0817
5012.57 38.6193
5012.67 54.2216
5012.75 72.9157
5012.83 95.8182
5013.00 133.826
5013.08 133.698
5013.17 120.871
5013.33 85.8465
5013.45 66.9051
5013.56 53.3168
5013.68 43.6940
5013.79 36.8256
5014.02 27.8597
5014.24 22.5481
5014.47 19.1083
5014.70 16.7577
5015.15 13.7842
5015.61 12.0148
5016.06 10.8529
5016.97 9.42787
5017.88 8.58147
5018.79 8.01291
5020.61 7.26360
5022.43 6.73634
5024.25 6.25656
5025.16 5.98783
5026.07 5.68044
5026.52 5.54658
5026.98 5.62796
5027.21 6.05780
5027.32 6.59197
5027.43 7.61860
5027.55 9.76268
5027.60 11.6962
5027.66 14.6722
5027.72 19.6468
5027.77 28.3279
5027.83 44.4391
5027.89 75.2994
5027.94 127.415
5028.00 170.930
5028.06 148.888
5028.11 102.168
5028.15 78.9228
5028.19 62.6343
5028.26 42.4658
5028.33 31.5900
5028.40 25.1657
5028.48 21.0635
5028.55 18.2771
5028.70 14.8162
5028.84 12.8016
5028.99 11.5070
5029.28 9.96532
5029.57 9.09004
5029.86 8.52876
5030.45 7.84890
5031.62 7.17407
5032.78 6.81486
5035.12 6.38697
5037.46 6.08792
5039.79 5.81442
5040.96 5.66708
5042.13 5.49896
5043.30 5.29383
5043.88 5.17141
5044.46 5.03659
5045.05 4.91132
5045.34 4.88261
5045.63 4.93530
5045.92 5.22064
5046.07 5.57970
5046.22 6.26422
5046.36 7.62201
5046.51 10.5177
5046.58 13.1760
5046.65 17.3788
5046.73 24.2045
5046.76 29.0375
5046.80 35.1665
5046.85 46.4294
5046.90 60.0861
5047.00 82.8320
5047.05 82.5806
5047.10 74.7860
5047.20 53.5316
5047.28 41.6022
5047.35 33.2366
5047.42 27.4309
5047.49 23.3229
5047.64 18.1032
5047.79 15.0662
5047.93 13.1143
5048.08 11.7932
5048.37 10.1311
5048.66 9.14907
5048.95 8.50769
5049.53 7.72623
5050.11 7.26845
5050.70 6.96609
5051.86 6.58493
5053.02 6.34678
5054.19 6.17726
5056.52 5.93711
5058.84 5.75859
5061.17 5.60434
5062.34 5.52991
5063.50 5.45992
5064.08 5.43830
5064.66 5.47075
5064.95 5.56634
5065.25 5.86634
5065.39 6.24142
5065.54 7.03307
5065.61 7.77610
5065.68 8.98288
5065.76 11.0241
5065.83 14.4692
5065.91 21.1769
5066.00 26.6320
5066.09 23.6185
5066.17 17.6123
5066.23 14.7477
5066.28 12.7072
5066.39 10.1643
5066.49 8.74965
5066.60 7.91051
5066.81 6.99422
5067.02 6.52966
5067.45 6.07626
5067.87 5.85830
5068.72 5.64200
5069.57 5.52650
5071.27 5.38665
5072.97 5.28903
5076.38 5.13330
5079.78 4.99580
5086.58 4.72997
5093.38 4.44575
5100.18 4.10847
5103.58 3.90183
5106.98 3.65059
5110.38 3.32453
5112.08 3.11721
5113.78 2.86840
5115.48 2.57858
5116.33 2.43663
5117.18 2.34709
5118.03 2.46680
5118.45 2.75634
5118.88 3.43649
5119.09 4.06226
5119.30 5.02265
5119.52 6.54409
5119.73 9.00844
5119.84 10.8315
5119.94 13.2136
5120.05 16.3954
5120.15 20.7090
5120.26 26.7118
5120.37 35.0209
5120.47 46.7098
5120.58 63.0726
5120.69 85.2159
5120.79 112.235
5121.00 156.173
5121.11 155.177
5121.21 139.286
5121.42 97.1592
5121.55 76.7171
5121.68 61.6790
5121.94 42.4851
5122.19 31.6610
5122.45 25.0814
5122.71 20.7596
5122.96 17.7798
5123.47 13.9931
5123.99 11.7369
5124.50 10.2674
5125.53 8.49090
5126.55 7.47042
5127.58 6.81759
5129.63 6.04953
5131.69 5.64697
5133.74 5.45568
5135.79 5.43123
5136.82 5.49205
5137.33 5.61899
5137.59 5.91891
5137.72 6.41134
5137.84 7.82975
5137.92 9.67946
5138.00 11.3596
5138.08 10.8077
5138.16 9.26466
5138.27 7.83683
5138.38 7.13223
5138.59 6.55812
5139.03 6.28515
5139.90 6.36042
5141.65 7.06944
5143.39 8.40098
5145.13 10.7439
5146.88 14.9903
5148.62 23.1499
5149.49 30.0228
5150.37 40.1241
5151.24 55.2015
5152.11 77.6669
5153.56 134.963
5155.00 185.161
5156.45 163.748
5157.90 113.560
5158.96 85.6951
5160.02 66.4155
5161.08 53.1769
5162.14 43.8883
5164.25 32.1937
5166.37 25.4181
5168.49 21.1209
5170.61 18.1984
5172.73 16.0893
5173.78 15.2511
5174.05 15.0821
5174.31 14.9819
5174.58 15.1758
5174.71 15.7483
5174.78 16.4147
5174.84 17.6184
5174.92 20.0520
5175.00 22.2330
5175.08 21.3247
5175.16 19.1343
5175.27 17.0396
5175.39 15.9826
5175.62 15.0352
5175.85 14.5840
5176.08 14.2964
5176.99 13.5882
5178.83 12.6534
5182.49 11.3067
5184.33 10.7676
5186.16 10.2721
5187.08 10.0284
5188.00 9.78527
5188.46 9.68057
5188.91 9.66286
5189.14 9.78825
5189.37 10.2541
5189.49 10.8471
5189.60 12.0572
5189.66 13.1531
5189.72 14.8100
5189.77 17.4044
5189.83 21.4748
5189.92 31.0984
5190.00 39.7036
5190.09 36.3542
5190.17 28.0272
5190.24 22.7419
5190.31 19.2800
5190.39 17.0139
5190.46 15.4978
5190.60 13.6311
5190.74 12.5745
5191.03 11.4564
5191.32 10.8859
5191.89 10.2967
5192.46 9.97718
5193.61 9.59591
5194.75 9.34111
5197.05 8.96535
5199.34 8.66947
5203.92 8.19181
5208.50 7.80040
5217.67 7.13477
5219.96 6.97081
5222.25 6.79391
5223.40 6.69469
5224.55 6.58340
5225.12 6.52533
5225.69 6.48575
5225.98 6.50547
5226.27 6.64408
5226.41 6.85371
5226.55 7.34391
5226.69 8.64695
5226.77 10.1050
5226.84 12.7370
5226.92 17.7369
5227.00 22.1403
5227.08 20.3096
5227.16 15.9439
5227.22 13.4875
5227.28 11.7893
5227.40 9.81138
5227.52 8.78599
5227.64 8.19431
5227.88 7.55544
5228.12 7.22560
5228.60 6.88602
5229.08 6.70117
5230.03 6.46977
5230.99 6.29028
5231.94 6.11376
5232.42 6.02272
5232.90 5.93703
5233.38 5.88993
5233.62 5.91722
5233.86 6.04074
5234.09 6.40759
5234.21 6.80234
5234.33 7.48825
5234.45 8.75997
5234.57 11.2424
5234.69 16.6288
5234.75 21.5698
5234.81 28.9711
5234.86 37.4255
5234.91 47.5993
5235.00 63.9981
5235.10 57.3698
5235.19 41.4117
5235.30 28.7193
5235.40 21.5628
5235.51 17.4028
5235.62 14.8345
5235.72 13.1137
5235.83 11.9217
5236.04 10.3864
5236.26 9.45963
5236.47 8.85235
5236.90 8.10760
5237.32 7.66809
5237.75 7.37692
5238.60 7.00469
5239.45 6.76545
5240.31 6.58818
5242.01 6.31751
5243.72 6.09036
5245.42 5.86885
5246.28 5.75272
5247.13 5.63465
5247.56 5.58551
5247.98 5.58350
5248.20 5.65025
5248.41 5.88075
5248.52 6.16302
5248.62 6.72075
5248.73 7.94241
5248.78 9.05604
5248.83 10.7775
5248.92 14.9120
5249.00 18.5360
5249.08 16.9253
5249.17 13.2724
5249.25 10.7150
5249.33 9.16443
5249.49 7.57117
5249.65 6.83328
5249.81 6.42792
5250.13 5.99630
5250.45 5.76376
5251.09 5.49106
5251.74 5.30640
5253.02 5.00714
5254.30 4.74040
5255.59 4.55341
5256.23 4.57103
5256.87 4.80868
5257.52 5.61537
5257.84 6.50809
5258.16 8.08782
5258.48 10.9890
5258.80 16.6269
5258.96 21.4109
5259.12 28.3955
5259.28 38.8612
5259.44 54.3124
5259.72 96.5613
5260.00 136.083
5260.28 123.778
5260.56 88.3155
5260.77 67.2235
5260.98 52.6557
5261.20 42.6896
5261.41 35.7150
5261.84 26.9448
5262.26 21.8573
5262.69 18.6265
5263.11 16.4290
5263.97 13.6761
5264.82 12.0456
5265.67 10.9765
5267.37 9.66551
5269.08 8.88794
5270.78 8.36679
5274.19 7.68950
5277.60 7.23276
5281.00 6.85221
5282.71 6.65756
5284.41 6.43596
5285.26 6.30982
5286.11 6.19793
5286.54 6.20305
5286.75 6.26663
5286.97 6.43633
5287.18 6.85903
5287.29 7.28118
5287.39 7.98172
5287.50 9.22619
5287.61 11.5399
5287.71 16.2177
5287.82 26.2200
5287.86 33.3083
5287.91 41.9625
5288.00 55.4852
5288.09 49.4401
5288.18 35.7691
5288.25 28.0432
5288.32 22.8039
5288.39 19.2124
5288.45 16.6956
5288.59 13.5312
5288.72 11.7002
5288.85 10.5415
5288.99 9.75604
5289.26 8.77512
5289.53 8.19228
5289.79 7.80922
5290.33 7.32837
5291.40 6.80790
5292.48 6.47522
5293.55 6.19259
5294.09 6.06145
5294.62 5.95488
5295.16 5.94331
5295.43 6.04614
5295.69 6.34107
5295.96 7.09953
5296.10 7.86296
5296.23 9.15091
5296.36 11.4274
5296.50 15.7107
5296.63 24.3947
5296.70 31.9356
5296.77 42.9745
5296.83 56.3758
5296.88 72.5406
5297.00 98.8449
5297.12 88.4271
5297.23 62.8385
5297.32 48.5589
5297.40 38.7099
5297.49 31.8169
5297.57 27.0120
5297.74 20.8875
5297.91 17.3216
5298.08 15.0577
5298.25 13.5213
5298.59 11.6102
5298.92 10.4832
5299.26 9.75237
5299.94 8.86447
5300.61 8.34660
5301.29 8.00684
5302.64 7.58170
5303.99 7.31922
5305.34 7.13541
5308.04 6.88199
5310.74 6.70170
5313.44 6.55276
5316.14 6.40668
5317.49 6.33141
5317.83 6.32819
5318.17 6.37699
5318.33 6.46960
5318.50 6.71325
5318.67 7.45612
5318.76 8.38332
5318.84 10.2857
5318.92 13.4405
5319.00 16.2808
5319.08 15.1298
5319.16 12.3863
5319.25 10.1539
5319.34 8.92583
5319.53 7.77474
5319.71 7.28169
5319.90 7.02200
5320.27 6.76063
5320.64 6.63012
5322.12 6.42023
5325.08 6.25785
5331.00 6.04780
5333.96 5.94817
5336.92 5.83934
5338.40 5.77647
5339.88 5.70237
5340.62 5.65984
5341.36 5.62053
5341.73 5.61767
5342.10 5.67828
5342.28 5.79369
5342.47 6.10299
5342.56 6.44626
5342.65 7.08173
5342.75 8.35886
5342.84 11.1049
5342.92 15.3935
5343.00 19.1937
5343.08 17.5453
5343.16 13.7811
5343.26 10.6311
5343.36 8.94487
5343.46 8.00142
5343.56 7.43354
5343.75 6.80185
5343.95 6.47314
5344.35 6.14400
5344.74 5.97999
5345.53 5.80679
5346.32 5.70421
5347.90 5.55546
5349.47 5.41684
5351.05 5.25590
5351.84 5.15946
5352.63 5.05085
5353.42 4.94244
5353.81 4.90886
5354.21 4.93176
5354.60 5.12820
5354.80 5.39594
5354.99 5.93219
5355.19 7.05668
5355.39 9.64125
5355.49 12.2089
5355.59 16.5227
5355.68 24.2829
5355.73 30.2555
5355.78 38.2786
5355.84 50.2091
5355.89 64.5453
5356.00 87.6505
5356.11 77.9208
5356.22 54.9838
5356.29 43.1287
5356.36 34.6533
5356.51 24.4074
5356.66 18.8390
5356.80 15.5630
5356.95 13.4473
5357.09 12.0133
5357.38 10.2120
5357.67 9.15314
5357.96 8.46631
5358.55 7.63848
5359.13 7.16109
5359.71 6.85052
5360.87 6.46698
5362.04 6.23265
5363.20 6.06854
5365.53 5.83784
5370.18 5.50400
5371.35 5.42150
5372.51 5.33256
5373.09 5.28804
5373.68 5.26221
5373.97 5.28569
5374.26 5.41680
5374.40 5.61006
5374.55 6.05582
5374.69 7.24004
5374.77 8.57102
5374.84 10.9698
5374.92 15.4422
5375.00 19.3691
5375.08 17.6439
5375.16 13.7095
5375.24 11.0390
5375.31 9.37345
5375.47 7.65371
5375.62 6.85424
5375.77 6.41713
5376.07 5.96818
5376.38 5.74324
5376.98 5.51171
5377.59 5.38402
5380.02 5.09667
5382.45 4.86339
5384.88 4.59973
5386.09 4.44409
5387.31 4.26651
5388.52 4.06434
5389.74 3.84543
5390.35 3.74231
5390.95 3.66607
5391.56 3.66326
5392.17 3.85312
5392.78 4.57949
5393.08 5.43620
5393.38 7.02608
5393.69 10.1512
5393.84 12.8193
5393.99 16.7708
5394.14 22.8868
5394.29 32.6246
5394.45 48.6103
5394.60 74.8608
5394.80 131.764
5395.00 182.085
5395.10 180.624
5395.20 161.893
5395.40 112.875
5395.53 88.7561
5395.65 71.1606
5395.90 48.9915
5396.16 36.5600
5396.41 29.0612
5396.66 24.1615
5396.91 20.7970
5397.41 16.5381
5397.91 14.0137
5398.41 12.3689
5399.41 10.3822
5400.41 9.23455
5401.41 8.49007
5402.42 7.96530
5403.42 7.57345
5405.42 7.01688
5407.42 6.62663
5411.43 6.06293
5415.43 5.58952
5417.44 5.34325
5419.44 5.07332
5421.44 4.78118
5422.45 4.64738
5423.45 4.57533
5424.45 4.72469
5424.95 5.03241
5425.45 5.72277
5425.95 7.27988
5426.20 8.73517
5426.45 11.0436
5426.70 14.8760
5426.95 21.4795
5427.20 33.4451
5427.45 55.6569
5427.73 97.5371
5428.00 135.657
5428.27 122.025
5428.55 86.2631
5428.87 57.1437
5429.18 40.8045
5429.50 31.3445
5429.82 25.4732
5430.13 21.5869
5430.45 18.8740
5431.08 15.4083
5431.72 13.3244
5432.35 11.9549
5433.62 10.2867
5434.89 9.31522
5436.15 8.68133
5437.42 8.23260
5438.69 7.89593
5441.22 7.41210
5443.76 7.05515
5445.03 6.89195
5446.29 6.72188
5446.93 6.63431
5447.56 6.57577
5447.88 6.61245
5448.20 6.85825
5448.35 7.23820
5448.51 8.14210
5448.59 9.05363
5448.67 10.6239
5448.75 13.4633
5448.83 18.7733
5448.91 28.5505
5449.00 37.3395
5449.09 33.8667
5449.17 25.3984
5449.27 18.5453
5449.37 14.7452
5449.47 12.5347
5449.57 11.1821
5449.77 9.65769
5449.97 8.86083
5450.36 8.06292
5450.76 7.67258
5451.55 7.28664
5452.35 7.08826
5453.94 6.86881
5455.53 6.73628
5458.70 6.56171
5461.88 6.43871
5468.23 6.25935
5474.59 6.12533
5487.29 5.92282
5500.00 5.76378
5500.00 10.5917
6000.00 10.4567
7000.00 10.2319
8000.00 10.0512
10000.0 9.77601
12500.0 9.53079
15000.0 9.35015
17000.0 9.23532
20000.0 9.09631
25000.0 8.92187
30000.0 8.79150
35000.0 8.68846
40000.0 8.60370
50000.0 8.46956
60000.0 8.36519
70000.0 8.27940
80000.0 8.20610
90000.0 8.14181
99999.9 8.08420
100000 8.08249
150000 7.99219
200000 7.88292
209747 7.85890
209747 7.85890
219875 7.83304
250000 7.75107
264640 7.70866
300000 7.60079
310417 7.56770
310418 7.56770
349460 7.42194
388503 7.30610
402580 7.25712
451290 7.06672
500000 6.91340
529887 6.80803
550852 6.72828
571816 6.65369
592781 6.58376
613745 6.51807
635309 6.44047
656873 6.36734
678436 6.29829
700000 6.23299
717783 6.17405
735566 6.11750
753349 6.06319
771132 6.01098
800000 5.92460
803844 5.91327
823189 5.85619
842533 5.80142
871267 5.71985
900000 5.64291
922340 5.58375
944419 5.52613
966497 5.47088
983249 5.42922
1.00000E+06 5.38883
1.05208E+06 5.26736
1.06646E+06 5.23510
1.09350E+06 5.17592
1.09350E+06 5.17592
1.12672E+06 5.10582
1.13887E+06 5.08111
1.13887E+06 5.08110
1.14616E+06 5.06633
1.14617E+06 5.06632
1.19113E+06 4.97813
1.19113E+06 4.97812
1.20713E+06 4.94794
1.20714E+06 4.94793
1.23721E+06 4.89284
1.23721E+06 4.89283
1.25000E+06 4.87006
1.29967E+06 4.78481
1.34933E+06 4.70562
1.39359E+06 4.63906
1.41293E+06 4.61119
1.41293E+06 4.61119
1.50000E+06 4.49443
1.51411E+06 4.47677
1.52079E+06 4.46852
1.52079E+06 4.46852
1.53203E+06 4.45483
1.53204E+06 4.45482
1.59523E+06 4.38158
1.59523E+06 4.38158
1.63372E+06 4.33995
1.69186E+06 4.28139
1.75000E+06 4.22650
1.81250E+06 4.17371
1.87500E+06 4.12427
1.93750E+06 4.07788
2.00000E+06 4.03430
2.11237E+06 3.98391
2.22475E+06 3.93738
2.33712E+06 3.89427
2.44949E+06 3.85420
2.51482E+06 3.83111
2.58015E+06 3.80894
2.64548E+06 3.78765
2.71081E+06 3.76719
2.78311E+06 3.74452
2.85541E+06 3.72282
2.92770E+06 3.70204
3.00000E+06 3.68214
3.11186E+06 3.68144
3.22371E+06 3.68104
3.34391E+06 3.68033
3.46410E+06 3.67995
3.59326E+06 3.67922
3.72242E+06 3.67886
3.86121E+06 3.67808
4.00000E+06 3.67777
4.07344E+06 3.69124
4.29322E+06 3.72946
4.51300E+06 3.76799
4.75650E+06 3.80702
5.00000E+06 3.84635
5.01649E+06 3.85078
5.03299E+06 3.85520
5.04948E+06 3.85962
5.06597E+06 3.86403
5.08246E+06 3.86845
5.09895E+06 3.87286
5.11545E+06 3.87727
5.13194E+06 3.88167
5.14843E+06 3.88608
5.16492E+06 3.89048
5.18142E+06 3.89488
5.19791E+06 3.89927
5.21440E+06 3.90366
5.23089E+06 3.90805
5.24738E+06 3.91244
5.26388E+06 3.91683
5.28037E+06 3.92121
5.29686E+06 3.92559
5.31335E+06 3.92997
5.32984E+06 3.93435
5.34634E+06 3.93873
5.36283E+06 3.94310
5.37932E+06 3.94747
5.39581E+06 3.95183
5.41231E+06 3.95620
5.42880E+06 3.96056
5.44529E+06 3.96492
5.46178E+06 3.96928
5.47827E+06 3.97364
5.49477E+06 3.97799
5.51126E+06 3.98235
5.52775E+06 3.98670
5.55727E+06 3.99416
5.58678E+06 4.00162
5.61630E+06 4.00906
5.64581E+06 4.01650
5.67533E+06 4.02393
5.70484E+06 4.03135
5.73436E+06 4.03877
5.76388E+06 4.04617
5.79339E+06 4.05357
5.82291E+06 4.06096
5.85242E+06 4.06834
5.88194E+06 4.07572
5.91145E+06 4.08308
5.94097E+06 4.09044
5.97049E+06 4.09779
6.00000E+06 4.10514
6.05164E+06 4.11842
6.10327E+06 4.13166
6.15491E+06 4.14486
6.20654E+06 4.15803
6.25818E+06 4.17116
6.30981E+06 4.18425
6.36145E+06 4.19730
6.41308E+06 4.21032
6.48645E+06 4.22838
6.55981E+06 4.24636
6.63318E+06 4.26427
6.70654E+06 4.28211
6.77991E+06 4.29988
6.85327E+06 4.31758
6.92664E+06 4.33521
7.00000E+06 4.35278
7.01563E+06 4.35510
7.03125E+06 4.35741
7.04688E+06 4.35972
7.06250E+06 4.36203
7.07813E+06 4.36434
7.09375E+06 4.36665
7.10938E+06 4.36895
7.12500E+06 4.37126
7.14063E+06 4.37356
7.15625E+06 4.37586
7.17188E+06 4.37816
7.18750E+06 4.38045
7.20313E+06 4.38274
7.21875E+06 4.38504
7.23438E+06 4.38733
7.25000E+06 4.38961
7.26563E+06 4.39190
7.28125E+06 4.39419
7.29688E+06 4.39647
7.31250E+06 4.39875
7.32813E+06 4.40103
7.34375E+06 4.40331
7.35938E+06 4.40558
7.37500E+06 4.40786
7.39063E+06 4.41013
7.40625E+06 4.41240
7.42188E+06 4.41467
7.43750E+06 4.41694
7.45313E+06 4.41921
7.46875E+06 4.42147
7.48438E+06 4.42373
7.50000E+06 4.42599
7.51563E+06 4.42825
7.53125E+06 4.43051
7.54688E+06 4.43277
7.56250E+06 4.43502
7.57813E+06 4.43727
7.59375E+06 4.43953
7.60938E+06 4.44177
7.62500E+06 4.44402
7.64063E+06 4.44627
7.65625E+06 4.44851
7.67188E+06 4.45076
7.68750E+06 4.45300
7.70313E+06 4.45524
7.71875E+06 4.45748
7.73438E+06 4.45971
7.75000E+06 4.46195
7.76563E+06 4.46418
7.78125E+06 4.46642
7.79688E+06 4.46865
7.81250E+06 4.47088
7.82813E+06 4.47311
7.84375E+06 4.47533
7.85938E+06 4.47756
7.87500E+06 4.47978
7.89063E+06 4.48200
7.90625E+06 4.48423
7.92188E+06 4.48645
7.93750E+06 4.48866
7.95313E+06 4.49088
7.96875E+06 4.49310
7.98438E+06 4.49531
8.00000E+06 4.49752
8.05562E+06 4.49885
8.11124E+06 4.50019
8.16685E+06 4.50153
8.22247E+06 4.50287
8.27809E+06 4.50423
8.33371E+06 4.50560
8.38932E+06 4.50698
8.44494E+06 4.50838
8.48528E+06 4.50922
8.54962E+06 4.51051
8.61396E+06 4.51183
8.67830E+06 4.51319
8.74264E+06 4.51459
8.80698E+06 4.51606
8.87132E+06 4.51763
8.93566E+06 4.51932
9.00000E+06 4.52120
9.06265E+06 4.51604
9.12530E+06 4.51111
9.21568E+06 4.50101
9.30607E+06 4.49133
9.39645E+06 4.48216
9.48683E+06 4.47360
9.54685E+06 4.46835
9.60686E+06 4.46349
9.66688E+06 4.45909
9.72690E+06 4.45523
9.78691E+06 4.45199
9.84693E+06 4.44950
9.90694E+06 4.44787
9.96696E+06 4.44727
1.00000E+07 4.44490
1.00505E+07 4.43509
1.01011E+07 4.42565
1.01516E+07 4.41660
1.02021E+07 4.40798
1.02526E+07 4.39980
1.03032E+07 4.39211
1.03537E+07 4.38494
1.04042E+07 4.37832
1.04462E+07 4.36936
1.04881E+07 4.36085
1.05302E+07 4.35284
1.05723E+07 4.34533
1.06143E+07 4.33836
1.06564E+07 4.33195
1.06985E+07 4.32615
1.07406E+07 4.32099
1.07826E+07 4.31651
1.08247E+07 4.31275
1.08247E+07 4.31275
1.09124E+07 4.29882
1.10000E+07 4.28644
1.11223E+07 4.26618
1.12446E+07 4.24694
1.13668E+07 4.22869
1.14891E+07 4.21142
1.16168E+07 4.19371
1.17446E+07 4.17704
1.18723E+07 4.16139
1.20000E+07 4.14672
1.20625E+07 4.13465
1.21250E+07 4.12285
1.21875E+07 4.11133
1.22500E+07 4.10007
1.23125E+07 4.08908
1.23750E+07 4.07836
1.24375E+07 4.06790
1.25000E+07 4.05769
1.25625E+07 4.04774
1.26250E+07 4.03804
1.26875E+07 4.02859
1.27500E+07 4.01939
1.28125E+07 4.01043
1.28750E+07 4.00171
1.29375E+07 3.99323
1.30000E+07 3.98499
1.30625E+07 3.97491
1.31250E+07 3.96497
1.31875E+07 3.95519
1.32500E+07 3.94554
1.33125E+07 3.93604
1.33750E+07 3.92669
1.34375E+07 3.91748
1.35000E+07 3.90841
1.35625E+07 3.89948
1.36250E+07 3.89069
1.36875E+07 3.88204
1.37500E+07 3.87353
1.38125E+07 3.86516
1.38750E+07 3.85692
1.39375E+07 3.84883
1.40000E+07 3.84088
1.41250E+07 3.82432
1.42500E+07 3.80829
1.43750E+07 3.79280
1.45000E+07 3.77782
1.46046E+07 3.76493
1.47092E+07 3.75239
1.48546E+07 3.73485
1.50000E+07 3.71789
1.51204E+07 3.70383
1.52407E+07 3.69012
1.53611E+07 3.67677
1.54814E+07 3.66379
1.56018E+07 3.65116
1.57221E+07 3.63888
1.58425E+07 3.62697
1.59628E+07 3.61542
1.59721E+07 3.61447
1.59814E+07 3.61352
1.59907E+07 3.61257
1.60000E+07 3.61163
1.60313E+07 3.60771
1.60625E+07 3.60382
1.60938E+07 3.59995
1.61250E+07 3.59610
1.61563E+07 3.59227
1.61875E+07 3.58846
1.62188E+07 3.58468
1.62500E+07 3.58092
1.62813E+07 3.57717
1.63125E+07 3.57345
1.63438E+07 3.56975
1.63750E+07 3.56607
1.64063E+07 3.56241
1.64375E+07 3.55878
1.64688E+07 3.55516
1.65000E+07 3.55157
1.65313E+07 3.54799
1.65625E+07 3.54444
1.65938E+07 3.54091
1.66250E+07 3.53740
1.66563E+07 3.53391
1.66875E+07 3.53044
1.67188E+07 3.52700
1.67500E+07 3.52357
1.67813E+07 3.52016
1.68125E+07 3.51678
1.68438E+07 3.51342
1.68750E+07 3.51007
1.69063E+07 3.50675
1.69375E+07 3.50345
1.69688E+07 3.50017
1.70000E+07 3.49691
1.70313E+07 3.49337
1.70625E+07 3.48985
1.70938E+07 3.48635
1.71250E+07 3.48287
1.71563E+07 3.47940
1.71875E+07 3.47595
1.72188E+07 3.47251
1.72500E+07 3.46909
1.72813E+07 3.46569
1.73125E+07 3.46231
1.73438E+07 3.45894
1.73750E+07 3.45559
1.74063E+07 3.45226
1.74375E+07 3.44894
1.74688E+07 3.44565
1.75000E+07 3.44236
1.75313E+07 3.43910
1.75625E+07 3.43585
1.75938E+07 3.43261
1.76250E+07 3.42940
1.76563E+07 3.42620
1.76875E+07 3.42301
1.77188E+07 3.41985
1.77500E+07 3.41670
1.77813E+07 3.41356
1.78125E+07 3.41045
1.78438E+07 3.40735
1.78750E+07 3.40427
1.79063E+07 3.40120
1.79375E+07 3.39815
1.79688E+07 3.39511
1.80000E+07 3.39210
1.80625E+07 3.38319
1.81250E+07 3.37434
1.81875E+07 3.36556
1.82500E+07 3.35685
1.83125E+07 3.34821
1.83750E+07 3.33964
1.84375E+07 3.33113
1.85000E+07 3.32269
1.85625E+07 3.31431
1.86250E+07 3.30600
1.86875E+07 3.29776
1.87500E+07 3.28959
1.88125E+07 3.28148
1.88750E+07 3.27344
1.89375E+07 3.26547
1.90000E+07 3.25757
1.91117E+07 3.24329
1.92233E+07 3.22920
1.93204E+07 3.21696
1.94175E+07 3.20484
1.95146E+07 3.19285
1.96117E+07 3.18099
1.97087E+07 3.16926
1.98058E+07 3.15766
1.99029E+07 3.14620
2.00000E+07 3.13488