Rb-85(n,tot) ENDF/B-VII.1
Energy(eV) XS(b)
1.00000E-05 31.0711
1.25000E-05 28.4510
1.50000E-05 26.5169
2.00000E-05 23.8020
2.75000E-05 21.2189
3.50000E-05 19.5188
4.25000E-05 18.2915
5.00000E-05 17.3520
6.25000E-05 16.1802
7.50000E-05 15.3153
0.000100000 14.1011
0.000125000 13.2726
0.000150000 12.6610
0.000200000 11.8024
0.000275000 10.9856
0.000350000 10.4480
0.000425000 10.0599
0.000500000 9.76275
0.000625000 9.39221
0.000750000 9.11869
0.00100000 8.73475
0.00125000 8.47273
0.00150000 8.27933
0.00200000 8.00784
0.00275000 7.74952
0.00350000 7.57951
0.00425000 7.45678
0.00500000 7.36283
0.00625000 7.24565
0.00750000 7.15915
0.0100000 7.03774
0.0125000 6.95488
0.0150000 6.89371
0.0200000 6.80785
0.0253000 6.74630
0.0314750 6.69525
0.0376500 6.65734
0.0500000 6.60383
0.0625000 6.56675
0.0750000 6.53937
0.100000 6.50093
0.125000 6.47468
0.150000 6.45529
0.200000 6.42804
0.275000 6.40206
0.350000 6.38491
0.500000 6.36294
0.750000 6.34208
1.00000 6.32943
1.50000 6.31401
2.00000 6.30441
2.75000 6.29471
3.50000 6.28781
5.00000 6.27788
7.50000 6.26630
10.0000 6.25731
15.0000 6.24241
20.0000 6.22929
27.5000 6.21100
35.0000 6.19347
50.0000 6.15922
75.0000 6.10228
100.000 6.04390
137.735 5.95045
156.602 5.90069
161.319 5.88853
166.035 5.87830
168.394 5.87610
169.573 5.87733
170.752 5.88241
171.931 5.89710
172.521 5.91323
173.111 5.94354
173.405 5.96919
173.700 6.00808
173.995 6.07069
174.290 6.18032
174.585 6.39770
174.732 6.59619
174.879 6.92374
175.027 7.51897
175.101 8.01570
175.174 8.76250
175.248 9.94953
175.322 11.9685
175.395 15.6706
175.469 22.7854
175.535 33.0199
175.600 39.8738
175.666 33.0288
175.731 22.7964
175.779 17.6996
175.826 14.3609
175.873 12.1639
175.921 10.6796
176.016 8.90007
176.110 7.93286
176.205 7.35586
176.300 6.98621
176.490 6.55901
176.679 6.33167
176.869 6.19667
177.248 6.05104
177.627 5.97806
178.006 5.93609
178.386 5.90954
178.765 5.89151
179.523 5.86884
180.282 5.85515
181.798 5.83880
183.315 5.82842
184.832 5.82039
187.866 5.80707
193.933 5.78316
200.000 5.75882
205.768 5.73373
211.535 5.70582
214.419 5.69105
217.303 5.67821
218.744 5.67631
219.465 5.67931
220.186 5.68902
220.907 5.71538
221.268 5.74363
221.628 5.79563
221.989 5.90328
222.169 6.00454
222.349 6.17592
222.529 6.49830
222.620 6.77626
222.710 7.20802
222.800 7.92584
222.890 9.22880
222.935 10.3015
222.980 11.8635
223.025 14.1996
223.070 17.6732
223.135 24.8697
223.200 29.6536
223.265 24.8742
223.330 17.6779
223.375 14.1968
223.420 11.8613
223.465 10.2963
223.510 9.22586
223.600 7.92113
223.691 7.20128
223.781 6.76745
223.871 6.48743
224.051 6.16116
224.231 5.98583
224.411 5.88072
224.772 5.76558
225.132 5.70620
225.493 5.67068
226.213 5.63002
227.655 5.59040
229.097 5.57227
229.817 5.57227
230.538 5.58475
231.259 5.62339
231.980 5.72354
232.340 5.82399
232.701 5.99306
233.061 6.29288
233.421 6.86852
233.782 8.11870
233.962 9.33762
234.142 11.4540
234.322 15.5293
234.413 19.0981
234.503 24.6902
234.593 34.0442
234.683 51.0522
234.773 85.2570
234.818 115.321
234.863 159.728
234.897 205.387
234.932 258.317
235.000 329.061
235.069 269.988
235.137 174.299
235.184 127.751
235.231 96.1153
235.278 74.5809
235.324 59.6746
235.418 41.2348
235.512 30.8772
235.605 24.5219
235.699 20.3572
235.886 15.4118
236.074 12.6870
236.261 11.0207
236.448 9.92173
236.636 9.15528
237.010 8.17638
237.385 7.59187
237.760 7.21088
238.134 6.94639
238.884 6.60802
239.633 6.40396
240.383 6.26890
241.132 6.17344
242.631 6.04783
244.129 5.96876
245.628 5.91403
247.127 5.87348
250.124 5.81624
253.121 5.77635
259.116 5.72055
265.111 5.67944
271.105 5.64497
283.095 5.58450
307.074 5.47132
331.053 5.35116
355.031 5.21340
379.010 5.04723
402.989 4.83636
414.979 4.70802
417.976 4.67500
420.973 4.64684
422.472 4.64094
423.221 4.64461
423.971 4.65921
424.720 4.70063
425.095 4.74549
425.469 4.82838
425.844 5.00041
426.031 5.16257
426.219 5.43757
426.406 5.95646
426.500 6.40565
426.593 7.10505
426.687 8.27505
426.781 10.4129
426.828 12.1888
426.874 14.7951
426.921 18.7216
426.968 24.6380
427.034 36.6923
427.100 44.7292
427.166 36.6953
427.232 24.6404
427.298 16.9369
427.363 12.6107
427.429 10.1115
427.495 8.58157
427.561 7.59077
427.626 6.91741
427.758 6.09239
427.889 5.62783
428.020 5.34142
428.283 5.02138
428.546 4.85541
428.809 4.75764
429.334 4.65101
429.860 4.59489
430.386 4.55984
431.437 4.51587
433.539 4.46184
435.641 4.41948
444.050 4.25567
452.459 4.06514
454.562 4.01410
456.664 3.97037
457.715 3.96250
458.241 3.97015
458.766 3.99687
459.292 4.06987
459.555 4.14726
459.817 4.28749
460.080 4.57007
460.212 4.82822
460.343 5.25126
460.474 6.00829
460.540 6.62876
460.606 7.54405
460.672 8.96073
460.737 11.2804
460.803 15.3064
460.869 22.4820
460.934 33.7102
461.000 41.1830
461.066 33.6872
461.132 22.4723
461.181 16.6741
461.231 12.9374
461.281 10.5101
461.330 8.89293
461.429 6.97508
461.529 5.94421
461.628 5.33294
461.727 4.94234
461.926 4.49041
462.125 4.24773
462.323 4.10107
462.720 3.93630
463.117 3.84604
463.515 3.78727
464.309 3.70894
465.898 3.60205
467.486 3.51346
469.075 3.44876
469.869 3.44910
470.664 3.52033
471.061 3.61746
471.458 3.80143
471.855 4.15486
472.252 4.87258
472.650 6.49578
472.848 8.11124
473.047 10.9441
473.245 16.4375
473.345 21.2549
473.444 28.7905
473.543 41.3319
473.593 50.8690
473.643 63.8995
473.692 82.2078
473.742 108.430
473.791 146.702
473.841 202.407
473.921 332.328
474.000 427.766
474.080 353.237
474.159 228.527
474.210 171.018
474.260 130.534
474.361 82.1123
474.462 56.5499
474.563 41.7890
474.664 32.5527
474.765 26.4143
474.967 18.9993
475.169 14.8445
475.370 12.2679
475.774 9.33909
476.178 7.77285
476.582 6.82152
476.986 6.19109
477.389 5.74607
478.197 5.16232
479.004 4.79653
480.619 4.35660
482.234 4.09049
483.849 3.90184
487.080 3.62841
493.540 3.23582
500.000 2.95338
503.235 2.89057
506.470 2.95933
509.705 3.32447
512.940 4.41500
514.558 5.56441
516.175 7.54176
517.793 11.0950
519.410 17.9461
520.219 23.8129
521.028 32.7074
521.836 46.8675
522.645 70.9049
523.454 115.481
523.858 152.938
524.263 209.138
524.667 297.634
525.071 444.962
525.476 704.921
525.880 1177.56
526.290 1950.08
526.700 2521.82
527.110 2086.63
527.520 1349.23
527.990 807.368
528.460 520.252
528.931 361.139
529.401 266.105
529.871 205.325
530.341 164.237
531.281 113.835
532.221 85.1657
533.162 67.2190
535.042 46.6659
536.923 35.6399
538.803 28.9991
539.744 26.6738
540.684 24.9461
541.154 24.4354
541.389 24.3705
541.624 24.5693
541.859 25.3327
541.977 26.1610
542.094 27.5998
542.212 30.2372
542.329 35.5256
542.388 40.2624
542.447 47.7063
542.506 59.9242
542.564 80.1498
542.632 115.399
542.700 138.881
542.768 115.216
542.836 79.7823
542.885 62.0804
542.934 50.4175
542.983 42.7156
543.032 37.4985
543.130 31.1823
543.228 27.6919
543.326 25.5610
543.424 24.1537
543.621 22.4310
543.817 21.4106
544.013 20.7191
544.405 19.7880
545.190 18.6082
545.975 17.7541
547.545 16.4283
549.115 15.3822
552.254 13.7894
555.394 12.6240
561.672 11.0308
567.951 9.99282
574.230 9.26141
580.509 8.71698
583.649 8.49536
586.788 8.30689
588.358 8.23284
589.143 8.20719
589.928 8.19834
590.712 8.22899
591.105 8.27930
591.497 8.38450
591.890 8.61833
592.086 8.84541
592.282 9.23646
592.478 9.98340
592.576 10.6356
592.675 11.6597
592.773 13.3865
592.871 16.5855
592.920 19.2731
592.969 23.2637
593.018 29.3780
593.067 38.7274
593.134 57.2245
593.200 69.5368
593.267 57.2059
593.333 38.7364
593.393 27.7844
593.453 21.2939
593.513 17.3675
593.573 14.8884
593.692 12.1034
593.812 10.6822
593.932 9.86548
594.051 9.35532
594.290 8.77634
594.530 8.47069
594.769 8.28762
595.248 8.08296
595.726 7.97102
596.205 7.89822
597.162 7.80215
598.119 7.73394
599.077 7.67759
600.991 7.58079
604.820 7.41319
608.649 7.26091
616.307 6.97635
623.965 6.69454
631.623 6.38345
635.451 6.20208
639.280 5.99273
641.195 5.87611
643.109 5.75440
645.024 5.63949
646.938 5.57314
647.896 5.59642
648.853 5.71227
649.810 6.02660
650.767 6.80399
651.246 7.56526
651.724 8.82249
652.203 11.0004
652.682 15.0486
653.160 23.4121
653.400 31.1458
653.639 43.8275
653.878 66.2530
653.998 84.2658
654.117 110.145
654.237 148.719
654.357 208.329
654.476 303.802
654.596 457.816
654.748 757.138
654.900 980.646
655.052 815.026
655.204 530.280
655.327 368.929
655.450 265.717
655.573 199.336
655.696 155.194
655.942 102.870
656.187 74.5433
656.433 57.5348
656.679 46.5184
657.171 33.5142
657.662 26.3516
658.154 21.9441
658.646 19.0115
659.137 16.9461
660.121 14.2671
661.104 12.6317
662.087 11.5422
663.071 10.7697
665.037 9.75353
667.004 9.11776
668.971 8.68267
670.937 8.36548
674.871 7.93094
678.804 7.64330
682.737 7.43532
686.670 7.27541
694.537 7.03978
702.404 6.86858
718.137 6.62278
733.870 6.44303
749.603 6.29799
765.336 6.17452
773.203 6.12069
775.170 6.10951
777.136 6.10246
778.119 6.10413
779.103 6.11964
779.594 6.14503
779.840 6.17045
780.086 6.21528
780.332 6.30367
780.455 6.38326
780.578 6.51228
780.701 6.74009
780.824 7.19355
780.885 7.60420
780.946 8.26218
781.008 9.37523
781.069 11.2926
781.135 14.4282
781.200 16.5121
781.265 14.4166
781.331 11.2839
781.400 9.19572
781.469 8.06211
781.537 7.42413
781.606 7.04116
781.675 6.79596
781.744 6.63093
781.882 6.43076
782.020 6.31893
782.157 6.25037
782.433 6.17393
782.708 6.13422
782.984 6.11068
783.535 6.08458
784.637 6.06126
785.738 6.04942
787.942 6.03575
790.146 6.02991
792.350 6.03687
793.452 6.05146
794.554 6.08403
795.105 6.11381
795.656 6.16088
796.207 6.23958
796.758 6.38281
797.033 6.50197
797.309 6.68075
797.584 6.96571
797.859 7.45907
798.135 8.42381
798.273 9.29315
798.410 10.7065
798.548 13.2237
798.617 15.2804
798.686 18.3030
798.755 22.9772
798.824 30.5980
798.893 43.7995
798.961 67.2448
799.031 104.070
799.100 128.585
799.169 104.044
799.239 67.2843
799.288 49.2477
799.337 37.2876
799.386 29.3362
799.435 23.9207
799.533 17.3697
799.631 13.7852
799.729 11.6339
799.827 10.2525
800.023 8.65060
800.219 7.79535
800.415 7.28711
800.611 6.96057
800.807 6.73858
801.199 6.46425
801.591 6.30721
801.984 6.20856
802.376 6.14222
803.160 6.06038
803.944 6.01268
804.728 5.98154
805.513 5.95940
807.081 5.92908
808.649 5.90802
811.786 5.87721
814.923 5.85257
818.060 5.83043
824.334 5.78932
836.882 5.71134
849.429 5.63459
874.524 5.47765
899.619 5.30744
924.715 5.10994
949.810 4.85786
962.357 4.69234
974.905 4.47501
981.179 4.33209
987.453 4.14796
990.589 4.03103
993.726 3.88792
996.863 3.70586
998.432 3.59509
1000.00 3.47068
1000.85 3.40093
1001.70 3.33707
1002.55 3.29764
1003.40 3.33567
1003.82 3.42761
1004.24 3.62617
1004.67 4.03871
1005.09 4.91397
1005.52 6.94744
1005.73 8.97639
1005.94 12.5127
1006.05 15.2995
1006.15 19.2374
1006.26 24.9899
1006.37 33.7395
1006.47 47.7154
1006.58 71.3705
1006.68 113.945
1006.74 147.541
1006.79 193.253
1006.90 322.483
1007.00 421.716
1007.11 353.677
1007.21 232.241
1007.29 164.159
1007.38 119.915
1007.46 91.1003
1007.54 71.7451
1007.71 48.5574
1007.87 35.8573
1008.04 28.1804
1008.21 23.1910
1008.54 17.3569
1008.87 14.3266
1009.20 13.0354
1009.37 13.1780
1009.53 14.4737
1009.62 16.0789
1009.70 19.1043
1009.78 25.0976
1009.86 37.2048
1009.93 54.0708
1010.00 65.0524
1010.07 53.4996
1010.14 36.5842
1010.22 24.5277
1010.29 18.2778
1010.37 14.8028
1010.45 12.7071
1010.60 10.4058
1010.75 9.20301
1010.91 8.46147
1011.06 7.95721
1011.37 7.29063
1011.99 6.52399
1012.60 6.05690
1013.84 5.46966
1015.07 5.09389
1017.54 4.60586
1020.00 4.27070
1022.47 4.00099
1024.94 3.76790
1027.40 3.58425
1028.02 3.56370
1028.64 3.58829
1028.95 3.65297
1029.25 3.83824
1029.41 4.06102
1029.56 4.54061
1029.64 5.00751
1029.72 5.81482
1029.79 7.32703
1029.87 10.3122
1029.94 14.4965
1030.00 17.2307
1030.07 14.4247
1030.13 10.3035
1030.18 8.31654
1030.22 7.00450
1030.31 5.48875
1030.40 4.73133
1030.49 4.31064
1030.67 3.89080
1030.84 3.69808
1031.20 3.53463
1031.55 3.47458
1032.98 3.51417
1034.40 3.87035
1035.82 4.84490
1036.53 5.82621
1037.24 7.46157
1037.96 10.3102
1038.67 15.6126
1039.02 20.0268
1039.38 26.5284
1039.73 36.5734
1040.09 52.8596
1040.44 81.3579
1040.80 135.770
1040.98 182.597
1041.16 253.423
1041.33 363.562
1041.51 534.419
1041.76 892.281
1042.00 1163.98
1042.25 970.553
1042.49 632.253
1042.76 388.320
1043.03 255.904
1043.30 180.683
1043.57 135.221
1043.84 105.701
1044.11 85.6326
1044.65 60.7439
1045.19 46.3952
1045.73 37.3467
1046.82 26.8596
1047.90 21.1550
1048.98 17.6528
1050.06 15.3177
1051.14 13.6649
1053.30 11.5008
1055.46 10.1604
1057.63 9.25337
1059.79 8.59992
1064.11 7.72025
1068.44 7.15197
1072.76 6.75000
1077.09 6.44656
1085.73 6.00726
1094.38 5.68970
1111.68 5.21331
1128.98 4.80631
1146.28 4.37506
1154.92 4.12272
1163.57 3.82576
1172.22 3.46567
1176.55 3.26530
1178.71 3.18749
1179.25 3.19030
1179.79 3.24146
1180.06 3.32559
1180.19 3.40689
1180.33 3.54393
1180.46 3.79454
1180.60 4.31254
1180.67 4.80143
1180.73 5.59933
1180.80 7.02698
1180.87 9.58445
1180.94 13.5418
1181.00 16.1257
1181.07 13.4720
1181.13 9.57235
1181.17 7.79485
1181.21 6.58994
1181.30 5.14886
1181.38 4.40290
1181.46 3.98236
1181.63 3.54751
1181.79 3.34056
1182.12 3.15232
1182.45 3.06664
1183.11 2.98154
1183.77 2.93295
1186.41 2.83343
1189.06 2.86476
1191.70 3.20624
1193.02 3.64649
1194.34 4.46526
1195.66 6.01801
1196.98 9.11963
1197.64 11.8273
1198.30 15.9618
1198.96 22.5738
1199.62 33.8005
1200.28 54.5252
1200.61 71.7439
1200.94 97.2763
1201.27 136.765
1201.60 200.829
1201.93 309.804
1202.26 499.146
1202.63 838.171
1203.00 1098.51
1203.37 917.299
1203.74 597.877
1204.03 420.595
1204.32 305.819
1204.61 230.977
1204.90 180.641
1205.48 120.240
1206.06 87.0821
1206.64 66.9496
1207.22 53.8249
1208.38 38.1872
1209.54 29.4765
1210.70 24.0730
1211.86 20.4505
1213.02 17.8810
1215.34 14.5181
1217.66 12.4427
1219.99 11.0453
1222.31 10.0450
1226.95 8.71022
1231.59 7.85840
1236.23 7.26790
1237.39 7.15166
1238.55 7.05569
1239.13 7.02605
1239.71 7.03857
1240.00 7.09460
1240.14 7.15629
1240.29 7.26614
1240.43 7.47541
1240.51 7.65514
1240.58 7.92386
1240.65 8.35886
1240.72 9.08799
1240.80 10.4365
1240.87 12.9607
1240.94 16.6625
1241.00 19.0745
1241.07 16.5942
1241.13 12.9418
1241.20 10.4820
1241.27 9.15552
1241.34 8.39165
1241.41 7.93578
1241.54 7.43758
1241.68 7.18980
1241.82 7.04557
1241.95 6.95375
1242.22 6.84216
1242.77 6.72743
1243.32 6.65855
1244.41 6.55906
1245.50 6.47829
1246.59 6.40875
1247.69 6.35648
1248.23 6.34776
1248.78 6.38117
1249.05 6.44796
1249.19 6.51543
1249.32 6.63013
1249.46 6.84397
1249.60 7.28657
1249.67 7.70966
1249.73 8.40509
1249.80 9.63549
1249.87 11.8850
1249.94 15.3312
1250.00 17.5825
1250.07 15.2688
1250.13 11.8710
1250.21 9.42654
1250.28 8.17409
1250.36 7.49789
1250.44 7.10205
1250.59 6.68652
1250.74 6.48547
1250.89 6.37049
1251.04 6.29804
1251.34 6.21084
1251.95 6.12171
1252.56 6.06798
1253.77 5.98901
1254.98 5.92261
1259.83 5.69435
1269.53 5.31502
1288.92 4.69266
1308.32 4.12108
1327.71 3.52327
1337.41 3.20561
1347.11 2.88581
1356.80 2.60432
1366.50 2.49491
1371.35 2.62179
1376.20 3.03133
1381.05 4.02239
1383.47 4.92751
1385.90 6.30645
1388.32 8.44308
1390.75 11.8411
1393.17 17.4638
1395.59 27.2980
1398.02 45.9070
1399.23 61.6433
1400.44 85.2405
1401.65 122.132
1402.87 182.611
1404.08 286.548
1405.29 468.981
1406.65 798.434
1408.00 1060.60
1409.36 900.778
1410.71 597.467
1412.12 383.412
1413.53 261.075
1414.94 189.230
1416.36 144.431
1417.77 114.819
1419.18 94.2876
1422.00 68.3575
1424.82 53.1178
1427.65 43.3315
1433.29 31.7816
1438.94 25.3576
1444.58 21.3402
1450.23 18.6192
1453.05 17.5752
1454.46 17.1392
1454.81 17.0576
1455.16 17.0230
1455.34 17.0570
1455.52 17.1953
1455.61 17.3610
1455.69 17.6802
1455.78 18.3425
1455.83 18.9306
1455.87 19.8032
1455.94 21.6842
1456.00 22.9059
1456.07 21.6153
1456.13 19.7264
1456.18 18.7453
1456.23 18.1144
1456.33 17.4040
1456.42 17.0494
1456.52 16.8451
1456.71 16.6180
1456.91 16.4859
1457.30 16.3123
1457.68 16.1797
1459.24 15.7444
1462.34 15.0030
1468.55 13.7914
1480.96 12.0347
1487.17 11.3471
1490.27 11.0244
1493.38 10.7021
1496.48 10.3628
1498.03 10.1787
1499.58 9.98040
1500.36 9.87663
1501.14 9.77385
1501.91 9.68368
1502.69 9.64193
1503.08 9.66977
1503.46 9.77178
1503.85 10.0246
1504.24 10.6101
1504.63 12.0284
1504.82 13.4694
1505.02 15.9928
1505.21 20.7804
1505.40 30.9756
1505.50 40.6229
1505.60 56.5960
1505.70 84.4253
1505.79 133.418
1505.90 220.125
1506.00 287.525
1506.11 244.282
1506.21 164.687
1506.29 120.476
1506.37 91.1492
1506.45 71.7154
1506.53 58.4786
1506.69 42.3763
1506.85 33.4491
1507.01 27.9334
1507.17 24.3169
1507.49 19.9405
1507.81 17.4630
1508.13 15.9104
1508.44 14.8566
1508.76 14.1000
1509.40 13.0914
1510.04 12.4541
1510.68 12.0131
1511.32 11.6890
1512.59 11.2380
1513.87 10.9321
1516.43 10.5249
1518.98 10.2479
1521.53 10.0346
1526.64 9.70532
1536.86 9.22586
1547.07 8.85868
1567.51 8.28690
1587.94 7.82643
1608.37 7.40386
1618.59 7.18259
1628.80 6.93202
1639.02 6.61382
1644.13 6.40348
1649.23 6.12822
1651.79 5.95173
1654.34 5.73591
1656.90 5.46419
1659.45 5.11205
1660.73 4.89637
1662.00 4.65120
1663.28 4.38370
1664.56 4.13555
1665.20 4.06259
1665.83 4.09057
1666.47 4.35124
1667.11 5.17146
1667.43 6.03677
1667.75 7.49503
1668.07 10.0306
1668.39 14.6619
1668.55 18.4239
1668.71 23.8270
1668.87 31.8268
1669.03 44.0235
1669.19 63.7195
1669.35 96.8064
1669.51 156.253
1669.67 264.746
1669.83 455.395
1670.00 610.885
1670.17 524.529
1670.34 352.563
1670.44 272.013
1670.54 213.980
1670.74 141.601
1670.95 101.631
1671.15 77.6855
1671.36 62.2714
1671.56 51.7565
1671.97 38.6703
1672.38 31.0504
1672.79 26.1917
1673.60 20.4687
1674.42 17.2960
1675.23 15.3781
1675.64 14.7569
1676.05 14.4457
1676.25 14.5443
1676.46 15.1303
1676.56 15.8811
1676.66 17.3938
1676.71 18.7179
1676.76 20.7375
1676.82 23.8978
1676.87 28.8480
1676.93 38.4355
1677.00 44.8257
1677.07 38.3032
1677.13 28.5824
1677.19 22.9183
1677.25 19.5494
1677.31 17.4639
1677.37 16.1115
1677.48 14.5348
1677.60 13.6768
1677.72 13.1445
1677.83 12.7797
1678.06 12.2981
1678.53 11.7306
1678.99 11.3565
1679.92 10.8181
1680.85 10.4170
1682.71 9.83016
1684.56 9.41296
1688.28 8.85119
1691.99 8.48560
1695.71 8.22490
1699.42 8.02710
1706.85 7.74053
1714.28 7.53623
1721.71 7.37790
1736.56 7.13683
1766.28 6.79318
1795.99 6.52282
1825.71 6.27535
1855.42 6.02250
1870.28 5.88495
1885.14 5.73331
1892.56 5.65031
1899.99 5.56276
1903.71 5.51951
1907.42 5.48484
1909.28 5.48165
1910.21 5.49149
1911.14 5.52020
1912.06 5.59551
1912.53 5.67515
1912.99 5.82132
1913.23 5.94345
1913.46 6.12514
1913.69 6.41205
1913.92 6.90121
1914.15 7.83209
1914.27 8.64603
1914.39 9.92869
1914.50 12.1063
1914.62 16.1877
1914.68 19.6556
1914.73 24.8800
1914.79 32.9960
1914.85 45.6632
1914.93 70.0400
1915.00 86.0127
1915.08 69.7052
1915.15 45.6711
1915.20 34.8109
1915.25 27.2809
1915.34 18.4932
1915.44 13.9358
1915.53 11.3442
1915.63 9.73709
1915.72 8.69812
1915.91 7.47091
1916.10 6.80109
1916.29 6.40006
1916.67 5.96075
1917.06 5.73624
1917.44 5.60542
1918.20 5.46271
1918.96 5.38678
1919.72 5.33839
1921.24 5.27516
1922.76 5.22968
1924.29 5.19078
1927.33 5.11896
1933.42 4.97216
1939.51 4.80403
1945.60 4.60161
1951.69 4.34932
1957.78 4.02596
1959.30 3.93294
1960.82 3.84058
1961.59 3.80209
1962.35 3.79000
1962.73 3.81894
1963.11 3.93496
1963.30 4.09329
1963.49 4.46125
1963.58 4.84478
1963.68 5.55572
1963.73 6.15772
1963.77 7.03019
1963.82 8.38330
1963.87 10.3952
1963.93 14.4893
1964.00 17.2217
1964.07 14.4782
1964.13 10.3731
1964.21 7.48984
1964.28 5.99353
1964.36 5.17762
1964.43 4.69647
1964.58 4.18739
1964.73 3.93735
1965.03 3.70183
1965.33 3.58877
1965.93 3.46593
1966.53 3.38471
1968.93 3.12836
1971.33 2.89808
1973.73 2.75270
1974.93 2.78126
1976.13 2.97653
1977.32 3.52508
1978.52 4.87629
1979.12 6.17758
1979.72 8.27960
1980.32 11.8005
1980.92 18.0047
1981.52 29.8373
1981.82 39.8814
1982.12 54.9020
1982.42 78.4512
1982.72 117.003
1983.02 183.023
1983.32 297.746
1983.66 508.028
1984.00 677.824
1984.34 580.956
1984.68 389.237
1984.92 288.572
1985.16 219.222
1985.40 171.369
1985.64 137.964
1986.12 95.9795
1986.60 71.9198
1987.07 56.8287
1987.55 46.7361
1988.51 34.4169
1989.47 27.3657
1990.43 22.9032
1991.38 19.8604
1992.34 17.6760
1994.26 14.7732
1996.17 12.9512
1998.09 11.7098
2000.00 10.8127
2002.56 9.94418
2005.11 9.31129
2010.22 8.44720
2015.33 7.87870
2020.43 7.46924
2025.54 7.15338
2030.65 6.89634
2033.21 6.78373
2035.76 6.68200
2037.04 6.63843
2038.31 6.61033
2038.95 6.61539
2039.59 6.66977
2039.91 6.75773
2040.23 6.98963
2040.39 7.26430
2040.55 7.85106
2040.63 8.42833
2040.71 9.43562
2040.79 11.3489
2040.87 15.1282
2040.93 20.3004
2041.00 23.7395
2041.07 20.2964
2041.13 15.1194
2041.17 12.8822
2041.21 11.3009
2041.29 9.41444
2041.37 8.41031
2041.45 7.82877
2041.61 7.22339
2041.77 6.93667
2042.08 6.67816
2042.40 6.56504
2043.03 6.46104
2043.67 6.40689
2044.94 6.33668
2046.20 6.28112
2048.74 6.17992
2051.27 6.08063
2056.35 5.87088
2061.42 5.62497
2063.95 5.47690
2066.49 5.30187
2069.02 5.08673
2071.56 4.81126
2072.83 4.64178
2074.09 4.44600
2075.36 4.22361
2076.63 3.99175
2077.26 3.89420
2077.90 3.84561
2078.53 3.92175
2079.16 4.31729
2079.80 5.61238
2080.11 7.11268
2080.43 9.95183
2080.59 12.3159
2080.75 15.7483
2080.91 20.9611
2081.07 29.0967
2081.22 42.6164
2081.38 66.1751
2081.46 84.6286
2081.54 110.227
2081.62 146.069
2081.70 195.988
2081.85 335.941
2082.00 451.000
2082.15 388.338
2082.30 261.521
2082.46 172.122
2082.61 120.183
2082.76 88.9499
2082.92 69.3549
2083.07 56.1930
2083.22 47.0462
2083.53 35.3431
2083.84 28.3960
2084.14 23.8963
2084.76 18.5445
2085.37 15.5319
2085.99 13.6345
2086.60 12.3422
2087.21 11.4121
2088.44 10.1657
2089.67 9.37449
2090.89 8.82830
2092.12 8.42841
2094.58 7.88016
2097.03 7.51936
2099.49 7.26119
2101.94 7.06525
2106.85 6.78198
2111.76 6.58130
2121.58 6.30088
2131.40 6.10010
2141.22 5.93974
2146.13 5.87044
2151.04 5.81124
2153.49 5.79107
2154.72 5.78759
2155.95 5.79463
2157.17 5.82744
2157.79 5.86723
2158.40 5.94434
2159.01 6.11149
2159.32 6.27440
2159.63 6.55836
2159.93 7.12040
2160.09 7.63278
2160.24 8.46715
2160.40 9.97811
2160.47 11.2278
2160.55 13.0597
2160.63 15.9627
2160.70 20.7221
2160.78 29.2744
2160.85 44.7666
2160.93 68.2495
2161.00 83.9060
2161.07 68.2105
2161.15 44.7170
2161.20 33.3390
2161.25 25.8664
2161.30 20.7603
2161.35 17.3315
2161.45 13.1113
2161.55 10.7851
2161.65 9.38453
2161.75 8.48147
2161.95 7.43126
2162.16 6.86890
2162.36 6.53347
2162.76 6.16975
2163.17 5.98611
2163.57 5.87958
2164.38 5.76454
2165.19 5.70419
2165.99 5.66628
2167.61 5.61815
2170.84 5.55828
2174.07 5.51216
2180.54 5.43025
2187.00 5.35275
2193.46 5.27726
2199.93 5.20505
2203.16 5.17326
2206.39 5.15418
2208.01 5.16203
2208.82 5.17934
2209.62 5.21841
2210.43 5.31060
2210.84 5.40435
2211.24 5.57309
2211.64 5.91709
2211.85 6.23863
2212.05 6.78125
2212.25 7.79953
2212.35 8.67745
2212.45 10.0412
2212.55 12.3098
2212.65 16.4317
2212.70 19.8648
2212.75 24.7811
2212.80 32.0976
2212.85 42.9748
2212.93 65.8115
2213.00 81.0731
2213.07 65.8385
2213.15 43.0077
2213.20 31.2559
2213.26 23.7743
2213.31 18.8864
2213.36 15.6024
2213.47 11.6613
2213.58 9.55536
2213.69 8.29310
2213.80 7.49456
2214.01 6.57204
2214.23 6.07916
2214.45 5.78769
2214.66 5.59938
2214.88 5.47147
2215.31 5.31149
2215.75 5.21861
2216.61 5.11731
2217.48 5.06299
2218.35 5.02798
2220.08 4.98161
2223.54 4.91950
2227.01 4.86841
2233.94 4.77402
2237.40 4.73527
2238.27 4.73262
2239.14 4.74609
2239.57 4.77329
2240.00 4.85187
2240.22 4.95123
2240.44 5.18072
2240.55 5.42737
2240.65 5.89729
2240.71 6.30567
2240.76 6.93434
2240.82 7.93809
2240.87 9.55474
2240.94 12.4909
2241.00 14.4022
2241.07 12.4416
2241.13 9.55097
2241.17 8.28272
2241.21 7.38860
2241.29 6.31601
2241.37 5.75125
2241.45 5.42990
2241.61 5.09585
2241.77 4.93741
2242.09 4.79645
2242.40 4.73596
2243.04 4.68247
2243.68 4.65653
2246.22 4.60234
2251.31 4.52226
2261.50 4.36327
2266.59 4.28136
2271.68 4.20043
2274.22 4.16398
2276.77 4.14064
2278.04 4.14675
2278.68 4.16330
2279.31 4.20148
2279.95 4.29200
2280.27 4.38344
2280.59 4.54652
2280.91 4.87373
2281.06 5.17418
2281.22 5.67139
2281.38 6.57686
2281.46 7.33917
2281.54 8.47170
2281.62 10.2968
2281.70 13.3640
2281.78 19.0673
2281.86 29.8917
2281.93 45.6009
2282.00 55.9136
2282.07 45.3991
2282.14 29.9333
2282.23 18.6263
2282.31 12.9933
2282.39 9.95219
2282.48 8.21236
2282.56 7.11537
2282.64 6.39949
2282.81 5.54441
2282.98 5.07236
2283.14 4.78664
2283.48 4.47339
2283.81 4.31294
2284.14 4.21986
2284.81 4.12045
2285.48 4.07127
2286.14 4.04505
2287.47 4.03227
2288.81 4.07720
2289.48 4.14210
2290.14 4.27167
2290.81 4.55415
2291.14 4.82751
2291.47 5.30085
2291.81 6.22172
2291.98 7.04169
2292.14 8.34712
2292.31 10.6292
2292.47 15.0320
2292.56 18.9627
2292.64 25.0376
2292.72 34.9174
2292.81 51.1955
2292.90 79.8258
2293.00 98.6604
2293.10 79.5146
2293.19 51.1990
2293.29 32.4691
2293.39 22.2717
2293.49 16.4575
2293.59 12.9302
2293.69 10.6606
2293.79 9.12530
2293.99 7.25298
2294.18 6.20341
2294.38 5.55818
2294.78 4.83901
2295.17 4.46682
2295.57 4.24778
2296.36 4.00893
2297.15 3.88321
2297.95 3.80460
2299.53 3.70597
2301.12 3.63921
2302.70 3.58512
2305.87 3.49137
2312.20 3.31775
2318.54 3.14229
2331.21 2.77236
2343.89 2.40833
2350.22 2.27146
2356.56 2.23274
2362.90 2.42827
2369.23 3.20005
2372.40 4.05617
2375.57 5.53337
2378.74 8.13812
2381.91 12.9382
2383.49 16.8404
2385.08 22.4422
2386.66 30.7249
2388.24 43.4130
2389.83 63.6989
2391.41 97.7859
2393.00 158.052
2394.58 267.344
2396.29 462.967
2398.00 625.345
2399.71 539.816
2401.42 363.640
2403.00 248.005
2404.58 176.867
2406.16 132.602
2407.75 103.810
2410.91 70.2296
2414.07 52.1665
2417.23 41.2708
2420.40 34.1403
2426.72 25.5571
2433.04 20.6766
2439.37 17.5679
2445.69 15.4221
2452.02 13.8486
2464.67 11.6594
2477.32 10.1110
2483.64 9.42173
2486.80 9.06914
2489.97 8.69385
2493.13 8.27916
2494.71 8.05651
2496.29 7.84037
2497.08 7.75270
2497.87 7.70688
2498.66 7.75914
2499.45 8.05154
2500.24 8.99922
2500.64 10.0811
2501.03 12.1042
2501.43 16.1944
2501.63 19.8256
2501.82 25.4512
2502.02 34.6935
2502.22 50.6189
2502.42 80.1405
2502.61 136.323
2502.81 229.230
2503.00 304.902
2503.19 261.954
2503.39 177.419
2503.54 128.498
2503.70 96.3750
2503.85 75.2785
2504.00 60.9979
2504.31 43.7072
2504.62 34.1174
2504.93 28.2056
2505.23 24.3064
2505.85 19.5689
2506.46 16.8668
2507.08 15.1486
2508.31 13.1130
2509.54 11.9527
2510.77 11.2007
2513.23 10.2653
2515.69 9.68303
2518.15 9.26591
2523.07 8.66293
2527.99 8.20172
2532.91 7.79982
2542.75 7.03464
2552.60 6.16902
2557.52 5.63358
2562.44 4.97688
2564.90 4.58652
2567.36 4.14902
2569.82 3.67334
2572.28 3.21942
2574.74 3.05037
2575.97 3.36317
2577.20 4.44702
2577.82 5.59651
2578.43 7.52229
2579.05 10.8074
2579.66 16.6161
2580.28 27.4781
2580.58 36.4602
2580.89 49.4842
2581.20 69.0300
2581.51 99.0307
2581.81 146.543
2582.12 221.588
2582.56 391.315
2583.00 539.326
2583.44 476.235
2583.88 328.035
2584.32 222.092
2584.76 158.322
2585.19 119.232
2585.63 94.1486
2586.07 77.1233
2586.51 65.0932
2587.38 49.5244
2588.25 40.1081
2589.13 33.9216
2590.88 26.4324
2592.63 22.1373
2594.38 19.3879
2596.13 17.4867
2597.88 16.0995
2601.38 14.2125
2604.87 12.9890
2608.37 12.1290
2611.87 11.4889
2618.87 10.5925
2625.87 9.98745
2629.37 9.75189
2632.87 9.55074
2634.62 9.46405
2636.37 9.39442
2637.24 9.37639
2638.11 9.39921
2638.55 9.46124
2638.99 9.64831
2639.21 9.88699
2639.43 10.4370
2639.54 11.0242
2639.65 12.1323
2639.70 13.0959
2639.75 14.5367
2639.81 16.8487
2639.86 20.4443
2639.93 27.2141
2640.00 31.6305
2640.07 27.1074
2640.14 20.4374
2640.19 17.0519
2640.24 14.8292
2640.29 13.3678
2640.34 12.3976
2640.44 11.2072
2640.54 10.5652
2640.73 9.92904
2640.93 9.63905
2641.33 9.38363
2641.73 9.27241
2642.52 9.16806
2643.32 9.11217
2644.90 9.04149
2646.49 8.99684
2648.08 8.98353
2648.88 9.00129
2649.67 9.05680
2650.47 9.20292
2650.86 9.35626
2651.26 9.63504
2651.66 10.2047
2651.86 10.7373
2652.05 11.6271
2652.25 13.2906
2652.35 14.7043
2652.45 16.8756
2652.55 20.4772
2652.65 26.8273
2652.75 39.2537
2652.80 50.0419
2652.85 65.3881
2652.92 99.6103
2653.00 122.010
2653.08 99.0783
2653.15 65.3130
2653.23 43.6303
2653.31 31.4450
2653.38 24.4019
2653.46 20.0887
2653.53 17.2950
2653.61 15.3962
2653.76 13.0700
2653.91 11.7605
2654.07 10.9537
2654.37 10.0552
2654.67 9.58854
2654.98 9.31549
2655.28 9.13966
2655.58 9.01941
2656.19 8.86629
2656.80 8.77343
2658.01 8.66368
2659.23 8.59870
2660.44 8.56169
2661.05 8.56068
2661.65 8.59795
2661.96 8.66228
2662.26 8.83337
2662.41 9.03533
2662.57 9.46648
2662.64 9.88391
2662.72 10.6019
2662.79 11.9357
2662.87 14.4892
2662.93 18.1279
2663.00 20.5685
2663.07 18.1669
2663.13 14.5350
2663.19 12.4722
2663.24 11.2256
2663.30 10.4466
2663.35 9.94054
2663.46 9.35682
2663.57 9.05017
2663.79 8.75591
2664.01 8.62293
2664.45 8.50478
2664.89 8.45057
2665.77 8.39384
2666.65 8.35823
2670.18 8.25789
2673.70 8.17459
2677.22 8.09805
2691.31 7.83094
2719.48 7.40501
2733.57 7.22389
2747.66 7.05668
2754.70 6.97850
2761.74 6.90819
2765.27 6.88213
2767.03 6.87592
2768.79 6.88084
2770.55 6.91339
2771.43 6.95504
2772.31 7.03766
2773.19 7.22025
2773.63 7.40065
2774.07 7.72072
2774.51 8.36524
2774.73 8.96243
2774.95 9.96275
2775.17 11.8211
2775.28 13.4075
2775.39 15.8476
2775.50 19.8513
2775.61 26.9817
2775.72 40.9897
2775.78 53.0537
2775.83 70.6352
2775.92 109.403
2776.00 134.924
2776.09 108.944
2776.17 70.6704
2776.24 49.5624
2776.31 36.5824
2776.37 28.3813
2776.44 23.0133
2776.58 16.7499
2776.72 13.4810
2776.85 11.5576
2776.99 10.3526
2777.26 8.97308
2777.53 8.24831
2777.81 7.82122
2778.08 7.54831
2778.35 7.36363
2778.90 7.13428
2779.44 7.00221
2780.53 6.86012
2781.63 6.78581
2782.72 6.73928
2784.90 6.68025
2789.26 6.60648
2793.63 6.54902
2802.36 6.44498
2811.09 6.34364
2828.55 6.13621
2846.01 5.91362
2863.47 5.66609
2880.93 5.38121
2889.66 5.21992
2898.38 5.04444
2902.75 4.95343
2907.11 4.86944
2909.30 4.84271
2910.39 4.84234
2911.48 4.86380
2912.57 4.93954
2913.12 5.02689
2913.66 5.19279
2913.93 5.33363
2914.21 5.54650
2914.48 5.88673
2914.75 6.47186
2915.03 7.60786
2915.16 8.62270
2915.30 10.2377
2915.44 13.0697
2915.57 18.5417
2915.64 23.3682
2915.71 30.9154
2915.78 43.2233
2915.84 63.5692
2915.92 99.1872
2916.00 122.527
2916.08 98.6857
2916.16 63.5410
2916.23 43.1930
2916.29 31.0235
2916.36 23.5104
2916.43 18.6792
2916.56 13.1692
2916.69 10.3145
2916.83 8.65340
2916.96 7.62031
2917.23 6.44769
2917.50 5.83085
2917.77 5.46818
2918.04 5.23505
2918.30 5.07538
2918.84 4.87382
2919.38 4.75337
2920.45 4.61354
2921.52 4.52938
2922.60 4.46751
2924.74 4.36994
2929.03 4.20314
2933.33 4.03780
2941.91 3.67471
2950.49 3.24980
2959.08 2.75921
2963.37 2.50202
2967.66 2.26610
2971.95 2.12024
2976.25 2.25822
2978.39 2.59257
2980.54 3.32332
2981.61 3.96110
2982.68 4.94462
2983.22 5.68521
2983.76 6.83217
2984.03 7.80071
2984.29 9.54335
2984.43 11.1516
2984.56 14.0002
2984.63 16.3600
2984.70 19.8828
2984.76 25.3429
2984.83 33.8952
2984.92 49.8348
2985.00 60.5349
2985.09 50.2190
2985.17 34.6489
2985.23 27.2852
2985.29 22.4348
2985.40 16.9962
2985.51 14.4125
2985.63 13.1151
2985.86 12.1660
2986.08 12.1459
2986.54 13.1673
2987.00 14.9247
2987.91 20.2724
2988.82 28.9441
2989.73 43.5137
2990.65 69.5875
2991.56 120.255
2992.01 162.971
2992.47 224.096
2993.24 371.953
2994.00 480.380
2994.77 395.878
2995.53 253.435
2996.25 162.997
2996.96 109.039
2997.68 76.1344
2998.40 54.9880
2999.11 40.6235
2999.83 30.4109
3001.26 17.0808
3001.98 12.6631
3002.69 9.43756
3003.41 7.54714
3003.77 7.28035
3004.13 7.66592
3004.48 8.97848
3004.84 11.6512
3005.20 16.4164
3005.56 24.5172
3005.92 38.1286
3006.27 61.1440
3006.63 100.530
3006.99 167.837
3007.50 332.499
3008.00 504.378
3008.25 519.259
3008.51 480.792
3009.01 352.413
3009.35 279.569
3009.69 225.304
3010.37 156.561
3011.04 117.679
3011.72 93.7271
3012.40 77.8187
3013.07 66.6480
3014.43 52.1420
3015.78 43.2427
3017.14 37.3660
3017.82 35.2408
3018.15 34.4029
3018.49 33.7895
3018.83 33.5817
3019.00 33.7837
3019.17 34.4045
3019.34 35.8862
3019.42 37.2593
3019.51 39.3894
3019.59 42.9113
3019.68 48.9105
3019.76 60.0615
3019.85 81.0197
3019.92 111.824
3020.00 132.335
3020.08 111.565
3020.15 80.4596
3020.22 62.0474
3020.29 51.0444
3020.36 44.3393
3020.43 40.0986
3020.57 35.1449
3020.70 32.5133
3020.84 30.8913
3020.98 29.8008
3021.25 28.3735
3021.53 27.4290
3021.80 26.7109
3022.35 25.6024
3022.90 24.7116
3023.45 23.9427
3024.55 22.6329
3026.75 20.5728
3028.95 18.9907
3033.35 16.6922
3037.74 15.0948
3046.54 13.0101
3055.33 11.7012
3064.13 10.7949
3072.92 10.1236
3090.51 9.17392
3108.10 8.50217
3125.69 7.96093
3143.28 7.46544
3152.07 7.21481
3156.47 7.09451
3157.57 7.07287
3158.67 7.07222
3159.22 7.09930
3159.76 7.19696
3160.04 7.33081
3160.31 7.65989
3160.45 8.03062
3160.59 8.78081
3160.66 9.47999
3160.73 10.6085
3160.80 12.5977
3160.86 16.0964
3160.93 21.6228
3161.00 25.2320
3161.07 21.5339
3161.14 16.0887
3161.18 13.4636
3161.23 11.7267
3161.32 9.73411
3161.42 8.72310
3161.51 8.16618
3161.69 7.60411
3161.88 7.34332
3162.25 7.11309
3162.62 7.01312
3163.36 6.91954
3164.10 6.86890
3165.57 6.79931
3167.05 6.74109
3172.97 6.51867
3178.88 6.28541
3184.80 6.05188
3187.76 5.95391
3190.72 5.89949
3193.67 5.95186
3196.63 6.27197
3199.59 7.32980
3201.07 8.54663
3202.55 10.8230
3204.02 15.3974
3204.76 19.4323
3205.50 25.6609
3206.24 35.7416
3206.98 52.8888
3207.72 83.7311
3208.46 140.854
3209.23 240.496
3210.00 323.342
3210.77 280.031
3211.54 190.323
3212.08 143.396
3212.61 110.752
3213.15 88.1628
3213.69 72.2300
3214.76 52.0917
3215.83 40.4453
3216.90 33.0998
3217.98 28.1609
3220.12 22.0766
3222.27 18.5635
3224.41 16.3174
3228.70 13.6554
3232.99 12.1514
3237.28 11.1936
3239.43 10.8390
3241.57 10.5539
3242.64 10.4477
3243.72 10.4046
3244.25 10.4552
3244.52 10.5312
3244.79 10.6841
3245.06 11.0094
3245.19 11.3125
3245.32 11.8123
3245.46 12.7069
3245.59 14.5089
3245.66 16.1539
3245.73 18.8142
3245.79 23.3507
3245.86 31.2725
3245.93 44.0769
3246.00 52.6384
3246.07 44.0791
3246.14 31.2647
3246.18 25.5784
3246.23 21.6960
3246.31 17.0578
3246.40 14.6017
3246.49 13.2118
3246.57 12.3412
3246.66 11.7741
3246.83 11.0954
3247.00 10.7165
3247.18 10.4825
3247.52 10.2141
3247.87 10.0633
3248.21 9.96440
3248.90 9.83341
3250.29 9.66636
3251.67 9.54085
3254.43 9.33403
3257.20 9.15806
3262.72 8.86157
3268.25 8.61433
3279.30 8.20482
3290.36 7.84439
3301.41 7.46625
3306.94 7.24070
3312.47 6.95930
3315.23 6.78286
3317.99 6.56870
3320.76 6.29841
3323.52 5.94210
3324.90 5.71710
3326.28 5.45053
3327.67 5.13538
3329.05 4.77734
3329.74 4.59797
3330.43 4.44935
3331.12 4.39917
3331.81 4.62589
3332.50 5.65710
3332.85 6.93682
3333.19 9.38161
3333.37 11.4043
3333.54 14.3240
3333.71 18.6385
3333.88 25.1541
3334.06 35.4567
3334.23 52.1873
3334.40 80.7108
3334.57 129.443
3334.79 228.954
3335.00 317.398
3335.21 281.854
3335.43 195.540
3335.60 141.931
3335.78 106.666
3335.96 83.5086
3336.13 67.8869
3336.49 48.8064
3336.84 38.0943
3337.19 31.4464
3337.55 27.0033
3338.25 21.5443
3338.96 18.3818
3339.66 16.3472
3340.37 14.9398
3341.08 13.9132
3342.49 12.5218
3343.90 11.6275
3345.31 11.0051
3346.72 10.5468
3349.55 9.91602
3352.37 9.50045
3355.20 9.20373
3358.02 8.97977
3363.67 8.65995
3369.32 8.43829
3380.62 8.14093
3391.92 7.94204
3397.56 7.86390
3403.21 7.79668
3408.86 7.74099
3414.51 7.70573
3417.34 7.70981
3418.75 7.72756
3420.16 7.77056
3421.57 7.87530
3422.28 7.98353
3422.98 8.18083
3423.34 8.34482
3423.69 8.59039
3424.04 8.98055
3424.40 9.65301
3424.75 10.9570
3424.93 12.1254
3425.10 13.9980
3425.28 17.3047
3425.46 23.7985
3425.54 29.7029
3425.63 39.0152
3425.72 54.5655
3425.81 81.0248
3425.90 125.054
3426.00 154.378
3426.10 125.024
3426.19 80.9892
3426.25 61.5026
3426.31 47.9017
3426.43 31.7836
3426.55 23.4063
3426.67 18.6379
3426.79 15.7042
3426.91 13.7837
3427.15 11.5245
3427.39 10.2922
3427.63 9.55434
3428.11 8.74796
3428.59 8.34094
3429.07 8.10661
3430.03 7.85925
3430.98 7.73598
3431.94 7.66410
3433.86 7.58385
3435.78 7.53840
3437.69 7.50715
3441.52 7.46237
3449.19 7.39747
3456.85 7.34391
3464.52 7.29553
3472.19 7.25052
3487.52 7.16776
3502.85 7.09240
3518.18 7.02351
3525.84 6.99227
3533.51 6.96636
3537.34 6.95965
3541.17 6.96981
3543.09 6.99743
3544.05 7.02846
3545.01 7.08748
3545.96 7.21483
3546.44 7.33998
3546.92 7.56216
3547.40 8.01221
3547.64 8.43387
3547.88 9.14451
3548.12 10.4927
3548.24 11.6656
3548.36 13.4863
3548.48 16.5764
3548.60 22.3098
3548.66 27.1309
3548.72 34.3203
3548.78 45.3432
3548.84 61.9384
3548.92 95.0935
3549.00 117.256
3549.08 95.1191
3549.16 61.9708
3549.22 46.2946
3549.27 35.8695
3549.38 23.8907
3549.49 17.8544
3549.60 14.4857
3549.70 12.4404
3549.81 11.1140
3550.03 9.56290
3550.24 8.72859
3550.46 8.23003
3550.89 7.68990
3551.32 7.41855
3551.76 7.26363
3552.62 7.10136
3553.49 7.02162
3554.35 6.97601
3556.08 6.92698
3559.53 6.88526
3562.99 6.86733
3566.45 6.86371
3569.91 6.89040
3571.63 6.94184
3572.50 6.99633
3573.36 7.09727
3574.23 7.31106
3574.66 7.51810
3575.09 7.88129
3575.52 8.60441
3575.74 9.26817
3575.96 10.3700
3576.17 12.3900
3576.28 14.0914
3576.39 16.6727
3576.50 20.8276
3576.60 28.0213
3576.71 41.5575
3576.82 68.4771
3576.91 105.634
3577.00 130.032
3577.09 105.302
3577.18 68.6073
3577.24 52.6184
3577.29 41.5023
3577.40 27.9424
3577.51 20.7613
3577.62 16.6518
3577.73 14.0728
3577.83 12.3749
3578.05 10.3667
3578.27 9.26486
3578.49 8.60299
3578.92 7.87848
3579.36 7.51100
3579.79 7.29956
3580.66 7.07744
3581.53 6.96798
3582.40 6.90534
3584.14 6.83807
3587.61 6.78003
3591.09 6.75081
3598.05 6.71338
3605.00 6.68447
3611.96 6.65955
3618.91 6.64075
3622.39 6.63841
3625.87 6.65540
3627.61 6.68978
3628.47 6.72664
3629.34 6.79528
3630.21 6.94105
3630.65 7.08257
3631.08 7.33034
3631.52 7.82508
3631.73 8.27850
3631.95 9.03122
3632.17 10.4207
3632.28 11.5951
3632.39 13.3627
3632.50 16.2407
3632.60 21.1919
3632.71 30.6423
3632.77 38.4143
3632.82 49.3764
3632.91 74.9734
3633.00 92.0028
3633.09 74.9730
3633.18 49.3764
3633.26 34.0438
3633.34 25.0803
3633.43 19.6126
3633.51 16.2049
3633.67 12.3620
3633.83 10.4071
3634.00 9.28960
3634.16 8.59449
3634.48 7.81502
3634.81 7.40941
3635.13 7.17323
3635.79 6.92168
3636.44 6.79708
3637.09 6.72605
3638.39 6.65089
3641.00 6.58938
3643.60 6.56129
3648.81 6.52916
3654.02 6.50616
3664.44 6.47067
3667.05 6.46665
3669.65 6.47325
3670.95 6.49080
3672.26 6.54754
3672.91 6.62701
3673.56 6.84015
3673.88 7.11079
3674.05 7.35890
3674.21 7.76669
3674.37 8.51487
3674.45 9.14697
3674.53 10.0901
3674.62 11.6179
3674.70 14.2064
3674.78 18.9904
3674.86 28.2716
3674.93 41.4452
3675.00 50.0556
3675.07 41.2782
3675.14 28.3095
3675.20 21.1683
3675.25 16.7544
3675.31 13.9457
3675.37 12.0974
3675.48 9.94052
3675.59 8.79845
3675.70 8.12394
3675.82 7.70140
3676.04 7.21811
3676.26 6.96248
3676.49 6.81238
3676.94 6.65085
3677.84 6.52378
3678.73 6.47435
3680.53 6.43333
3682.32 6.41429
3685.91 6.39211
3689.50 6.37598
3696.69 6.35006
3700.28 6.34692
3702.07 6.37801
3702.52 6.41206
3702.97 6.50133
3703.20 6.61085
3703.42 6.86188
3703.53 7.12865
3703.64 7.64253
3703.76 8.78738
3703.81 9.90766
3703.87 11.7307
3703.93 14.9875
3704.00 17.1103
3704.07 14.9393
3704.13 11.7348
3704.19 9.78714
3704.25 8.65530
3704.38 7.53348
3704.50 7.04845
3704.62 6.80181
3704.86 6.57302
3705.10 6.47446
3705.58 6.39264
3706.07 6.36024
3708.00 6.32649
3709.93 6.34581
3710.42 6.37519
3710.90 6.45512
3711.14 6.55505
3711.38 6.78807
3711.50 7.04139
3711.63 7.54103
3711.75 8.69912
3711.81 9.86874
3711.87 11.8406
3711.93 15.1971
3712.00 17.4500
3712.07 15.2153
3712.13 11.8629
3712.20 9.64849
3712.27 8.45368
3712.41 7.36149
3712.55 6.91491
3712.69 6.69718
3712.97 6.49925
3713.24 6.41519
3713.80 6.34588
3714.35 6.31774
3716.56 6.28168
3720.99 6.25679
3729.85 6.22033
3747.56 6.14992
3782.99 6.00146
3800.70 5.92123
3818.41 5.83594
3836.12 5.74767
3840.55 5.72835
3844.98 5.71832
3847.19 5.72662
3849.41 5.77279
3850.51 5.84648
3851.07 5.92156
3851.62 6.05718
3852.18 6.33738
3852.45 6.60297
3852.73 7.05614
3853.01 7.92962
3853.14 8.70555
3853.28 9.93440
3853.42 12.0744
3853.56 16.1673
3853.63 19.7386
3853.70 25.2621
3853.77 34.1398
3853.84 48.5598
3853.92 74.4866
3854.00 91.5128
3854.08 74.2308
3854.17 48.6561
3854.24 32.6573
3854.32 23.5569
3854.40 18.1207
3854.48 14.7868
3854.64 11.0813
3854.79 9.22167
3854.95 8.16729
3855.11 7.51484
3855.42 6.78482
3855.74 6.40759
3856.05 6.18749
3856.68 5.95340
3857.30 5.83657
3857.93 5.76919
3859.19 5.69605
3861.70 5.63165
3864.21 5.59795
3869.23 5.55193
3874.25 5.51300
3884.29 5.43714
3894.33 5.35758
3914.41 5.17782
3934.50 4.95897
3954.58 4.68526
3964.62 4.52531
3974.66 4.35904
3984.70 4.23071
3989.72 4.22955
3994.74 4.35251
3999.77 4.78665
4002.28 5.26490
4004.79 6.10142
4007.30 7.61822
4009.81 10.5452
4011.06 13.0461
4012.32 16.8505
4012.94 19.5646
4013.57 23.2456
4013.89 25.7804
4014.20 29.4252
4014.36 32.2283
4014.51 36.6824
4014.59 40.2258
4014.67 45.4052
4014.75 53.5447
4014.83 66.7594
4014.91 88.6730
4015.00 103.486
4015.09 90.2509
4015.17 70.0511
4015.28 56.0878
4015.38 49.5881
4015.48 46.6588
4015.58 45.5073
4015.78 45.7122
4015.98 47.5019
4016.38 53.3519
4016.78 61.2675
4017.58 83.5228
4018.38 116.736
4019.69 198.858
4021.00 266.532
4022.31 229.746
4023.62 155.298
4025.18 96.6081
4026.73 65.2725
4027.51 55.3896
4028.29 47.9914
4028.68 45.1159
4029.07 42.9801
4029.26 42.4523
4029.45 42.8513
4029.55 43.8444
4029.65 46.0323
4029.75 50.7469
4029.79 54.9471
4029.84 60.9351
4029.92 75.0522
4030.00 84.4618
4030.08 74.4868
4030.16 59.6163
4030.25 48.8037
4030.34 43.0702
4030.43 39.7925
4030.53 37.7318
4030.71 35.1992
4030.89 33.6073
4031.26 31.4470
4031.62 29.8367
4032.36 27.2939
4033.09 25.2477
4034.55 22.0562
4036.02 19.6648
4038.94 16.3369
4041.87 14.1557
4047.73 11.5109
4053.58 9.98541
4059.44 8.99579
4065.30 8.29879
4077.01 7.36446
4088.72 6.73912
4100.44 6.26073
4112.15 5.85664
4118.00 5.67776
4119.47 5.64216
4120.93 5.62629
4121.66 5.64403
4122.40 5.72958
4122.76 5.85644
4123.13 6.18667
4123.31 6.57806
4123.49 7.43286
4123.59 8.29209
4123.68 9.80861
4123.77 12.8279
4123.82 15.4382
4123.86 19.1506
4123.93 27.3434
4124.00 32.8030
4124.07 27.3499
4124.14 19.1554
4124.22 13.3113
4124.30 10.3119
4124.38 8.69300
4124.46 7.74732
4124.63 6.76086
4124.79 6.29081
4125.11 5.86875
4125.43 5.68829
4126.08 5.53225
4126.73 5.46019
4128.02 5.38042
4129.31 5.32549
4134.48 5.14811
4144.82 4.81312
4155.16 4.47592
4165.50 4.16479
4175.84 4.02571
4181.01 4.18140
4186.18 4.76310
4191.35 6.42087
4193.94 8.17353
4196.52 11.2282
4199.11 16.8163
4201.69 27.7647
4202.98 37.1552
4204.28 51.1567
4205.57 72.4407
4206.86 104.741
4208.93 185.576
4211.00 257.827
4213.07 229.782
4215.14 160.079
4216.76 118.728
4218.37 90.7150
4219.99 71.8529
4221.60 58.8277
4224.83 42.6735
4228.07 33.4462
4231.30 27.6545
4234.53 23.7549
4240.99 18.9265
4247.45 16.1074
4253.92 14.2862
4257.15 13.6054
4260.38 13.0440
4261.99 12.8143
4263.61 12.6547
4264.42 12.6486
4264.82 12.6968
4265.23 12.8238
4265.63 13.1319
4265.83 13.4386
4266.03 13.9679
4266.24 14.9684
4266.34 15.8275
4266.44 17.1499
4266.54 19.3143
4266.64 23.1438
4266.74 30.5730
4266.79 36.8107
4266.84 45.7624
4266.92 66.0475
4267.00 79.5973
4267.08 66.0093
4267.16 45.7001
4267.22 36.0035
4267.27 29.5883
4267.32 25.2525
4267.38 22.2583
4267.49 18.5820
4267.59 16.5333
4267.70 15.2789
4267.81 14.4715
4268.03 13.5183
4268.24 12.9931
4268.46 12.6714
4268.89 12.3004
4269.33 12.0910
4269.76 11.9513
4270.62 11.7623
4272.36 11.5115
4274.09 11.3171
4277.55 10.9903
4281.01 10.7099
4287.94 10.2402
4291.41 10.0438
4293.14 9.96641
4294.00 9.97469
4294.44 10.1034
4294.65 10.4133
4294.76 10.8708
4294.87 12.0471
4294.93 13.3470
4295.00 14.2241
4295.07 13.3347
4295.13 12.0269
4295.24 10.8408
4295.35 10.3738
4295.56 10.0438
4296.00 9.87301
4296.86 9.77876
4298.59 9.68251
4302.06 9.52724
4308.98 9.26204
4312.44 9.15023
4315.91 9.06365
4317.64 9.04613
4319.37 9.09415
4320.23 9.20278
4320.67 9.31962
4321.10 9.53361
4321.53 9.97455
4321.75 10.3879
4321.96 11.0793
4322.18 12.3708
4322.29 13.4672
4322.40 15.1478
4322.51 17.8903
4322.61 22.7322
4322.72 32.1119
4322.78 40.0784
4322.83 51.5551
4322.92 77.4987
4323.00 94.6116
4323.09 77.3065
4323.17 51.7142
4323.26 35.1455
4323.34 25.9799
4323.43 20.6314
4323.51 17.3996
4323.60 15.2829
4323.68 13.8616
4323.85 12.1157
4324.03 11.1251
4324.20 10.5172
4324.54 9.83396
4324.88 9.47865
4325.22 9.26873
4325.90 9.03891
4326.58 8.91743
4327.27 8.84166
4328.63 8.74743
4331.36 8.63666
4334.09 8.55740
4339.54 8.42782
4345.00 8.31672
4350.46 8.21950
4355.92 8.14133
4358.65 8.11888
4361.37 8.13540
4362.74 8.19258
4363.42 8.25713
4364.10 8.37851
4364.79 8.63465
4365.13 8.88034
4365.47 9.30561
4365.81 10.1353
4365.98 10.8840
4366.15 12.0937
4366.32 14.2589
4366.41 16.0188
4366.49 18.6091
4366.58 22.6702
4366.66 29.2553
4366.75 40.6888
4366.83 61.1277
4366.92 92.9677
4367.00 113.637
4367.09 92.0208
4367.17 60.4441
4367.24 43.2437
4367.31 32.4777
4367.37 25.6846
4367.44 21.2989
4367.58 16.1320
4367.71 13.4366
4367.85 11.8528
4367.98 10.8623
4368.25 9.73198
4368.52 9.14134
4368.80 8.79555
4369.34 8.42909
4369.88 8.25084
4370.42 8.15340
4371.51 8.06896
4372.59 8.07532
4373.13 8.12156
4373.67 8.22609
4374.22 8.46436
4374.49 8.69913
4374.76 9.10914
4375.03 9.90898
4375.16 10.6260
4375.30 11.7685
4375.44 13.7715
4375.57 17.6317
4375.64 21.0537
4375.71 26.3992
4375.77 35.0964
4375.84 49.1556
4375.92 74.4067
4376.00 91.1993
4376.08 74.6423
4376.16 49.8677
4376.22 37.1145
4376.28 28.9072
4376.34 23.4279
4376.39 19.7977
4376.51 15.4089
4376.63 13.0259
4376.74 11.6035
4376.86 10.6910
4377.10 9.63285
4377.33 9.06627
4377.56 8.72728
4378.03 8.35742
4378.50 8.16745
4378.97 8.05556
4379.90 7.93136
4381.77 7.81986
4383.64 7.76244
4387.38 7.68988
4391.12 7.63523
4398.60 7.54303
4406.08 7.46111
4421.04 7.31410
4436.00 7.18246
4450.96 7.06212
4465.92 6.95092
4480.88 6.85057
4484.62 6.83035
4488.36 6.81995
4490.23 6.82764
4492.10 6.87088
4493.04 6.93936
4493.97 7.13315
4494.44 7.38799
4494.67 7.62728
4494.91 8.03108
4495.14 8.79755
4495.26 9.46417
4495.37 10.5091
4495.49 12.2698
4495.61 15.5316
4495.67 18.2980
4495.73 22.3456
4495.78 28.5146
4495.84 37.9363
4495.92 56.8674
4496.00 69.3312
4496.08 56.6871
4496.16 38.0262
4496.25 24.6622
4496.34 17.8701
4496.43 14.1570
4496.53 12.0109
4496.62 10.6507
4496.71 9.75815
4496.89 8.68799
4497.07 8.09558
4497.26 7.73650
4497.62 7.34288
4497.99 7.14205
4498.35 7.02623
4499.08 6.90353
4500.55 6.80862
4502.01 6.77552
4503.47 6.77093
4504.93 6.81005
4505.66 6.87901
4506.39 7.07516
4506.76 7.33036
4506.94 7.56713
4507.12 7.96063
4507.31 8.69249
4507.40 9.31075
4507.49 10.2552
4507.58 11.8115
4507.67 14.5232
4507.76 19.7409
4507.81 24.2024
4507.85 30.4563
4507.93 44.7912
4508.00 54.3821
4508.07 44.8193
4508.15 30.4906
4508.20 23.3345
4508.25 18.7082
4508.30 15.5950
4508.36 13.5269
4508.46 11.0128
4508.57 9.64314
4508.67 8.82465
4508.78 8.29958
4508.99 7.69176
4509.20 7.36757
4509.41 7.17458
4509.83 6.96587
4510.67 6.79870
4511.50 6.73223
4513.18 6.67505
4514.86 6.64697
4518.22 6.61227
4521.58 6.58588
4535.00 6.49618
4548.43 6.41303
4555.15 6.37797
4558.50 6.38432
4559.34 6.40641
4560.18 6.47483
4560.60 6.56770
4561.02 6.80530
4561.23 7.09076
4561.44 7.73231
4561.55 8.39625
4561.65 9.63420
4561.70 10.6921
4561.76 12.2460
4561.81 14.6308
4561.86 18.3098
4561.93 25.5191
4562.00 30.3541
4562.07 25.5619
4562.14 18.3626
4562.19 14.6238
4562.25 12.2172
4562.30 10.6585
4562.35 9.61867
4562.46 8.38803
4562.56 7.72737
4562.78 7.08497
4562.99 6.79875
4563.41 6.55559
4563.84 6.45726
4564.69 6.37721
4565.54 6.34386
4568.93 6.29380
4575.73 6.24329
4589.32 6.15483
4616.50 5.97524
4643.68 5.78291
4657.27 5.68208
4664.06 5.63909
4665.76 5.63636
4667.46 5.65286
4668.31 5.68670
4669.16 5.78897
4669.58 5.92648
4670.01 6.27619
4670.22 6.69559
4670.43 7.62821
4670.54 8.58571
4670.64 10.3549
4670.70 11.8360
4670.75 14.0352
4670.80 17.3897
4670.86 22.5405
4670.93 32.8076
4671.00 39.5728
4671.07 32.8544
4671.14 22.5983
4671.19 18.1723
4671.23 15.0672
4671.32 11.3087
4671.41 9.33977
4671.50 8.22288
4671.68 7.06885
4671.85 6.52592
4672.21 6.04969
4672.56 5.85347
4673.27 5.69424
4673.98 5.63034
4675.40 5.57529
4676.81 5.54852
4679.65 5.51686
4682.48 5.49694
4685.32 5.49002
4688.15 5.52104
4689.57 5.58657
4690.28 5.65715
4690.99 5.78807
4691.70 6.06419
4692.05 6.32930
4692.41 6.78937
4692.76 7.69316
4692.94 8.50602
4693.11 9.82871
4693.29 12.1828
4693.38 14.1190
4693.47 16.9369
4693.56 21.3401
4693.65 28.4508
4693.73 40.9027
4693.82 62.8103
4693.91 97.2706
4694.00 120.232
4694.09 97.2351
4694.18 62.7656
4694.24 47.2084
4694.29 36.6092
4694.40 24.0868
4694.52 17.5955
4694.63 13.9061
4694.74 11.6382
4694.85 10.1545
4695.08 8.40451
4695.30 7.45528
4695.52 6.88472
4695.97 6.26274
4696.42 5.94835
4696.87 5.76683
4697.76 5.57386
4698.66 5.47615
4699.56 5.41780
4701.35 5.34953
4704.93 5.27608
4708.52 5.22566
4715.69 5.14228
4719.27 5.11521
4721.07 5.14583
4721.51 5.18826
4721.96 5.30264
4722.19 5.44266
4722.41 5.76142
4722.52 6.09500
4722.63 6.72468
4722.75 8.08007
4722.80 9.35927
4722.86 11.3839
4722.93 15.2011
4723.00 17.7085
4723.07 15.2010
4723.14 11.3828
4723.20 9.24488
4723.26 7.93703
4723.38 6.59255
4723.51 5.99126
4723.63 5.68125
4723.87 5.38660
4724.11 5.25704
4724.59 5.14828
4725.07 5.10452
4726.04 5.07165
4727.00 5.06793
4727.96 5.09287
4728.93 5.19380
4729.41 5.33853
4729.89 5.71981
4730.13 6.18628
4730.25 6.60154
4730.37 7.25839
4730.49 8.40201
4730.61 10.5799
4730.67 12.4725
4730.73 15.3873
4730.79 20.0459
4730.85 27.6123
4730.93 41.2337
4731.00 50.4085
4731.07 41.3321
4731.15 27.7337
4731.20 20.8656
4731.25 16.3175
4731.31 13.3472
4731.36 11.3836
4731.47 9.00935
4731.57 7.72198
4731.68 6.94913
4731.79 6.45954
4732.00 5.89274
4732.43 5.40834
4732.86 5.21131
4733.72 5.05008
4734.57 4.98235
4736.29 4.91780
4738.00 4.88145
4739.72 4.85665
4741.43 4.84710
4742.29 4.85917
4743.15 4.91532
4743.57 4.99905
4744.00 5.22035
4744.22 5.49070
4744.43 6.10012
4744.54 6.73350
4744.65 7.91937
4744.70 8.93675
4744.75 10.4382
4744.81 12.8110
4744.86 16.5143
4744.93 23.5947
4745.00 28.3236
4745.07 23.6330
4745.14 16.5605
4745.19 13.3651
4745.23 11.1918
4745.32 8.59954
4745.41 7.26139
4745.50 6.50917
4745.67 5.73738
4745.85 5.37586
4746.20 5.05825
4746.56 4.92569
4747.27 4.81391
4747.98 4.76461
4750.81 4.68033
4756.48 4.57738
4767.81 4.37470
4790.49 3.89220
4801.82 3.60140
4813.16 3.27959
4818.83 3.11472
4824.50 2.96219
4827.33 2.90219
4830.17 2.87749
4831.58 2.90531
4833.00 3.03417
4833.71 3.22608
4834.06 3.41413
4834.42 3.74396
4834.77 4.39859
4834.95 4.99238
4835.13 5.96644
4835.30 7.71989
4835.39 9.17854
4835.48 11.3249
4835.57 14.7288
4835.66 20.3389
4835.75 30.4475
4835.83 48.8933
4835.92 76.7224
4836.00 94.9758
4836.08 76.4412
4836.17 48.9828
4836.24 33.1084
4836.31 23.5728
4836.38 17.6713
4836.45 13.8699
4836.59 9.52750
4836.74 7.27497
4836.88 5.97129
4837.02 5.15352
4837.30 4.22760
4837.59 3.74365
4837.87 3.46202
4838.44 3.16474
4839.01 3.02181
4839.58 2.94570
4840.71 2.88168
4842.99 2.89648
4845.26 3.01380
4849.81 3.57903
4854.35 4.92564
4856.63 6.16153
4858.90 8.06607
4861.17 11.0689
4863.45 15.9590
4865.72 24.2782
4867.99 39.2064
4870.27 67.6667
4871.40 91.0984
4872.54 123.972
4874.77 221.296
4877.00 308.355
4879.23 274.655
4881.46 190.819
4883.15 142.438
4883.58 133.099
4884.00 125.074
4884.21 121.813
4884.43 119.690
4884.53 119.587
4884.64 120.971
4884.74 125.704
4884.80 130.625
4884.85 138.253
4884.92 154.834
4885.00 165.566
4885.08 152.617
4885.15 133.710
4885.22 122.080
4885.29 114.801
4885.36 110.034
4885.43 106.675
4885.57 102.097
4885.70 98.9050
4885.98 94.0931
4886.25 90.2203
4886.81 83.6664
4887.36 78.0543
4889.56 61.2218
4891.76 50.0382
4893.97 42.2201
4896.17 36.5416
4898.37 32.3430
4899.48 30.7202
4900.03 30.0560
4900.58 29.5467
4901.13 29.3313
4901.40 29.4510
4901.68 29.8887
4901.96 30.9933
4902.09 32.0490
4902.23 33.7364
4902.37 36.6015
4902.51 41.7182
4902.64 51.7863
4902.71 60.3544
4902.78 72.4692
4902.89 100.163
4903.00 118.591
4903.11 99.9335
4903.22 72.0103
4903.32 55.9580
4903.41 46.1949
4903.51 40.1637
4903.60 36.2689
4903.79 31.7679
4903.98 29.3693
4904.17 27.9027
4904.36 26.9207
4904.74 25.6683
4905.12 24.8594
4905.50 24.2592
4906.26 23.3470
4907.02 22.6220
4907.77 21.9946
4909.29 20.9123
4912.33 19.1614
4915.36 17.7688
4921.44 15.6687
4927.51 14.1560
4939.65 12.1095
4951.79 10.7574
4963.94 9.73828
4970.01 9.28376
4976.08 8.82930
4982.15 8.33312
4985.19 8.04790
4988.22 7.71985
4991.26 7.33527
4992.78 7.12828
4994.29 6.94447
4995.81 6.90453
4996.57 7.06426
4997.33 7.55357
4998.09 8.85600
4998.47 10.1948
4998.85 12.4788
4999.23 16.5898
4999.61 24.4492
4999.80 31.0803
4999.99 40.7639
5000.18 55.2778
5000.36 76.7673
5000.68 132.685
5001.00 182.550
5001.32 162.884
5001.64 114.506
5001.96 79.2799
5002.28 58.2098
5002.60 45.3636
5002.92 37.1113
5003.24 31.5230
5003.56 27.5618
5004.21 22.4269
5004.85 19.3093
5005.49 17.2547
5006.77 14.7466
5008.06 13.2900
5009.34 12.3446
5011.91 11.1879
5014.48 10.4988
5017.05 10.0328
5022.19 9.42223
5027.32 9.01839
5032.46 8.71530
5042.74 8.25702
5053.01 7.89341
5063.28 7.57058
5073.56 7.26548
5076.13 7.19515
5078.70 7.14040
5079.98 7.13482
5081.27 7.18974
5081.91 7.29540
5082.55 7.60177
5082.87 7.99439
5083.03 8.35213
5083.19 8.93144
5083.35 9.96728
5083.51 12.0319
5083.59 13.9396
5083.67 16.9904
5083.75 22.1858
5083.83 31.2417
5083.92 45.9112
5084.00 55.5375
5084.08 45.7524
5084.17 31.2720
5084.25 21.7910
5084.34 16.5292
5084.42 13.5174
5084.51 11.6853
5084.68 9.70339
5084.85 8.72878
5085.02 8.17627
5085.19 7.83678
5085.52 7.45340
5086.20 7.12957
5086.88 6.99030
5088.24 6.85492
5089.59 6.77452
5092.30 6.65189
5095.02 6.54028
5100.44 6.31331
5103.15 6.20154
5104.51 6.18068
5105.19 6.28937
5105.53 6.64135
5105.70 7.32238
5105.78 8.17119
5105.87 9.91005
5105.93 12.2492
5106.00 13.7946
5106.07 12.2704
5106.13 9.93151
5106.23 8.01867
5106.33 7.16814
5106.52 6.51694
5106.91 6.17355
5107.68 6.01276
5109.22 5.89156
5112.31 5.70101
5115.39 5.49962
5118.48 5.27686
5121.56 5.03015
5124.65 4.77050
5126.19 4.65977
5126.97 4.62783
5127.74 4.63848
5128.51 4.75719
5128.89 4.91430
5129.28 5.22304
5129.67 5.88204
5129.86 6.50256
5130.05 7.53980
5130.24 9.43642
5130.34 11.0295
5130.44 13.3936
5130.53 17.1710
5130.63 23.4675
5130.73 34.7982
5130.82 56.0079
5130.91 87.4167
5131.00 108.451
5131.09 87.5312
5131.18 56.1318
5131.24 40.1654
5131.31 29.8990
5131.37 23.1551
5131.44 18.6031
5131.57 13.1162
5131.70 10.1578
5131.83 8.37435
5131.96 7.23496
5132.22 5.89649
5132.48 5.16575
5132.74 4.71518
5133.27 4.19104
5133.79 3.88457
5134.31 3.67098
5135.35 3.35865
5137.44 2.89245
5139.52 2.55867
5141.61 2.60198
5142.65 3.04261
5143.70 4.20344
5144.22 5.30867
5144.74 7.03184
5145.26 9.76889
5145.78 14.2080
5146.30 21.6911
5146.82 34.8175
5147.35 59.0431
5147.87 104.685
5148.43 191.505
5149.00 272.528
5149.57 247.256
5150.13 174.541
5150.80 113.925
5151.46 79.8281
5152.12 60.0165
5152.78 47.6734
5153.44 39.4692
5154.10 33.7160
5155.42 26.3036
5156.74 21.7998
5158.07 18.7928
5160.71 15.0109
5163.35 12.6801
5164.68 11.8280
5166.00 11.1894
5167.32 10.9485
5167.98 11.1712
5168.64 11.9265
5169.30 13.8579
5169.96 18.7639
5170.30 23.8412
5170.63 32.6673
5170.96 48.8376
5171.29 78.9874
5171.64 135.114
5172.00 185.763
5172.36 166.721
5172.72 118.445
5172.94 94.6229
5173.16 77.0573
5173.61 54.8896
5174.05 42.4580
5174.50 34.8892
5174.95 29.9337
5175.39 26.4931
5176.28 22.1018
5177.17 19.4476
5178.07 17.6833
5179.85 15.4854
5181.63 14.1591
5183.42 13.2615
5186.98 12.0996
5190.55 11.3598
5194.12 10.8352
5201.25 10.1211
5208.38 9.64387
5215.52 9.29445
5229.78 8.80388
5244.05 8.46508
5258.31 8.20999
5265.45 8.10367
5272.58 8.00952
5279.71 7.93597
5281.50 7.92990
5283.28 7.95027
5284.17 7.99489
5285.06 8.13085
5285.51 8.31354
5285.96 8.77857
5286.18 9.33212
5286.40 10.5649
5286.51 11.8357
5286.62 14.1583
5286.68 16.1158
5286.74 18.9597
5286.79 23.3587
5286.85 30.0612
5286.92 43.3127
5287.00 52.2893
5287.08 43.3236
5287.15 30.0737
5287.22 22.8022
5287.28 18.2450
5287.34 15.3714
5287.40 13.5189
5287.52 11.3442
5287.65 10.1971
5287.89 9.10110
5288.14 8.61595
5288.63 8.20849
5289.12 8.04446
5290.11 7.91150
5291.09 7.85596
5293.06 7.80286
5295.03 7.77235
5298.97 7.73027
5302.90 7.70108
5306.84 7.68928
5308.81 7.69744
5310.78 7.72768
5312.75 7.81132
5313.73 7.90085
5314.71 8.06546
5315.70 8.40613
5316.19 8.72647
5316.68 9.26917
5317.18 10.2914
5317.42 11.1752
5317.67 12.5517
5317.91 14.8491
5318.16 19.0442
5318.28 22.5147
5318.41 27.6095
5318.53 35.2701
5318.65 46.7892
5318.83 70.4631
5319.00 86.1495
5319.18 70.3614
5319.35 46.8430
5319.52 31.7525
5319.70 23.2868
5319.87 18.4001
5320.04 15.4236
5320.22 13.4833
5320.39 12.1653
5320.74 10.5547
5321.09 9.64510
5321.43 9.08610
5322.13 8.46084
5322.82 8.13726
5323.52 7.94730
5324.91 7.74174
5326.30 7.63553
5327.69 7.57089
5330.47 7.49376
5336.03 7.40926
5341.59 7.35223
5352.71 7.26660
5355.49 7.25429
5358.27 7.25955
5359.66 7.28529
5361.05 7.37387
5361.74 7.49920
5362.44 7.83309
5362.78 8.25097
5362.96 8.62877
5363.13 9.24048
5363.31 10.3364
5363.39 11.2334
5363.48 12.5370
5363.57 14.5715
5363.65 17.8983
5363.74 23.6615
5363.83 33.7697
5363.91 49.8490
5364.00 60.4237
5364.09 49.6937
5364.18 33.8185
5364.26 23.4460
5364.35 17.6918
5364.44 14.3993
5364.53 12.4151
5364.62 11.1189
5364.71 10.2499
5364.88 9.18047
5365.06 8.57722
5365.24 8.20866
5365.59 7.79802
5366.30 7.46224
5367.01 7.32970
5368.43 7.22242
5369.84 7.17669
5372.68 7.13099
5375.51 7.10361
5378.35 7.08441
5381.18 7.07739
5382.60 7.08776
5384.01 7.13520
5384.72 7.20701
5385.43 7.40393
5385.79 7.65632
5386.14 8.27082
5386.32 8.97116
5386.49 10.4469
5386.58 11.8791
5386.67 14.3121
5386.76 18.8946
5386.85 27.7859
5386.92 40.2437
5387.00 48.5600
5387.08 40.2282
5387.15 27.7659
5387.23 19.7641
5387.31 15.2503
5387.38 12.6668
5387.46 11.0960
5387.61 9.39915
5387.77 8.56361
5388.08 7.80789
5388.38 7.48827
5389.00 7.22784
5389.62 7.12500
5390.85 7.04161
5392.08 7.00566
5394.54 6.96874
5397.00 6.94567
5401.93 6.92050
5403.16 6.92676
5404.39 6.96082
5405.01 7.01399
5405.63 7.16127
5405.93 7.34918
5406.24 7.80389
5406.40 8.31553
5406.55 9.37348
5406.63 10.3706
5406.70 12.0417
5406.78 15.0381
5406.86 20.5503
5406.93 28.7737
5407.00 34.3119
5407.07 28.8351
5407.14 20.6262
5407.19 17.0911
5407.23 14.5554
5407.32 11.5205
5407.41 9.92702
5407.49 9.02165
5407.67 8.08444
5407.84 7.64267
5408.20 7.25432
5408.55 7.09382
5409.25 6.96290
5409.95 6.90977
5411.35 6.86310
5412.75 6.83941
5418.36 6.78468
5429.57 6.69783
5440.78 6.61127
5452.00 6.52112
5463.21 6.42558
5474.42 6.32312
5485.63 6.21535
5491.24 6.17696
5492.64 6.18438
5494.04 6.23228
5494.74 6.30916
5495.45 6.52433
5495.80 6.80137
5496.15 7.47559
5496.32 8.24156
5496.50 9.84673
5496.58 11.3943
5496.67 14.0028
5496.76 18.8605
5496.85 28.1213
5496.92 41.3497
5497.00 50.1718
5497.08 41.3554
5497.15 28.1272
5497.25 18.4939
5497.34 13.6948
5497.43 11.1095
5497.52 9.63015
5497.70 8.09103
5497.89 7.36250
5498.25 6.72176
5498.62 6.45575
5499.35 6.23924
5500.08 6.15140
5501.55 6.07401
5503.01 6.03458
5505.94 5.98969
5507.40 6.00304
5508.13 6.11163
5508.50 6.42583
5508.68 7.04290
5508.77 7.83529
5508.87 9.55760
5508.93 11.7534
5509.00 13.1944
5509.07 11.7582
5509.13 9.56204
5509.21 8.10830
5509.28 7.31087
5509.42 6.59972
5509.71 6.17253
5510.28 5.98823
5511.43 5.91283
5513.72 5.86041
5518.31 5.78175
5522.89 5.70189
5527.48 5.61694
5532.06 5.52693
5536.65 5.43769
5538.94 5.40344
5541.23 5.40762
5542.38 5.46416
5543.52 5.67039
5544.10 5.96417
5544.38 6.24781
5544.67 6.73443
5544.96 7.67141
5545.10 8.49214
5545.24 9.78899
5545.39 12.0170
5545.53 16.1870
5545.60 19.7718
5545.67 25.1119
5545.74 33.5568
5545.82 46.6042
5545.91 71.7505
5546.00 88.3738
5546.09 71.6637
5546.19 46.8523
5546.29 29.7834
5546.39 20.7675
5546.49 15.7429
5546.59 12.7421
5546.69 10.8167
5546.79 9.53915
5546.99 7.99119
5547.19 7.12446
5547.39 6.59574
5547.79 6.00424
5548.19 5.69601
5548.59 5.51219
5549.39 5.30576
5551.00 5.11284
5552.60 5.00328
5555.81 4.83832
5559.02 4.68284
5565.43 4.33402
5571.85 3.89235
5575.06 3.62384
5578.27 3.31950
5581.47 2.98686
5584.68 2.66999
5587.89 2.55540
5589.49 2.77222
5591.10 3.50322
5591.90 4.26133
5592.70 5.50441
5593.50 7.56618
5594.31 11.0759
5595.11 17.2971
5595.91 28.9492
5596.31 38.5154
5596.71 52.2409
5597.11 72.1451
5597.51 100.819
5598.26 183.180
5599.00 259.557
5599.74 234.699
5600.49 165.226
5601.34 108.777
5602.18 76.6535
5603.03 57.8239
5603.87 46.0595
5604.72 38.2187
5605.57 32.7285
5607.26 25.6754
5608.95 21.4234
5610.64 18.6253
5614.03 15.2124
5617.42 13.2328
5620.80 11.9494
5624.19 11.0514
5627.57 10.3873
5634.34 9.46690
5641.11 8.85234
5654.65 8.05657
5668.19 7.52391
5681.73 7.09119
5688.51 6.88341
5695.28 6.67002
5698.66 6.56248
5702.05 6.46997
5703.74 6.45300
5705.43 6.52692
5706.28 6.68643
5706.70 6.85707
5707.12 7.16935
5707.55 7.80724
5707.76 8.40012
5707.97 9.38167
5708.18 11.1867
5708.29 12.7022
5708.39 14.9648
5708.50 18.6068
5708.60 24.8401
5708.71 36.3611
5708.82 58.4058
5708.91 89.9319
5709.00 110.646
5709.09 89.6442
5709.19 58.4909
5709.28 37.9598
5709.38 26.6197
5709.47 20.1532
5709.56 16.2631
5709.66 13.7276
5709.75 12.0279
5709.94 9.93697
5710.13 8.75600
5710.32 8.03160
5710.70 7.21745
5711.08 6.78829
5711.46 6.53057
5712.21 6.23543
5713.73 5.94422
5715.24 5.76083
5718.27 5.43798
5721.30 5.06438
5722.81 4.83611
5724.32 4.56833
5725.84 4.25251
5727.35 3.88967
5728.87 3.53361
5729.62 3.43765
5730.38 3.55150
5731.14 4.27043
5731.52 5.18964
5731.89 6.93018
5732.08 8.34775
5732.27 10.3407
5732.46 13.1999
5732.65 17.3809
5732.84 23.6293
5733.03 33.1806
5733.22 48.0497
5733.41 71.2164
5733.70 129.858
5734.00 185.631
5734.15 186.883
5734.30 169.950
5734.59 121.347
5734.94 80.9758
5735.28 57.8821
5735.62 44.3264
5735.96 35.8248
5736.30 30.1507
5736.64 26.1626
5737.32 21.0280
5738.00 17.9151
5738.69 15.8571
5740.05 13.3367
5741.41 11.8650
5742.78 10.9064
5744.14 10.2324
5745.50 9.73270
5748.23 9.03791
5750.96 8.57366
5753.68 8.23725
5756.41 7.97885
5761.86 7.59826
5767.32 7.32022
5778.22 6.90758
5789.13 6.57636
5800.04 6.26797
5805.49 6.11279
5810.94 5.95512
5816.40 5.80744
5817.76 5.78546
5819.13 5.80085
5819.81 5.85791
5820.49 6.04435
5820.83 6.29644
5821.17 6.92434
5821.34 7.64819
5821.51 9.16677
5821.60 10.6257
5821.68 13.1216
5821.77 17.7339
5821.85 26.7882
5821.93 39.5557
5822.00 48.0484
5822.07 39.6215
5822.15 26.8670
5822.23 17.7986
5822.32 13.1683
5822.41 10.6344
5822.49 9.17027
5822.66 7.63071
5822.83 6.89704
5823.17 6.23990
5823.51 5.96097
5824.20 5.72435
5824.88 5.61962
5826.24 5.51154
5827.61 5.44260
5830.33 5.33404
5833.06 5.23908
5838.52 5.08380
5843.97 5.03992
5849.43 5.35558
5852.16 5.87605
5854.89 6.97808
5857.62 9.35925
5858.98 11.5204
5860.34 14.8939
5861.71 20.3459
5863.07 29.5231
5864.44 45.6130
5865.80 74.3359
5867.40 131.338
5869.00 183.329
5870.60 164.858
5872.20 116.238
5873.78 81.1700
5875.36 59.7379
5876.93 46.4852
5878.51 37.8828
5880.09 32.0087
5881.66 27.8231
5884.82 22.3625
5887.97 19.0297
5891.13 16.8217
5897.44 14.1209
5903.75 12.5614
5910.05 11.5800
5913.21 11.2477
5914.79 11.1300
5916.36 11.0671
5917.94 11.1172
5918.73 11.2367
5919.52 11.4994
5920.31 12.0903
5920.70 12.6596
5921.10 13.6258
5921.49 15.4307
5921.69 16.9603
5921.88 19.2915
5922.08 23.0594
5922.28 29.6104
5922.48 41.9994
5922.57 52.3388
5922.67 66.8002
5922.84 100.775
5923.00 123.468
5923.16 100.851
5923.33 66.8807
5923.43 52.1548
5923.53 41.7809
5923.73 29.3849
5923.93 22.8153
5924.13 19.0558
5924.33 16.7114
5924.53 15.1731
5924.92 13.3339
5925.32 12.3202
5925.72 11.6996
5926.52 11.0009
5927.32 10.6247
5928.12 10.3898
5929.71 10.1036
5931.31 9.92328
5932.90 9.78958
5936.09 9.58686
5939.28 9.42854
5942.47 9.29937
5944.07 9.24834
5945.67 9.22085
5946.46 9.23479
5947.26 9.32030
5947.66 9.45198
5948.06 9.80103
5948.26 10.2222
5948.46 11.1527
5948.56 12.1029
5948.66 13.8129
5948.71 15.2340
5948.76 17.3141
5948.81 20.4287
5948.86 25.0090
5948.93 34.5852
5949.00 41.0256
5949.07 34.6281
5949.14 25.0592
5949.23 18.1574
5949.31 14.6273
5949.40 12.7429
5949.48 11.6505
5949.65 10.5186
5949.82 9.98241
5950.16 9.50255
5950.50 9.29928
5951.18 9.12475
5951.86 9.04579
5953.22 8.96168
5954.57 8.90706
5960.00 8.74977
5965.43 8.62236
5970.86 8.51042
5981.71 8.31943
5992.57 8.16068
6014.28 7.90780
6035.99 7.71079
6079.42 7.40899
6101.13 7.28446
6111.99 7.22915
6117.42 7.21657
6118.77 7.22632
6120.13 7.26615
6120.81 7.32540
6121.49 7.48693
6121.83 7.69294
6122.17 8.19009
6122.34 8.75216
6122.50 9.90925
6122.59 11.0084
6122.67 12.8583
6122.76 16.1967
6122.84 22.4288
6122.92 31.6512
6123.00 37.7908
6123.08 31.7298
6123.16 22.5266
6123.21 18.2731
6123.26 15.3913
6123.36 12.0171
6123.47 10.3056
6123.57 9.34645
6123.77 8.38236
6123.98 7.93824
6124.39 7.55183
6124.80 7.39384
6125.63 7.26621
6126.45 7.21503
6129.74 7.14918
6136.32 7.10141
6149.49 7.02949
6162.66 6.96666
6165.95 6.95843
6169.24 6.96910
6170.89 7.00030
6172.53 7.10339
6173.36 7.24908
6173.77 7.39165
6174.18 7.64203
6174.59 8.14289
6174.80 8.60321
6175.00 9.36279
6175.21 10.7597
6175.31 11.9349
6175.41 13.6942
6175.52 16.5406
6175.62 21.4491
6175.72 30.6295
6175.82 48.6624
6175.91 73.6823
6176.00 90.5897
6176.09 73.8045
6176.18 48.8146
6176.27 32.0349
6176.36 22.9121
6176.45 17.7903
6176.55 14.7435
6176.64 12.7734
6176.73 11.4614
6176.92 9.85863
6177.10 8.96485
6177.29 8.41772
6177.66 7.81136
6178.03 7.50053
6178.40 7.31987
6179.14 7.12773
6180.62 6.97563
6182.10 6.91371
6185.06 6.85600
6188.02 6.82316
6193.94 6.77890
6196.90 6.78153
6198.38 6.86421
6198.75 6.94879
6199.12 7.16236
6199.31 7.41300
6199.49 7.95938
6199.58 8.50923
6199.68 9.48267
6199.77 11.4311
6199.81 13.1035
6199.86 15.5545
6199.93 20.8558
6200.00 24.4010
6200.07 20.8626
6200.14 15.5621
6200.21 12.0152
6200.29 10.0964
6200.44 8.36317
6200.59 7.67151
6200.73 7.33652
6201.03 7.03307
6201.33 6.90517
6201.92 6.79928
6202.52 6.75568
6204.90 6.69560
6209.65 6.64318
6219.17 6.54625
6228.68 6.42893
6238.20 6.27302
6247.71 6.04410
6252.47 5.87962
6257.23 5.65631
6259.60 5.51147
6261.98 5.33544
6264.36 5.11883
6266.74 4.85360
6269.12 4.55263
6270.31 4.42380
6271.50 4.39041
6272.69 4.68283
6273.28 5.15980
6273.88 6.16240
6274.47 8.31259
6274.77 10.2428
6275.06 13.2242
6275.36 17.9944
6275.66 25.8487
6275.96 39.2644
6276.25 62.4687
6276.63 111.525
6277.00 157.109
6277.37 142.618
6277.75 101.500
6278.03 77.2701
6278.31 60.4740
6278.59 48.9465
6278.88 40.8602
6279.44 30.6716
6280.00 24.7624
6280.57 21.0024
6281.13 18.4479
6282.26 15.2592
6283.39 13.3794
6284.51 12.1574
6285.64 11.3049
6286.77 10.6791
6289.02 9.82543
6291.28 9.27291
6293.53 8.88708
6295.79 8.60292
6300.30 8.21371
6302.55 8.07661
6304.80 7.96762
6307.06 7.88703
6309.31 7.85462
6310.44 7.88753
6311.57 8.04244
6312.13 8.27163
6312.41 8.49377
6312.70 8.87524
6312.98 9.60995
6313.12 10.2565
6313.26 11.2807
6313.40 13.0314
6313.54 16.3454
6313.61 19.2140
6313.68 23.5153
6313.75 30.2567
6313.82 40.8863
6313.91 60.8017
6314.00 74.0389
6314.09 60.7015
6314.18 40.7579
6314.27 27.6712
6314.36 20.5438
6314.45 16.4754
6314.54 14.0056
6314.64 12.4014
6314.73 11.3299
6314.91 10.0221
6315.09 9.28513
6315.27 8.83469
6315.64 8.33170
6316.37 7.91566
6317.10 7.74664
6318.56 7.60119
6320.01 7.53399
6321.47 7.49808
6322.93 7.49748
6323.66 7.53261
6324.39 7.65729
6324.76 7.83038
6325.12 8.26794
6325.30 8.78154
6325.49 9.87969
6325.58 10.9550
6325.67 12.8321
6325.76 16.4030
6325.80 19.4218
6325.85 23.7154
6325.93 33.6480
6326.00 40.3600
6326.08 33.8954
6326.15 24.0229
6326.20 19.4836
6326.25 16.3522
6326.35 12.7312
6326.44 10.8559
6326.54 9.80813
6326.74 8.73941
6326.93 8.24221
6327.32 7.80354
6327.71 7.62002
6328.49 7.46549
6329.27 7.39838
6330.82 7.33250
6332.38 7.29426
6338.61 7.19906
6344.84 7.12968
6351.08 7.07123
6363.54 6.97367
6376.00 6.89210
6388.46 6.82028
6400.92 6.75483
6413.39 6.69575
6419.62 6.67936
6421.17 6.68639
6422.73 6.71962
6423.51 6.77083
6424.29 6.91387
6424.68 7.09980
6425.07 7.56063
6425.26 8.09800
6425.46 9.25199
6425.56 10.4068
6425.65 12.4325
6425.75 16.3648
6425.80 19.7530
6425.85 24.5766
6425.92 35.4392
6426.00 42.6287
6426.08 35.5259
6426.15 24.6848
6426.24 17.2403
6426.32 13.3151
6426.41 11.1458
6426.49 9.85817
6426.66 8.49673
6426.83 7.83876
6427.16 7.25135
6427.50 7.00515
6428.17 6.80534
6428.84 6.72644
6430.19 6.66224
6431.53 6.63436
6436.91 6.58654
6447.66 6.52808
6469.16 6.41629
6490.67 6.29168
6512.17 6.13950
6533.68 5.93162
6544.43 5.78749
6555.18 5.59293
6560.56 5.46503
6565.94 5.30527
6571.31 5.09811
6576.69 4.81645
6579.38 4.63338
6582.07 4.41022
6584.75 4.13423
6587.44 3.79225
6588.79 3.59629
6590.13 3.39230
6591.47 3.20699
6592.82 3.12219
6594.16 3.40429
6594.83 3.92886
6595.51 5.07791
6596.18 7.60832
6596.51 9.92484
6596.85 13.5533
6597.19 19.4250
6597.52 29.2983
6597.86 46.5441
6598.19 77.1549
6598.60 139.683
6599.00 197.793
6599.40 179.263
6599.81 126.809
6600.17 91.3272
6600.53 68.4995
6600.89 53.7590
6601.25 43.8843
6601.97 31.9761
6602.69 25.3444
6603.41 21.2271
6604.13 18.4745
6605.57 15.0758
6607.01 13.0893
6608.45 11.8007
6609.89 10.9020
6611.33 10.2418
6614.22 9.33730
6617.10 8.74901
6618.54 8.52809
6619.98 8.34875
6621.42 8.24963
6622.14 8.39296
6622.32 8.55524
6622.50 8.92656
6622.68 9.97623
6622.77 11.2966
6622.86 14.1037
6622.93 17.7648
6623.00 20.1983
6623.07 17.7616
6623.14 14.0898
6623.21 11.7685
6623.28 10.4629
6623.41 9.21597
6623.69 8.42085
6623.96 8.16317
6624.24 8.04058
6625.33 7.83855
6627.52 7.64556
6629.71 7.49984
6631.90 7.37478
6636.28 7.16350
6640.66 6.98598
6649.41 6.68328
6658.17 6.39811
6666.93 6.07232
6671.31 5.86775
6675.69 5.60987
6677.88 5.45078
6680.07 5.26422
6682.26 5.04411
6684.45 4.79068
6686.64 4.53999
6687.73 4.47024
6688.83 4.54565
6689.92 5.04700
6690.47 5.69763
6691.02 6.94663
6691.56 9.43332
6692.11 14.6959
6692.38 19.4891
6692.66 26.9530
6692.93 38.9367
6693.20 58.1101
6693.60 103.484
6694.00 145.885
6694.40 132.611
6694.80 94.5577
6695.08 73.1753
6695.36 58.0612
6695.65 47.4643
6695.93 39.9036
6696.50 30.1964
6697.06 24.4770
6697.63 20.8014
6698.20 18.2914
6699.33 15.1345
6700.46 13.2626
6701.59 12.0410
6703.86 10.5566
6706.12 9.69555
6708.39 9.13528
6710.65 8.74162
6712.92 8.44938
6717.45 8.04266
6721.98 7.77064
6731.04 7.42288
6740.10 7.20304
6749.16 7.04618
6767.28 6.82606
6785.40 6.66793
6803.52 6.54082
6812.58 6.48530
6821.64 6.43704
6826.17 6.41973
6830.70 6.41981
6832.97 6.44281
6835.23 6.52887
6836.36 6.65432
6837.50 6.99571
6838.06 7.43262
6838.35 7.83390
6838.63 8.50033
6838.91 9.72204
6839.05 10.7548
6839.20 12.3093
6839.34 14.8267
6839.48 19.1458
6839.62 27.3098
6839.76 43.3646
6839.88 65.7093
6840.00 80.4678
6840.12 65.6016
6840.24 43.4781
6840.33 32.2172
6840.42 24.8576
6840.50 20.0380
6840.59 16.7949
6840.77 12.9232
6840.94 10.8277
6841.12 9.58081
6841.30 8.78336
6841.65 7.86482
6842.00 7.37459
6842.35 7.08417
6843.05 6.76984
6844.46 6.52057
6845.86 6.42310
6848.68 6.34371
6851.49 6.31183
6854.30 6.30311
6857.11 6.33313
6858.52 6.39305
6859.93 6.56957
6860.63 6.80235
6861.33 7.38579
6861.68 8.07093
6862.04 9.56254
6862.21 11.0618
6862.39 13.7589
6862.48 15.9567
6862.56 19.1375
6862.65 23.8357
6862.74 30.6640
6862.87 45.3432
6863.00 55.1265
6863.13 45.3322
6863.26 30.6499
6863.38 21.8945
6863.50 16.7597
6863.62 13.6407
6863.74 11.6894
6863.97 9.49395
6864.21 8.38010
6864.68 7.34088
6865.16 6.89266
6866.10 6.52149
6867.05 6.37350
6868.94 6.25297
6870.84 6.20126
6874.62 6.14866
6878.41 6.11518
6893.56 6.01237
6908.71 5.91408
6916.28 5.86664
6920.07 5.85806
6921.96 5.91330
6922.43 5.97590
6922.91 6.14071
6923.14 6.34251
6923.38 6.80181
6923.50 7.29019
6923.62 8.21278
6923.73 10.2214
6923.79 12.1397
6923.85 15.2344
6923.93 20.8996
6924.00 24.7461
6924.07 20.9670
6924.15 15.3177
6924.21 12.2999
6924.26 10.3679
6924.38 8.32081
6924.50 7.36875
6924.61 6.86304
6924.84 6.37661
6925.08 6.15957
6925.54 5.97543
6926.00 5.90003
6927.86 5.80891
6931.57 5.75905
6938.99 5.69637
6946.41 5.64814
6948.27 5.64847
6950.12 5.67909
6951.05 5.73473
6951.98 5.89793
6952.44 6.11448
6952.91 6.66156
6953.14 7.30822
6953.37 8.73519
6953.49 10.1821
6953.60 12.8164
6953.66 14.9890
6953.72 18.1685
6953.78 22.9303
6953.83 29.9970
6953.92 44.7268
6954.00 54.5088
6954.08 44.7888
6954.17 30.0737
6954.26 19.7395
6954.36 14.3624
6954.45 11.4443
6954.55 9.74819
6954.73 7.95947
6954.92 7.10218
6955.30 6.34135
6955.68 6.02356
6956.44 5.76501
6957.19 5.66138
6958.70 5.57321
6960.22 5.53083
6966.26 5.43854
6972.31 5.36252
6978.36 5.28324
6990.46 5.10077
7002.56 4.86726
7014.66 4.54413
7020.71 4.32528
7026.75 4.04404
7032.80 3.67012
7035.83 3.43933
7038.85 3.18820
7041.88 2.98313
7043.39 2.98128
7044.90 3.20140
7046.41 4.03288
7047.17 5.00581
7047.93 6.80559
7048.68 10.2986
7049.06 13.2514
7049.44 17.6199
7049.82 24.2693
7050.19 34.7042
7050.57 51.5260
7050.95 78.8127
7051.48 140.022
7052.00 194.871
7052.53 173.907
7053.05 121.318
7053.49 88.5691
7053.92 66.9309
7054.35 52.6370
7054.78 42.9035
7055.65 31.0065
7056.52 24.2963
7057.38 20.1158
7058.25 17.3117
7059.98 13.8494
7061.71 11.8276
7063.45 10.5169
7066.91 8.92568
7070.37 7.99183
7073.84 7.36990
7080.77 6.56570
7087.70 6.03143
7094.62 5.61386
7108.48 4.89558
7115.41 4.53613
7122.34 4.15146
7129.27 3.73060
7136.20 3.28220
7143.13 2.89924
7146.59 2.85132
7150.05 3.11563
7153.52 4.21470
7155.25 5.49562
7156.98 7.81055
7158.71 12.1196
7160.45 20.5550
7161.31 27.6985
7162.18 38.1862
7163.04 53.7698
7163.91 76.8646
7165.46 142.056
7167.00 204.805
7168.55 188.183
7170.09 134.488
7171.49 97.2954
7172.88 73.2372
7174.28 57.6676
7175.68 47.2276
7178.47 34.6079
7181.26 27.5349
7184.06 23.1280
7186.85 20.1632
7192.43 16.4804
7198.02 14.3135
7203.61 12.9039
7206.40 12.3781
7209.19 11.9544
7210.59 11.7952
7211.99 11.7240
7212.68 11.7850
7213.38 12.0749
7213.73 12.4791
7214.08 13.4382
7214.25 14.4595
7214.43 16.3835
7214.52 18.0506
7214.60 20.5504
7214.69 24.4540
7214.78 30.5788
7214.89 42.1476
7215.00 49.6524
7215.11 41.7408
7215.22 30.1899
7215.34 22.3735
7215.46 18.1904
7215.58 15.8593
7215.70 14.4754
7215.94 12.9840
7216.18 12.2541
7216.66 11.5766
7217.14 11.2675
7218.10 10.9656
7219.05 10.7957
7220.97 10.5636
7222.88 10.3814
7226.72 10.0766
7230.55 9.81867
7238.21 9.39557
7245.87 9.06099
7253.53 8.79274
7257.36 8.68157
7261.19 8.58930
7265.02 8.52884
7266.94 8.52310
7268.85 8.55416
7270.77 8.67152
7271.72 8.80568
7272.68 9.05515
7273.64 9.56605
7274.12 10.0359
7274.60 10.8057
7275.07 12.1863
7275.31 13.3195
7275.55 14.9810
7275.79 17.5557
7276.03 21.7324
7276.27 28.9176
7276.51 41.6031
7276.76 61.8309
7277.00 75.4445
7277.25 62.1213
7277.49 41.9610
7277.72 29.8037
7277.94 22.6782
7278.16 18.3979
7278.39 15.7003
7278.84 12.6803
7279.28 11.1397
7279.73 10.2529
7280.18 9.69858
7281.08 9.06650
7281.97 8.72908
7282.87 8.52460
7284.66 8.29072
7286.46 8.15823
7288.25 8.06900
7291.83 7.94638
7295.42 7.85628
7299.01 7.78080
7306.18 7.65110
7313.35 7.53621
7320.52 7.42971
7327.69 7.33009
7331.28 7.29043
7333.07 7.30414
7333.97 7.42137
7334.42 7.78259
7334.64 8.56253
7334.75 9.69016
7334.86 12.5336
7334.93 15.7433
7335.00 17.8483
7335.07 15.7463
7335.14 12.5359
7335.23 10.0380
7335.32 8.86505
7335.50 7.94868
7335.87 7.46941
7336.61 7.27952
7338.07 7.20322
7341.01 7.14671
7346.89 7.05995
7358.64 6.88550
7370.39 6.68926
7382.14 6.44726
7393.89 6.11098
7399.77 5.87487
7405.64 5.55521
7408.58 5.34628
7411.52 5.08863
7414.45 4.76309
7417.39 4.34278
7418.86 4.08745
7420.33 3.80015
7421.80 3.49108
7423.27 3.20802
7424.74 3.13584
7425.47 3.36570
7426.20 4.06749
7426.94 5.87548
7427.31 7.65017
7427.67 10.5434
7428.04 15.3945
7428.41 23.8280
7428.77 39.0564
7429.14 67.0324
7429.57 124.450
7430.00 180.409
7430.22 182.759
7430.43 167.028
7430.86 120.405
7431.27 85.9706
7431.69 64.2937
7432.10 50.5657
7432.52 41.4897
7432.93 35.2045
7433.34 30.6685
7434.17 24.6688
7435.00 20.9515
7435.83 18.4583
7437.48 15.3679
7439.14 13.5504
7440.80 12.3647
7442.45 11.5332
7444.11 10.9191
7447.42 10.0734
7450.73 9.51888
7454.05 9.12628
7457.36 8.83286
7463.98 8.42099
7470.61 8.14277
7483.86 7.78294
7497.11 7.55272
7510.36 7.38831
7516.98 7.32280
7523.61 7.26820
7530.23 7.23468
7533.54 7.26149
7534.37 7.29869
7535.20 7.39950
7535.61 7.52711
7536.03 7.83983
7536.23 8.20281
7536.44 8.99530
7536.55 9.79999
7536.65 11.2496
7536.75 14.2353
7536.80 16.9148
7536.86 20.8876
7536.93 28.9516
7537.00 34.0907
7537.07 28.5453
7537.14 20.3782
7537.22 15.0708
7537.30 12.1688
7537.37 10.5443
7537.45 9.58337
7537.60 8.54803
7537.75 8.05167
7538.05 7.61091
7538.36 7.43035
7538.96 7.29031
7539.57 7.24057
7540.78 7.21185
7541.99 7.21697
7543.20 7.24924
7544.41 7.34362
7545.02 7.46382
7545.63 7.76450
7545.93 8.12686
7546.23 8.96549
7546.38 9.87648
7546.54 11.6673
7546.61 13.2913
7546.69 15.8507
7546.76 20.2079
7546.84 27.6943
7546.92 39.9501
7547.00 48.0768
7547.08 39.8848
7547.16 27.6165
7547.23 20.8313
7547.30 16.6254
7547.36 13.9982
7547.43 12.3155
7547.56 10.3488
7547.70 9.33210
7547.96 8.37173
7548.23 7.95909
7548.76 7.63757
7549.30 7.53871
7550.37 7.55074
7551.43 7.72689
7552.50 8.15556
7553.04 8.57567
7553.57 9.30284
7554.10 10.7174
7554.37 11.9793
7554.64 14.0097
7554.90 17.5620
7555.17 24.5403
7555.30 30.7976
7555.44 40.6271
7555.57 56.8864
7555.70 84.2370
7555.85 130.785
7556.00 161.549
7556.15 130.422
7556.30 84.2008
7556.41 59.6142
7556.53 44.0913
7556.64 34.0598
7556.76 27.4836
7556.99 19.7317
7557.22 15.6090
7557.45 13.1844
7557.68 11.6465
7558.14 9.88851
7558.61 8.95864
7559.07 8.41051
7559.99 7.82086
7560.91 7.52612
7561.84 7.35661
7563.68 7.17603
7565.53 7.08354
7567.37 7.02722
7571.07 6.95963
7574.76 6.91817
7578.45 6.89349
7580.30 6.89330
7582.14 6.92417
7583.07 6.98128
7583.99 7.15219
7584.45 7.38282
7584.91 7.97227
7585.14 8.67780
7585.37 10.2494
7585.49 11.8642
7585.61 14.7971
7585.66 17.2492
7585.72 20.7845
7585.78 26.1908
7585.84 34.2225
7585.92 51.0212
7586.00 62.3282
7586.08 51.5763
7586.16 34.9174
7586.23 26.0701
7586.29 20.4426
7586.36 16.8240
7586.42 14.4226
7586.55 11.5939
7586.68 10.0804
7586.93 8.61444
7587.19 7.95597
7587.70 7.39541
7588.21 7.16695
7589.24 6.98137
7590.26 6.90561
7592.31 6.83839
7594.36 6.80437
7602.55 6.72911
7618.94 6.61583
7627.14 6.56017
7635.33 6.50951
7639.43 6.49637
7643.53 6.52434
7645.58 6.59546
7646.60 6.67432
7647.62 6.82213
7648.65 7.13385
7649.16 7.43178
7649.67 7.94515
7650.18 8.93824
7650.44 9.82236
7650.70 11.2435
7650.95 13.7294
7651.21 18.6184
7651.34 22.9920
7651.46 29.9358
7651.59 41.4980
7651.72 61.1065
7651.86 93.7048
7652.00 115.180
7652.14 93.0778
7652.28 60.3215
7652.40 41.4663
7652.52 30.1924
7652.64 23.2836
7652.77 18.8676
7653.01 13.8502
7653.25 11.2834
7653.49 9.80156
7653.74 8.88037
7654.22 7.83905
7654.71 7.29692
7655.19 6.97853
7656.16 6.63570
7658.10 6.35414
7660.04 6.23022
7661.98 6.16178
7663.92 6.15603
7664.89 6.22463
7665.86 6.48735
7666.34 6.86481
7666.58 7.22729
7666.83 7.84106
7667.07 8.99441
7667.19 9.97415
7667.31 11.4711
7667.43 13.8952
7667.55 18.1140
7667.67 26.0863
7667.80 42.0861
7667.90 64.5011
7668.00 79.8405
7668.10 65.7177
7668.20 43.6020
7668.33 27.5305
7668.45 19.3289
7668.57 14.8720
7668.69 12.2895
7668.81 10.6536
7668.93 9.57310
7669.17 8.26388
7669.41 7.53287
7669.65 7.08052
7670.13 6.56441
7671.10 6.10197
7672.06 5.87178
7673.99 5.56986
7675.92 5.28164
7676.88 5.11298
7677.84 4.91559
7678.81 4.67978
7679.77 4.39923
7680.74 4.09538
7681.22 3.97724
7681.70 3.97218
7682.18 4.32146
7682.42 4.83612
7682.66 5.86573
7682.91 7.95251
7683.03 9.75246
7683.15 12.3994
7683.27 16.4440
7683.39 22.6611
7683.51 32.5663
7683.63 48.1074
7683.72 65.5030
7683.81 87.4520
7684.00 125.709
7684.09 127.159
7684.19 116.244
7684.37 84.0757
7684.51 65.3731
7684.64 52.0812
7684.78 42.7650
7684.91 36.1609
7685.18 27.6153
7685.45 22.5749
7685.72 19.3180
7685.99 17.0903
7686.53 14.2703
7687.07 12.5903
7687.61 11.4881
7688.68 10.1442
7689.76 9.36074
7690.84 8.85043
7691.92 8.49220
7692.99 8.22716
7695.15 7.86015
7697.31 7.61760
7701.62 7.31400
7705.93 7.12895
7710.24 7.00317
7714.55 6.91980
7716.71 6.92581
7717.78 7.06569
7718.05 7.20237
7718.32 7.52896
7718.46 7.89090
7718.59 8.61228
7718.73 10.3506
7718.79 12.1748
7718.86 15.4144
7718.93 20.5375
7719.00 24.0092
7719.07 20.5471
7719.14 15.4248
7719.20 12.3269
7719.27 10.5231
7719.39 8.74925
7719.52 7.97919
7719.64 7.58612
7719.90 7.21840
7720.15 7.05854
7721.16 6.86543
7723.18 6.78500
7727.22 6.72057
7735.30 6.63279
7743.38 6.56197
7751.46 6.50053
7759.53 6.44629
7767.61 6.40286
7771.65 6.39298
7775.69 6.41599
7777.71 6.47217
7779.73 6.65243
7780.74 6.90510
7781.25 7.15118
7781.75 7.58319
7782.26 8.44130
7782.51 9.22731
7782.76 10.5188
7783.01 12.8723
7783.14 14.8250
7783.27 17.7509
7783.39 22.3789
7783.52 30.1919
7783.64 44.3590
7783.77 71.3996
7783.89 110.543
7784.00 137.054
7784.12 110.939
7784.23 71.8945
7784.31 52.9114
7784.39 40.3081
7784.47 31.7575
7784.55 25.9725
7784.71 18.8804
7784.86 14.9871
7785.02 12.6227
7785.18 11.0974
7785.50 9.32586
7785.82 8.37228
7786.13 7.80451
7786.77 7.18707
7787.40 6.87564
7788.04 6.69574
7789.31 6.50398
7791.85 6.34784
7794.39 6.27893
7799.47 6.20456
7804.55 6.15325
7814.71 6.06354
7819.79 6.01923
7822.33 5.99989
7823.60 6.00259
7824.23 6.04311
7824.55 6.15853
7824.71 6.37279
7824.87 7.14835
7825.00 8.33237
7825.13 7.15254
7825.25 6.48530
7825.37 6.23687
7825.60 6.07247
7826.07 5.99457
7827.02 5.95996
7828.90 5.93350
7832.67 5.89186
7840.20 5.80340
7847.73 5.69858
7855.27 5.56686
7862.80 5.38782
7866.57 5.26761
7870.34 5.11319
7874.10 4.90578
7875.99 4.77469
7877.87 4.62570
7879.75 4.48358
7880.70 4.45089
7881.64 4.51442
7882.58 4.86014
7883.05 5.30060
7883.52 6.15152
7883.99 7.87057
7884.46 11.6375
7884.70 15.1999
7884.93 20.9580
7885.17 30.6186
7885.40 47.0167
7885.70 81.3314
7886.00 111.990
7886.30 100.210
7886.60 70.6767
7886.86 51.5490
7887.12 39.2209
7887.38 31.2318
7887.64 25.8687
7888.15 19.4032
7888.67 15.8010
7889.19 13.5730
7889.71 12.0852
7890.74 10.2550
7891.78 9.18903
7892.82 8.49922
7894.89 7.66269
7896.96 7.17244
7899.03 6.84700
7903.18 6.43064
7907.32 6.16519
7911.47 5.98840
7913.54 5.94626
7915.61 6.00257
7916.65 6.15412
7917.68 6.62468
7918.20 7.24659
7918.46 7.82034
7918.72 8.76885
7918.98 10.4863
7919.11 11.9167
7919.24 14.0329
7919.37 17.3822
7919.50 22.9310
7919.63 32.9089
7919.76 51.3436
7919.88 79.0042
7920.00 97.4877
7920.12 79.2952
7920.24 51.7013
7920.33 38.8031
7920.41 29.9836
7920.57 19.9052
7920.74 14.7934
7920.90 11.9566
7921.06 10.2207
7921.23 9.09921
7921.55 7.77958
7921.88 7.06004
7922.20 6.62532
7922.86 6.14021
7924.16 5.72365
7925.47 5.53095
7928.08 5.31331
7930.70 5.15621
7935.92 4.86847
7941.15 4.56538
7946.37 4.25847
7948.99 4.14784
7951.60 4.16011
7954.21 4.54541
7955.52 5.09243
7956.82 6.17522
7958.13 8.36293
7959.44 13.0292
7960.09 17.2713
7960.74 23.8850
7961.39 34.4149
7962.05 51.2261
7963.02 92.2544
7964.00 131.385
7964.98 120.600
7965.95 86.6836
7966.72 65.7364
7967.49 51.3879
7968.26 41.6367
7969.03 34.8465
7970.57 26.3459
7972.11 21.4310
7973.65 18.3123
7975.18 16.1935
7978.26 13.5396
7981.34 11.9679
7984.41 10.9394
7990.57 9.68303
7996.72 8.94700
8002.87 8.46268
8009.03 8.11820
8015.18 7.85908
8027.48 7.49047
8039.79 7.23500
8064.40 6.88537
8089.01 6.63104
8113.62 6.40211
8125.93 6.27861
8138.24 6.13211
8144.39 6.04180
8150.54 5.93147
8156.69 5.79389
8159.77 5.74290
8160.54 5.76161
8161.31 5.85666
8161.69 6.00054
8162.08 6.37643
8162.27 6.82419
8162.46 7.79157
8162.56 8.74723
8162.65 10.4306
8162.75 13.6751
8162.80 16.4150
8162.85 20.3425
8162.92 29.2592
8163.00 35.2440
8163.08 29.3515
8163.15 20.4526
8163.22 15.2458
8163.29 12.1210
8163.43 9.00345
8163.56 7.63095
8163.70 6.92333
8163.97 6.25480
8164.24 5.95658
8164.79 5.69300
8165.33 5.57041
8166.42 5.43324
8167.51 5.33256
8169.68 5.13247
8171.86 4.88370
8172.95 4.72779
8174.03 4.54300
8175.12 4.32390
8176.21 4.07269
8177.30 3.83322
8177.84 3.77925
8178.39 3.88671
8178.93 4.45135
8179.20 5.15048
8179.47 6.45947
8179.75 8.98595
8179.88 11.0903
8180.02 14.1475
8180.15 18.6829
8180.29 25.5567
8180.43 36.1518
8180.56 52.3352
8180.78 94.6332
8181.00 134.759
8181.11 135.703
8181.22 123.447
8181.44 88.5652
8181.60 68.5908
8181.75 54.4944
8181.91 44.6011
8182.07 37.5358
8182.38 28.4634
8182.70 23.0950
8183.01 19.6431
8183.32 17.2766
8183.95 14.2935
8184.58 12.5191
8185.21 11.3598
8185.84 10.5476
8186.47 9.94927
8187.72 9.12967
8188.98 8.59715
8190.24 8.22333
8191.49 7.94674
8194.00 7.56341
8196.52 7.30892
8199.03 7.12609
8201.54 6.98715
8206.57 6.78638
8211.59 6.64427
8221.65 6.44493
8231.70 6.29884
8241.75 6.17609
8251.80 6.06572
8256.83 6.02670
8259.34 6.06613
8259.97 6.12516
8260.60 6.29120
8260.91 6.50367
8261.22 7.01680
8261.38 7.59200
8261.54 8.77510
8261.62 9.89285
8261.69 11.7312
8261.77 15.0458
8261.85 21.1120
8261.93 30.2797
8262.00 36.3322
8262.07 30.3159
8262.15 21.1562
8262.21 16.0444
8262.27 12.8715
8262.40 9.64246
8262.53 8.19762
8262.65 7.44791
8262.90 6.74063
8263.16 6.43113
8263.66 6.17052
8264.16 6.06436
8265.17 5.97502
8266.17 5.93410
8270.20 5.85523
8278.25 5.74067
8286.30 5.61668
8294.35 5.46724
8302.39 5.27012
8306.42 5.13927
8310.44 4.97003
8314.47 4.73352
8316.48 4.57216
8318.49 4.36388
8320.51 4.08640
8321.51 3.91583
8322.52 3.73163
8323.52 3.58414
8324.03 3.58418
8324.53 3.73986
8325.03 4.30343
8325.28 4.93969
8325.54 6.06593
8325.79 8.14098
8326.04 12.1291
8326.16 15.4819
8326.29 20.3652
8326.42 27.5568
8326.54 38.0138
8326.77 68.2564
8327.00 97.1080
8327.23 89.2306
8327.46 64.3696
8327.70 45.1149
8327.94 33.5284
8328.17 26.4297
8328.41 21.8450
8328.65 18.7115
8328.89 16.4878
8329.37 13.5803
8329.84 11.7941
8330.32 10.6058
8331.27 9.13684
8332.22 8.27097
8333.18 7.70189
8335.08 6.99610
8336.99 6.56739
8338.89 6.27129
8342.70 5.86613
8346.51 5.57409
8350.33 5.32706
8357.95 4.85681
8361.76 4.60141
8365.57 4.31553
8369.38 3.98860
8373.19 3.61969
8377.00 3.25959
8378.91 3.15838
8380.81 3.25683
8382.72 3.92701
8383.67 4.78539
8384.62 6.40748
8385.58 9.55640
8386.05 12.1785
8386.53 15.9838
8387.01 21.6306
8387.48 30.1443
8387.96 43.2051
8388.43 63.2283
8389.22 116.133
8390.00 167.115
8390.78 153.861
8391.57 110.396
8392.16 84.1045
8392.76 65.8285
8393.36 53.2457
8393.96 44.3948
8395.15 33.1937
8396.34 26.6612
8397.54 22.4899
8398.73 19.6451
8401.12 16.0692
8403.51 13.9458
8405.90 12.5551
8408.29 11.5785
8410.68 10.8577
8415.45 9.86669
8420.23 9.21844
8425.01 8.76107
8429.78 8.42056
8439.34 7.94622
8448.89 7.63283
8453.67 7.51698
8458.45 7.43015
8463.22 7.40803
8465.61 7.49351
8466.81 7.63424
8468.00 8.00467
8468.00 10.8104
10000.0 10.4773
12500.0 10.0781
15000.0 9.78883
17000.0 9.60793
20000.0 9.39284
25000.0 9.13081
30000.0 8.94241
35000.0 8.79919
40000.0 8.68581
50000.0 8.51574
60000.0 8.39206
70000.0 8.29609
80000.0 8.21811
99999.9 8.09514
100000 8.08991
150000 8.00464
153097 7.99878
153097 7.99878
176549 7.94360
200000 7.89830
250000 7.76811
284338 7.66717
284338 7.66717
300000 7.61868
350000 7.39967
400000 7.21814
500000 6.93104
520106 6.85993
542593 6.76656
565080 6.67902
587566 6.59674
610053 6.51923
632540 6.44606
655027 6.37683
677513 6.31123
700000 6.24894
721866 6.17821
743731 6.11058
757798 6.06592
771866 6.02261
785933 5.98057
800000 5.93975
819704 5.88014
839409 5.82288
859113 5.76783
878817 5.71485
893489 5.67488
900000 5.65734
915321 5.61537
930643 5.57486
945964 5.53574
961285 5.49793
980643 5.44914
1.00000E+06 5.40259
1.02362E+06 5.34313
1.04724E+06 5.28642
1.07086E+06 5.23228
1.09448E+06 5.18054
1.11810E+06 5.13106
1.14172E+06 5.08370
1.16534E+06 5.03834
1.18896E+06 4.99485
1.21948E+06 4.93707
1.25000E+06 4.88224
1.27969E+06 4.83048
1.30937E+06 4.78099
1.30937E+06 4.78099
1.33320E+06 4.74211
1.35703E+06 4.70461
1.38086E+06 4.66840
1.40469E+06 4.63344
1.42852E+06 4.59965
1.45234E+06 4.56699
1.47617E+06 4.53539
1.50000E+06 4.50482
1.53125E+06 4.46538
1.56250E+06 4.42776
1.59375E+06 4.39186
1.62500E+06 4.35757
1.65625E+06 4.32479
1.68750E+06 4.29345
1.71875E+06 4.26346
1.75000E+06 4.23474
1.78125E+06 4.20668
1.81250E+06 4.17981
1.84375E+06 4.15405
1.87500E+06 4.12936
1.90625E+06 4.10568
1.93750E+06 4.08296
1.96875E+06 4.06114
2.00000E+06 4.04019
2.05619E+06 4.01287
2.11237E+06 3.98698
2.16856E+06 3.96241
2.22475E+06 3.93908
2.28093E+06 3.91690
2.33712E+06 3.89578
2.39330E+06 3.87567
2.44949E+06 3.85649
2.51830E+06 3.83012
2.58712E+06 3.80523
2.65593E+06 3.78168
2.72475E+06 3.75939
2.79356E+06 3.73826
2.86237E+06 3.71822
2.93119E+06 3.69920
3.00000E+06 3.68113
3.11603E+06 3.68011
3.23205E+06 3.67918
3.34808E+06 3.67835
3.46410E+06 3.67761
3.52868E+06 3.67713
3.59326E+06 3.67668
3.65784E+06 3.67626
3.72242E+06 3.67585
3.79182E+06 3.67537
3.86121E+06 3.67492
3.93061E+06 3.67450
4.00000E+06 3.67411
4.09160E+06 3.69054
4.18320E+06 3.70693
4.27480E+06 3.72327
4.36640E+06 3.73955
4.46420E+06 3.75616
4.56200E+06 3.77272
4.66419E+06 3.78947
4.76637E+06 3.80617
4.88319E+06 3.82465
5.00000E+06 3.84304
5.23862E+06 3.90755
5.47723E+06 3.97116
5.60792E+06 4.00462
5.73862E+06 4.03784
5.86931E+06 4.07081
6.00000E+06 4.10354
6.02135E+06 4.10904
6.04270E+06 4.11452
6.06405E+06 4.12000
6.08539E+06 4.12548
6.10674E+06 4.13094
6.12809E+06 4.13639
6.14944E+06 4.14184
6.17079E+06 4.14727
6.19214E+06 4.15270
6.21349E+06 4.15812
6.23483E+06 4.16354
6.25618E+06 4.16894
6.27753E+06 4.17434
6.29888E+06 4.17972
6.32023E+06 4.18510
6.34158E+06 4.19048
6.36292E+06 4.19584
6.38427E+06 4.20120
6.40562E+06 4.20654
6.42697E+06 4.21188
6.44832E+06 4.21722
6.46967E+06 4.22254
6.49102E+06 4.22786
6.51236E+06 4.23317
6.53371E+06 4.23847
6.55506E+06 4.24376
6.57641E+06 4.24905
6.59776E+06 4.25433
6.61911E+06 4.25960
6.64045E+06 4.26486
6.66180E+06 4.27012
6.68315E+06 4.27537
6.76236E+06 4.29452
6.84158E+06 4.31357
6.92079E+06 4.33252
7.00000E+06 4.35137
7.10394E+06 4.36700
7.19878E+06 4.38103
7.29363E+06 4.39498
7.38847E+06 4.40883
7.48331E+06 4.42260
7.61248E+06 4.44092
7.74166E+06 4.45910
7.87083E+06 4.47712
8.00000E+06 4.49499
8.01517E+06 4.49534
8.03033E+06 4.49570
8.04550E+06 4.49605
8.06066E+06 4.49640
8.07583E+06 4.49675
8.09099E+06 4.49710
8.10616E+06 4.49745
8.12132E+06 4.49781
8.13649E+06 4.49816
8.15165E+06 4.49851
8.16682E+06 4.49886
8.18198E+06 4.49921
8.19715E+06 4.49956
8.21231E+06 4.49992
8.22748E+06 4.50027
8.24264E+06 4.50062
8.25781E+06 4.50097
8.27297E+06 4.50132
8.28814E+06 4.50167
8.30330E+06 4.50202
8.31847E+06 4.50238
8.33363E+06 4.50273
8.34880E+06 4.50308
8.36396E+06 4.50343
8.37913E+06 4.50378
8.39429E+06 4.50413
8.40946E+06 4.50448
8.42462E+06 4.50484
8.43979E+06 4.50519
8.45495E+06 4.50554
8.47012E+06 4.50589
8.48528E+06 4.50624
8.50137E+06 4.50659
8.51745E+06 4.50695
8.53354E+06 4.50730
8.54962E+06 4.50765
8.56571E+06 4.50800
8.58179E+06 4.50835
8.59788E+06 4.50871
8.61396E+06 4.50906
8.63005E+06 4.50941
8.64613E+06 4.50976
8.66222E+06 4.51012
8.67830E+06 4.51047
8.69439E+06 4.51082
8.71047E+06 4.51117
8.72656E+06 4.51153
8.74264E+06 4.51188
8.75873E+06 4.51223
8.77481E+06 4.51259
8.79090E+06 4.51294
8.80698E+06 4.51329
8.82307E+06 4.51364
8.83915E+06 4.51400
8.85524E+06 4.51435
8.87132E+06 4.51470
8.88741E+06 4.51506
8.90349E+06 4.51541
8.91958E+06 4.51576
8.93566E+06 4.51611
8.95175E+06 4.51647
8.96783E+06 4.51682
8.98392E+06 4.51718
9.00000E+06 4.51753
9.07808E+06 4.51119
9.15615E+06 4.50492
9.23882E+06 4.49821
9.32149E+06 4.49158
9.40416E+06 4.48502
9.48683E+06 4.47854
9.55098E+06 4.47357
9.61512E+06 4.46865
9.67927E+06 4.46380
9.74342E+06 4.45901
9.80756E+06 4.45430
9.87171E+06 4.44968
9.93585E+06 4.44518
1.00000E+07 4.44083
1.00542E+07 4.43172
1.01083E+07 4.42275
1.01239E+07 4.42005
1.01395E+07 4.41735
1.01551E+07 4.41466
1.01707E+07 4.41198
1.01863E+07 4.40932
1.02019E+07 4.40667
1.02175E+07 4.40402
1.02331E+07 4.40139
1.02487E+07 4.39877
1.02643E+07 4.39617
1.02799E+07 4.39357
1.02955E+07 4.39099
1.03111E+07 4.38843
1.03267E+07 4.38587
1.03423E+07 4.38333
1.03579E+07 4.38081
1.03735E+07 4.37830
1.03891E+07 4.37580
1.04047E+07 4.37332
1.04202E+07 4.37086
1.04358E+07 4.36841
1.04514E+07 4.36598
1.04670E+07 4.36357
1.04826E+07 4.36117
1.04982E+07 4.35880
1.05138E+07 4.35644
1.05294E+07 4.35411
1.05450E+07 4.35179
1.05606E+07 4.34950
1.05762E+07 4.34723
1.05918E+07 4.34498
1.06074E+07 4.34275
1.06074E+07 4.34274
1.06320E+07 4.33873
1.06565E+07 4.33476
1.06811E+07 4.33083
1.07056E+07 4.32693
1.07301E+07 4.32307
1.07547E+07 4.31925
1.07792E+07 4.31546
1.08037E+07 4.31172
1.08283E+07 4.30802
1.08528E+07 4.30437
1.08773E+07 4.30075
1.09019E+07 4.29719
1.09264E+07 4.29366
1.09509E+07 4.29019
1.09755E+07 4.28676
1.10000E+07 4.28339
1.10406E+07 4.27741
1.11006E+07 4.26682
1.11605E+07 4.25656
1.12205E+07 4.24662
1.12805E+07 4.23699
1.13404E+07 4.22767
1.14004E+07 4.21866
1.14603E+07 4.20996
1.15203E+07 4.20155
1.15803E+07 4.19343
1.16402E+07 4.18561
1.17002E+07 4.17807
1.17602E+07 4.17082
1.18201E+07 4.16384
1.18801E+07 4.15713
1.19400E+07 4.15070
1.20000E+07 4.14454
1.21250E+07 4.12090
1.22500E+07 4.09835
1.23750E+07 4.07688
1.25000E+07 4.05644
1.26250E+07 4.03701
1.27500E+07 4.01857
1.28750E+07 4.00109
1.30000E+07 3.98455
1.30625E+07 3.97473
1.31250E+07 3.96504
1.31875E+07 3.95547
1.32500E+07 3.94602
1.33125E+07 3.93670
1.33750E+07 3.92750
1.34375E+07 3.91841
1.35000E+07 3.90945
1.35625E+07 3.90061
1.36250E+07 3.89188
1.36875E+07 3.88327
1.37500E+07 3.87478
1.38125E+07 3.86640
1.38750E+07 3.85814
1.39375E+07 3.84999
1.40000E+07 3.84195
1.40625E+07 3.83371
1.41250E+07 3.82559
1.41875E+07 3.81761
1.42500E+07 3.80976
1.43125E+07 3.80204
1.43750E+07 3.79444
1.44375E+07 3.78698
1.45000E+07 3.77964
1.46250E+07 3.76417
1.47500E+07 3.74914
1.48750E+07 3.73455
1.50000E+07 3.72040
1.51037E+07 3.70872
1.52074E+07 3.69733
1.53111E+07 3.68623
1.54148E+07 3.67541
1.55611E+07 3.65946
1.57074E+07 3.64404
1.58537E+07 3.62916
1.60000E+07 3.61482
1.60893E+07 3.60369
1.61787E+07 3.59277
1.62680E+07 3.58203
1.63573E+07 3.57148
1.64466E+07 3.56111
1.65360E+07 3.55094
1.66253E+07 3.54096
1.67146E+07 3.53116
1.67324E+07 3.52912
1.67503E+07 3.52708
1.67681E+07 3.52505
1.67860E+07 3.52303
1.68038E+07 3.52101
1.68216E+07 3.51900
1.68395E+07 3.51700
1.68573E+07 3.51500
1.68751E+07 3.51301
1.68930E+07 3.51102
1.69108E+07 3.50905
1.69287E+07 3.50708
1.69465E+07 3.50512
1.69643E+07 3.50316
1.69822E+07 3.50121
1.70000E+07 3.49927
1.70625E+07 3.49211
1.71250E+07 3.48503
1.71875E+07 3.47803
1.72500E+07 3.47110
1.73125E+07 3.46424
1.73750E+07 3.45746
1.74375E+07 3.45075
1.75000E+07 3.44411
1.75625E+07 3.43756
1.76250E+07 3.43107
1.76875E+07 3.42466
1.77500E+07 3.41832
1.78125E+07 3.41206
1.78750E+07 3.40588
1.79375E+07 3.39977
1.80000E+07 3.39373
1.81250E+07 3.37576
1.82500E+07 3.35808
1.83750E+07 3.34070
1.85000E+07 3.32362
1.86250E+07 3.30683
1.87500E+07 3.29033
1.88750E+07 3.27412
1.90000E+07 3.25822
1.91384E+07 3.24032
1.92768E+07 3.22273
1.94152E+07 3.20544
1.95536E+07 3.18845
1.97768E+07 3.16120
2.00000E+07 3.13467