Sr-87(n,tot) ENDF/B-VII.1
Energy(eV) XS(b)
1.00000E-05 802.759
1.25000E-05 718.739
1.50000E-05 656.718
2.00000E-05 569.660
2.75000E-05 486.825
3.50000E-05 432.309
4.25000E-05 392.954
5.00000E-05 362.825
6.25000E-05 325.251
7.50000E-05 297.515
0.000100000 258.583
0.000125000 232.014
0.000150000 212.403
0.000200000 184.874
0.000275000 158.682
0.000350000 141.445
0.000425000 129.001
0.000500000 119.476
0.000625000 107.596
0.000750000 98.8276
0.00100000 86.5203
0.00125000 78.1223
0.00150000 71.9238
0.00200000 63.2245
0.00275000 54.9494
0.00350000 49.5051
0.00425000 45.5761
0.00500000 42.5692
0.00625000 38.8208
0.00750000 36.0554
0.0100000 32.1767
0.0125000 29.5326
0.0150000 27.5830
0.0200000 24.8508
0.0253000 22.8969
0.0314750 21.2805
0.0376500 20.0836
0.0500000 18.4015
0.0625000 17.2432
0.0750000 16.3935
0.100000 15.2119
0.125000 14.4166
0.150000 13.8381
0.200000 13.0448
0.275000 12.3236
0.350000 11.8808
0.500000 11.3885
0.750000 11.0984
1.00000 11.1425
1.50000 11.9736
2.00000 14.3135
2.35680 18.2897
2.53520 22.0657
2.71360 28.5252
2.89200 40.9100
2.98120 51.8491
3.07040 69.3011
3.15960 99.5143
3.24880 158.005
3.29340 209.477
3.33800 289.836
3.38260 420.678
3.42720 636.576
3.45290 811.076
3.47860 1009.93
3.53000 1255.52
3.58140 1002.04
3.63280 626.724
3.67553 418.479
3.71825 290.200
3.76098 210.345
3.80370 158.704
3.88915 99.5372
3.97460 68.7956
4.06005 51.0074
4.14550 39.8615
4.31640 27.2697
4.48730 20.7260
4.65820 16.9087
4.82910 14.4936
5.00000 12.8709
5.31250 11.0208
5.62500 9.93501
5.93750 9.24280
6.25000 8.77334
6.87500 8.19208
7.50000 7.85513
8.12500 7.63868
8.75000 7.48859
10.0000 7.29298
11.2500 7.16830
12.5000 7.07897
15.0000 6.95282
17.5000 6.86193
20.0000 6.78947
23.8037 6.69994
27.6073 6.62655
31.4110 6.56633
32.3619 6.55496
33.3128 6.54973
33.7882 6.55490
34.0260 6.56333
34.2637 6.58112
34.5014 6.62142
34.6203 6.66146
34.7392 6.73222
34.8580 6.87301
34.9175 7.00143
34.9769 7.21265
35.0363 7.59401
35.0660 7.90999
35.0957 8.38123
35.1255 9.12244
35.1552 10.3631
35.1849 12.5869
35.2146 16.7264
35.2423 22.8664
35.2700 26.9659
35.2977 22.8785
35.3254 16.7410
35.3541 12.7050
35.3827 10.4896
35.4114 9.23171
35.4401 8.47099
35.4687 7.98252
35.4974 7.65283
35.5547 7.25151
35.6120 7.02695
35.6694 6.88915
35.7840 6.73585
35.8986 6.65676
36.0133 6.61039
36.2426 6.56022
36.4719 6.53424
36.7012 6.51835
37.1597 6.49921
38.0769 6.47779
38.9941 6.46291
42.6627 6.41673
50.0000 6.34153
62.5000 6.23969
75.0000 6.15962
100.000 6.03980
125.000 5.95245
150.000 5.88422
200.000 5.77948
260.621 5.67826
275.776 5.65363
290.932 5.62698
298.509 5.61139
302.298 5.60227
306.087 5.59144
309.876 5.57742
311.770 5.56823
313.664 5.55645
314.612 5.54911
315.559 5.54040
316.506 5.52995
317.453 5.51756
317.927 5.51088
318.400 5.50462
318.874 5.50068
319.348 5.50478
319.584 5.51478
319.821 5.53689
320.058 5.58403
320.295 5.68813
320.413 5.78553
320.532 5.94319
320.650 6.21317
320.768 6.71385
320.887 7.75945
320.946 8.74490
321.005 10.4013
321.064 13.4502
321.094 16.0043
321.124 19.8362
321.153 25.8788
321.183 35.9847
321.212 53.9696
321.242 87.0753
321.257 111.214
321.271 139.272
321.300 176.841
321.329 145.962
321.358 95.4403
321.380 68.7055
321.402 51.2547
321.424 39.7850
321.445 32.0338
321.489 22.7119
321.533 17.6050
321.576 14.5206
321.620 12.5263
321.707 10.1790
321.794 8.89500
321.882 8.11333
321.969 7.59863
322.056 7.23982
322.230 6.78119
322.405 6.50699
322.579 6.32774
322.754 6.20304
323.103 6.04302
323.452 5.94618
323.800 5.88196
324.149 5.83655
324.847 5.77689
325.545 5.73960
326.243 5.71407
326.941 5.69546
328.336 5.66992
329.732 5.65298
332.523 5.63114
335.315 5.61688
338.106 5.60622
343.688 5.59005
354.853 5.56586
366.019 5.54535
410.679 5.46779
455.340 5.37941
500.000 5.26240
521.472 5.18500
526.840 5.16120
532.207 5.13357
534.891 5.11698
536.233 5.10737
537.575 5.09635
538.917 5.08316
539.588 5.07552
540.259 5.06734
540.930 5.06030
541.266 5.05953
541.601 5.06541
541.937 5.09198
542.105 5.12690
542.272 5.19970
542.356 5.26542
542.440 5.36904
542.524 5.54140
542.608 5.84966
542.692 6.46474
542.734 7.01819
542.775 7.90692
542.817 9.44528
542.859 12.3592
542.880 14.8547
542.901 18.5985
542.922 24.4321
542.943 33.4723
542.972 51.9121
543.000 65.3002
543.029 54.6209
543.057 36.9432
543.083 26.1343
543.108 19.5962
543.134 15.5858
543.159 13.0137
543.211 10.0747
543.262 8.53832
543.313 7.63762
543.364 7.06377
543.467 6.39791
543.569 6.03756
543.671 5.81849
543.774 5.67412
543.876 5.57325
544.081 5.44333
544.286 5.36466
544.695 5.27564
545.105 5.22711
545.514 5.19658
546.333 5.15973
547.152 5.13748
547.972 5.12185
549.610 5.09965
552.886 5.06875
556.162 5.04339
569.268 4.94499
582.373 4.82589
595.479 4.66597
602.031 4.56167
608.584 4.43307
615.137 4.27037
621.689 4.05931
624.966 3.93042
628.242 3.78480
631.518 3.62839
634.795 3.49141
636.433 3.46168
638.071 3.50624
639.709 3.72295
641.347 4.36559
642.167 5.04331
642.986 6.21083
643.805 8.31294
644.624 12.3762
645.033 15.8650
645.443 21.1661
645.852 29.6327
646.262 44.0649
646.672 71.0024
646.876 93.7839
647.081 128.174
647.286 182.804
647.491 274.785
647.695 439.876
647.900 746.466
648.100 1233.82
648.300 1593.80
648.500 1317.81
648.700 851.680
648.912 528.684
649.124 349.405
649.336 246.606
649.548 183.748
649.760 142.910
649.971 114.986
650.395 80.3745
650.819 60.4968
651.243 47.9872
652.090 33.5951
652.938 25.8417
653.785 21.1270
654.633 18.0117
655.480 15.8249
657.175 12.9925
658.870 11.2578
660.565 10.0923
662.260 9.25348
665.650 8.10334
667.345 7.67151
669.040 7.28347
670.735 6.90475
671.583 6.70653
672.430 6.49641
672.854 6.38802
673.278 6.28287
673.701 6.19613
674.125 6.17469
674.337 6.22872
674.549 6.38151
674.761 6.73698
674.973 7.54748
675.185 9.53531
675.291 11.6065
675.396 15.3471
675.502 22.8260
675.555 29.5363
675.608 40.2035
675.661 58.3741
675.714 91.9010
675.741 119.785
675.767 160.677
675.794 221.916
675.820 313.179
675.860 517.793
675.900 670.916
675.940 558.518
675.980 364.754
676.010 261.110
676.040 192.686
676.070 147.339
676.100 116.473
676.160 78.9711
676.219 58.2361
676.279 45.5890
676.339 37.3276
676.459 27.4825
676.578 22.0095
676.698 18.6253
676.818 16.3634
676.937 14.7664
677.177 12.6864
677.416 11.4114
677.655 10.5583
677.895 9.95049
678.373 9.14466
678.852 8.63433
679.330 8.28013
679.809 8.01785
680.766 7.64970
681.724 7.39729
683.638 7.05807
685.553 6.82670
687.467 6.64948
691.296 6.37896
698.954 5.98351
706.613 5.64731
714.271 5.28406
718.100 5.06312
721.929 4.79167
723.843 4.62883
725.758 4.44373
727.672 4.23765
729.587 4.03090
730.544 3.95200
731.502 3.92992
732.459 4.04915
733.416 4.53281
733.895 5.08604
734.373 6.07173
734.852 7.88738
735.331 11.4491
735.570 14.5266
735.809 19.2102
736.049 26.6825
736.288 39.3681
736.527 62.8104
736.647 82.4126
736.766 111.622
736.886 157.217
737.006 232.021
737.125 361.525
737.245 590.893
737.373 981.484
737.500 1274.97
737.628 1061.89
737.755 691.582
737.897 423.286
738.039 277.754
738.180 195.625
738.322 145.978
738.464 113.913
738.606 92.0920
738.889 65.1013
739.173 49.6159
739.456 39.8534
740.023 28.5740
740.590 22.4441
741.157 18.6739
741.724 16.1457
742.291 14.3359
743.425 11.8849
743.992 10.9839
744.559 10.1969
745.126 9.47982
745.410 9.15051
745.693 8.87685
745.977 8.79502
746.118 8.97159
746.260 9.54640
746.402 11.1487
746.473 12.8730
746.544 15.9830
746.614 22.0583
746.650 27.3128
746.685 35.3449
746.721 48.2423
746.756 69.9704
746.774 86.4658
746.792 108.767
746.809 139.112
746.827 180.125
746.845 235.706
746.864 302.007
746.900 399.202
746.918 387.766
746.937 340.761
746.973 228.984
747.000 168.895
747.027 128.178
747.054 100.694
747.080 81.6951
747.134 58.2181
747.187 44.9489
747.241 36.7022
747.295 31.2274
747.402 24.5613
747.509 20.7589
747.616 18.3470
747.830 15.5058
748.044 13.9034
748.259 12.8771
748.687 11.6275
749.115 10.8789
749.544 10.3674
750.401 9.68825
751.258 9.23773
752.115 8.90520
753.828 8.43037
755.542 8.09678
757.256 7.84434
760.683 7.48103
764.111 7.22799
767.538 7.03938
774.393 6.77334
781.248 6.59157
788.103 6.45732
801.813 6.26804
815.523 6.13696
829.233 6.03780
856.653 5.89107
884.073 5.77994
911.493 5.68418
925.204 5.63693
938.914 5.58464
945.769 5.55236
949.196 5.53247
952.624 5.50769
956.051 5.47353
957.765 5.44980
959.479 5.41786
960.335 5.39701
961.192 5.37124
962.049 5.33847
962.906 5.29560
963.335 5.26919
963.763 5.23908
964.191 5.20623
964.620 5.17633
964.834 5.16851
965.048 5.17484
965.263 5.21427
965.477 5.33573
965.584 5.46482
965.691 5.68716
965.798 6.08555
965.905 6.84738
966.012 8.46127
966.066 9.98026
966.119 12.4963
966.173 17.0116
966.226 25.9646
966.253 33.9433
966.280 46.4272
966.307 66.6856
966.334 99.7699
966.367 163.619
966.400 212.005
966.433 177.761
966.467 117.691
966.499 77.7176
966.532 54.5115
966.565 40.6550
966.598 31.9751
966.630 26.2020
966.663 22.2046
966.729 17.1554
966.794 14.2045
966.860 12.3221
966.991 10.1262
967.122 8.92519
967.253 8.18660
967.384 7.69427
967.515 7.34630
967.777 6.89246
968.039 6.61311
968.301 6.42564
968.562 6.29192
969.086 6.11475
969.610 6.00325
970.134 5.92676
970.658 5.87105
971.706 5.79514
972.754 5.74553
973.802 5.71026
974.850 5.68364
976.946 5.64547
979.042 5.61867
983.233 5.58154
987.425 5.55507
991.617 5.53378
1000.00 5.49875
1022.99 5.42023
1045.99 5.34674
1091.97 5.18732
1137.95 4.98411
1160.95 4.84790
1166.69 4.80564
1172.44 4.75512
1175.32 4.72316
1176.75 4.70372
1178.19 4.68023
1179.63 4.64990
1180.35 4.63062
1181.06 4.60754
1181.78 4.58095
1182.14 4.56866
1182.50 4.56333
1182.86 4.58606
1183.04 4.63022
1183.22 4.73479
1183.31 4.83592
1183.40 5.00143
1183.49 5.28567
1183.58 5.80133
1183.67 6.86212
1183.71 7.83192
1183.76 9.40455
1183.80 12.1426
1183.85 17.3776
1183.87 21.9885
1183.89 28.6472
1183.92 38.8783
1183.94 54.6432
1183.97 87.9572
1184.00 112.971
1184.03 94.7097
1184.06 63.0856
1184.10 39.0281
1184.14 26.5419
1184.17 19.7270
1184.21 15.7797
1184.25 13.1862
1184.28 11.4805
1184.36 9.35154
1184.43 8.13791
1184.50 7.37593
1184.65 6.49903
1184.79 6.02222
1184.94 5.73296
1185.23 5.40446
1185.53 5.22618
1185.82 5.11623
1186.40 4.98790
1186.99 4.91532
1187.57 4.86810
1188.74 4.80873
1189.91 4.77107
1191.08 4.74350
1193.42 4.70250
1198.10 4.64190
1202.78 4.58999
1221.50 4.38127
1230.86 4.25970
1240.22 4.11552
1244.90 4.02824
1249.58 3.91863
1251.92 3.84521
1253.09 3.79872
1254.26 3.74065
1255.43 3.66276
1256.01 3.61176
1256.60 3.54912
1257.18 3.47441
1257.47 3.43751
1257.77 3.41632
1257.91 3.42431
1258.06 3.46265
1258.21 3.56548
1258.35 3.81641
1258.50 4.45349
1258.57 5.12396
1258.64 6.33486
1258.72 8.72660
1258.75 10.8716
1258.79 14.1283
1258.83 19.6530
1258.84 23.6916
1258.86 29.1254
1258.88 37.0647
1258.90 47.6552
1258.92 62.6048
1258.94 83.5907
1258.95 110.018
1258.97 139.344
1259.00 180.921
1259.02 174.233
1259.03 152.439
1259.07 102.187
1259.10 63.8609
1259.14 43.5105
1259.17 31.8919
1259.21 24.7902
1259.25 20.1663
1259.28 16.9930
1259.35 13.0324
1259.43 10.7338
1259.50 9.27050
1259.64 7.56059
1259.79 6.61459
1259.93 6.03286
1260.08 5.64138
1260.22 5.36200
1260.51 4.99150
1260.80 4.75987
1261.09 4.60081
1261.37 4.48542
1261.95 4.32757
1262.53 4.22359
1263.68 4.09118
1264.83 4.00593
1265.99 3.94302
1268.29 3.84876
1272.91 3.70948
1277.52 3.59320
1286.75 3.39391
1295.98 3.28456
1300.59 3.32543
1305.21 3.52083
1309.82 4.04376
1314.43 5.31747
1316.74 6.54600
1319.05 8.54438
1321.36 11.9331
1323.66 18.0387
1325.97 30.0541
1327.12 40.6163
1328.28 57.0256
1329.43 83.9622
1330.58 131.059
1331.74 219.709
1332.31 292.417
1332.89 394.093
1333.95 664.230
1335.00 874.864
1336.06 738.000
1337.11 486.723
1338.12 321.420
1339.13 223.065
1340.15 163.515
1341.16 125.635
1342.17 100.230
1343.18 82.4513
1345.20 59.8001
1347.23 46.4114
1349.25 37.7917
1353.30 27.6229
1357.34 21.9811
1361.39 18.4647
1365.43 16.0851
1369.48 14.3720
1377.57 12.0434
1385.67 10.4188
1389.71 9.66684
1391.74 9.25623
1393.76 8.78115
1395.78 8.17412
1396.79 7.77976
1397.80 7.28490
1398.31 6.98529
1398.82 6.64394
1399.32 6.26352
1399.83 5.88049
1400.08 5.72926
1400.33 5.67160
1400.59 5.84064
1400.84 6.57033
1401.09 8.81481
1401.22 11.3350
1401.35 15.9176
1401.41 19.6771
1401.47 24.9603
1401.54 32.6833
1401.60 44.3337
1401.66 62.5764
1401.72 92.3668
1401.79 143.035
1401.85 230.664
1401.93 401.208
1402.00 546.445
1402.08 476.519
1402.15 324.734
1402.22 220.106
1402.30 156.996
1402.37 118.372
1402.44 93.8070
1402.51 76.9146
1402.59 64.9735
1402.73 49.6552
1402.88 40.3687
1403.02 34.3321
1403.31 27.0302
1403.61 22.8758
1403.90 20.2324
1404.19 18.4166
1404.48 17.1019
1405.06 15.3197
1405.64 14.1756
1406.22 13.3757
1406.80 12.7850
1407.97 11.9623
1409.13 11.4108
1411.46 10.6989
1413.78 10.2412
1416.11 9.90989
1420.76 9.44014
1425.42 9.10574
1430.07 8.84549
1439.37 8.45216
1457.99 7.92906
1476.60 7.58321
1495.21 7.33284
1513.82 7.14148
1551.05 6.86528
1588.27 6.67225
1625.49 6.52577
1662.72 6.40291
1672.02 6.37218
1681.33 6.33816
1685.98 6.31783
1690.64 6.29153
1692.96 6.27306
1695.29 6.24531
1696.45 6.22335
1697.62 6.18839
1698.20 6.16140
1698.78 6.12574
1699.07 6.11067
1699.36 6.13284
1699.51 6.21366
1699.58 6.31298
1699.65 6.50471
1699.72 6.91727
1699.76 7.29431
1699.80 7.90265
1699.83 8.98153
1699.87 10.9334
1699.91 14.8722
1699.92 18.3111
1699.94 23.3776
1699.97 36.1037
1700.00 46.0260
1700.03 39.9612
1700.06 28.7254
1700.08 23.2210
1700.10 19.4775
1700.13 14.7374
1700.17 12.1663
1700.21 10.6445
1700.24 9.67332
1700.28 9.01500
1700.35 8.20915
1700.43 7.73596
1700.50 7.43495
1700.65 7.08352
1700.94 6.76412
1701.24 6.62003
1701.83 6.48737
1702.42 6.42475
1703.60 6.36229
1704.78 6.32836
1707.14 6.28465
1709.50 6.24759
1711.86 6.20341
1713.04 6.17372
1714.22 6.13384
1715.40 6.07504
1715.99 6.03316
1716.58 5.97766
1717.17 5.90220
1717.46 5.85609
1717.76 5.80901
1718.05 5.78487
1718.20 5.81035
1718.35 5.91444
1718.49 6.24177
1718.57 6.61805
1718.64 7.31825
1718.71 8.77191
1718.75 10.0867
1718.79 12.1029
1718.82 15.5499
1718.86 21.7141
1718.90 33.5894
1718.92 43.1887
1718.93 56.6814
1718.95 73.7289
1718.97 92.8283
1719.00 121.965
1719.03 105.363
1719.07 72.4166
1719.10 48.4917
1719.14 35.1157
1719.17 26.9864
1719.20 22.0484
1719.24 18.6788
1719.27 16.4026
1719.34 13.5017
1719.41 11.7606
1719.48 10.6534
1719.62 9.32892
1719.75 8.58456
1719.89 8.12186
1720.16 7.58243
1720.44 7.28162
1720.71 7.09285
1721.26 6.86984
1721.81 6.74294
1722.36 6.66129
1723.46 6.56224
1724.55 6.50384
1725.65 6.46499
1727.85 6.41554
1730.04 6.38447
1732.24 6.36241
1736.63 6.33167
1741.02 6.30985
1745.40 6.29255
1754.18 6.26489
1771.74 6.22195
1789.30 6.18610
1859.53 6.06576
1929.77 5.94927
1964.88 5.87771
1982.44 5.82949
1991.22 5.79633
1995.61 5.77431
2000.00 5.74447
2003.23 5.71200
2004.85 5.68903
2006.47 5.65760
2008.08 5.61049
2008.89 5.57621
2009.70 5.52944
2010.51 5.46186
2010.91 5.41637
2011.32 5.36125
2011.72 5.30191
2011.92 5.28162
2012.13 5.29276
2012.33 5.41049
2012.43 5.58253
2012.53 5.94944
2012.63 6.78863
2012.68 7.61984
2012.73 9.00121
2012.78 11.5675
2012.83 16.6032
2012.86 21.2763
2012.88 28.2968
2012.91 39.5232
2012.93 57.6070
2012.95 75.1015
2012.97 94.7041
2013.00 124.498
2013.03 107.114
2013.07 73.1576
2013.11 46.6196
2013.14 32.4372
2013.18 24.5248
2013.22 19.8554
2013.26 16.7468
2013.30 14.6724
2013.38 12.0428
2013.45 10.5127
2013.53 9.53456
2013.68 8.38380
2013.84 7.74447
2013.99 7.34465
2014.30 6.87935
2014.61 6.62068
2014.92 6.45746
2015.53 6.26423
2016.15 6.15384
2016.76 6.08254
2018.00 5.99513
2019.23 5.94276
2020.46 5.90719
2022.93 5.86021
2025.39 5.82867
2027.86 5.80446
2032.78 5.76608
2042.64 5.70128
2052.50 5.63317
2062.36 5.54872
2072.22 5.43078
2077.15 5.34868
2082.08 5.23792
2084.54 5.16383
2087.01 5.06563
2088.24 4.99941
2089.47 4.91029
2090.09 4.85181
2090.70 4.78807
2091.01 4.77494
2091.17 4.79369
2091.32 4.86338
2091.47 5.07244
2091.55 5.30812
2091.63 5.75030
2091.70 6.65426
2091.74 7.48427
2091.78 8.77053
2091.82 10.9984
2091.86 14.9324
2091.90 22.9183
2091.92 29.6039
2091.94 39.7589
2091.95 51.0544
2091.97 64.3124
2092.00 83.5569
2092.03 71.5704
2092.06 48.8506
2092.08 38.3766
2092.10 31.0798
2092.14 21.9270
2092.18 16.7434
2092.22 13.7288
2092.26 11.7433
2092.30 10.4293
2092.37 8.79363
2092.45 7.83473
2092.52 7.23222
2092.68 6.51970
2092.83 6.12176
2092.98 5.87366
2093.29 5.58060
2093.90 5.30033
2094.52 5.15559
2095.74 4.98208
2096.97 4.85524
2099.42 4.61876
2101.87 4.34554
2103.10 4.18302
2104.32 4.00030
2105.55 3.80323
2106.78 3.62518
2107.39 3.57808
2108.00 3.61154
2108.61 3.82866
2109.23 4.48590
2109.84 6.31662
2110.15 8.30980
2110.45 11.9293
2110.76 19.0727
2110.91 25.2715
2111.07 34.7695
2111.22 49.9856
2111.37 75.6663
2111.53 121.409
2111.68 205.212
2111.84 351.549
2112.00 471.413
2112.16 405.101
2112.32 272.170
2112.44 200.216
2112.56 151.572
2112.68 118.276
2112.79 95.3548
2113.03 66.7428
2113.26 50.4558
2113.50 40.3126
2113.73 33.5456
2114.20 25.2917
2114.67 20.5752
2115.14 17.5857
2115.61 15.5479
2116.08 14.0822
2117.02 12.1336
2117.96 10.9097
2118.90 10.0761
2119.84 9.47512
2121.72 8.66865
2123.60 8.15526
2125.48 7.80075
2127.36 7.54167
2131.12 7.18822
2134.88 6.95840
2138.64 6.79665
2142.40 6.67639
2149.92 6.50866
2157.44 6.39630
2164.96 6.31491
2172.47 6.25257
2187.51 6.16160
2202.55 6.09631
2232.62 6.00244
2262.70 5.92955
2292.77 5.85982
2307.81 5.82012
2315.33 5.79683
2322.85 5.76907
2330.37 5.73278
2334.13 5.70852
2337.89 5.67648
2341.65 5.62953
2343.53 5.59538
2345.41 5.54776
2347.29 5.47495
2348.23 5.42125
2349.16 5.34709
2350.10 5.23829
2350.57 5.16358
2351.04 5.07075
2351.51 4.96405
2351.75 4.91899
2351.98 4.91322
2352.22 5.05147
2352.34 5.27990
2352.45 5.78240
2352.57 6.97321
2352.63 8.15809
2352.69 10.1453
2352.75 13.8455
2352.81 21.1545
2352.84 27.9106
2352.87 38.1166
2352.89 54.4531
2352.92 80.7992
2352.96 136.219
2353.00 179.881
2353.02 174.860
2353.04 154.303
2353.08 105.244
2353.12 68.4733
2353.16 47.8224
2353.20 35.8676
2353.25 28.4818
2353.29 23.6301
2353.33 20.2746
2353.41 16.0837
2353.50 13.5864
2353.58 11.9819
2353.75 10.0937
2353.92 9.03256
2354.08 8.37093
2354.25 7.92127
2354.42 7.59786
2354.75 7.16571
2355.09 6.89295
2355.42 6.70601
2355.76 6.57057
2356.43 6.38671
2357.09 6.26830
2358.43 6.12410
2359.77 6.03878
2361.11 5.98170
2363.79 5.90835
2366.47 5.86118
2369.14 5.82654
2374.50 5.77467
2379.85 5.73260
2385.21 5.69315
2395.92 5.60756
2401.27 5.55500
2406.63 5.49011
2411.98 5.40518
2417.34 5.28592
2420.02 5.20509
2422.69 5.10197
2425.37 4.96534
2428.05 4.77583
2429.39 4.65096
2430.73 4.49745
2432.06 4.30648
2433.40 4.07020
2434.07 3.93627
2434.74 3.80120
2435.41 3.69073
2436.08 3.68427
2436.41 3.78715
2436.75 4.05081
2437.08 4.63710
2437.42 5.91401
2437.75 8.86674
2437.92 11.7379
2438.09 16.5614
2438.26 25.2607
2438.34 32.2579
2438.42 42.1222
2438.51 56.7712
2438.59 78.6175
2438.67 112.797
2438.76 165.127
2438.88 283.585
2439.00 381.674
2439.12 329.692
2439.24 222.806
2439.32 170.901
2439.40 133.995
2439.55 88.3217
2439.71 63.4997
2439.86 48.8516
2440.02 39.4082
2440.17 33.0282
2440.48 25.0756
2440.79 20.4589
2441.10 17.5051
2441.72 14.0173
2442.34 12.0667
2442.95 10.8387
2443.57 10.0014
2444.19 9.39718
2445.43 8.58721
2446.66 8.07275
2447.90 7.71805
2449.13 7.45917
2451.61 7.10698
2454.08 6.87886
2456.55 6.71888
2459.02 6.60040
2463.97 6.43607
2468.91 6.32689
2473.86 6.24852
2478.80 6.18910
2488.69 6.10385
2498.58 6.04436
2518.36 5.96330
2538.14 5.90681
2557.92 5.86184
2597.48 5.78531
2637.04 5.70735
2656.82 5.66028
2676.60 5.60020
2686.49 5.56150
2696.38 5.51314
2706.27 5.44946
2716.16 5.35949
2721.10 5.29803
2726.05 5.21885
2730.99 5.11235
2735.94 4.96065
2738.41 4.85755
2740.88 4.72652
2743.36 4.55461
2745.83 4.32110
2747.07 4.17128
2748.30 3.99308
2749.54 3.78319
2750.77 3.55082
2751.39 3.44227
2752.01 3.36766
2752.63 3.38905
2753.25 3.67082
2753.86 4.71045
2754.17 5.96423
2754.48 8.38887
2754.64 10.4363
2754.79 13.4375
2754.95 18.0431
2755.10 25.3111
2755.25 37.5524
2755.41 59.2383
2755.56 101.068
2755.64 135.631
2755.72 184.525
2755.86 318.138
2756.00 427.772
2756.14 368.335
2756.28 248.424
2756.39 180.404
2756.50 135.315
2756.61 105.169
2756.72 84.4718
2756.93 58.9604
2757.15 44.6595
2757.37 35.7641
2757.58 29.8774
2758.02 22.6940
2758.45 18.5933
2758.88 15.9930
2759.31 14.2186
2759.75 12.9408
2760.61 11.2388
2761.48 10.1670
2762.35 9.43523
2763.21 8.90671
2764.94 8.19579
2766.67 7.74215
2768.41 7.42837
2770.14 7.19883
2773.60 6.88540
2777.06 6.68157
2780.53 6.53820
2783.99 6.43174
2790.92 6.28363
2797.85 6.18489
2804.77 6.11379
2811.70 6.05973
2825.55 5.98184
2839.41 5.92718
2867.11 5.85211
2894.82 5.79924
2922.53 5.75654
2950.24 5.71737
2964.09 5.69503
2971.02 5.67712
2974.48 5.65612
2976.21 5.62731
2977.08 5.59677
2977.51 5.61418
2977.62 5.66854
2977.73 5.84340
2977.78 6.06959
2977.83 6.57228
2977.89 7.88862
2977.92 9.36321
2977.94 12.1776
2977.97 16.9731
2978.00 21.1137
2978.03 18.9414
2978.06 14.6171
2978.08 12.1488
2978.10 10.4770
2978.14 8.62465
2978.19 7.67218
2978.23 7.14643
2978.32 6.59478
2978.40 6.32807
2978.58 6.07492
2978.75 5.95978
2979.45 5.80582
2980.83 5.73903
2983.61 5.70641
2989.16 5.68554
3000.26 5.66375
3011.36 5.64483
3022.46 5.62414
3033.57 5.59802
3039.12 5.58065
3044.67 5.55756
3050.22 5.52329
3052.99 5.49805
3055.77 5.46250
3058.54 5.40761
3059.93 5.36682
3061.32 5.31018
3062.71 5.22658
3063.40 5.16878
3064.09 5.09643
3064.79 5.01109
3065.13 4.97234
3065.48 4.95903
3065.83 5.04238
3066.00 5.19110
3066.18 5.52369
3066.35 6.30687
3066.44 7.07589
3066.52 8.35249
3066.61 10.6564
3066.70 15.0505
3066.74 18.8968
3066.78 24.5256
3066.83 33.0941
3066.87 46.1525
3066.90 60.1099
3066.93 76.9971
3067.00 102.996
3067.07 90.0035
3067.13 62.4037
3067.21 40.9060
3067.28 29.2299
3067.36 22.5399
3067.43 18.4281
3067.51 15.7326
3067.58 13.8687
3067.73 11.5160
3067.88 10.1217
3068.03 9.22792
3068.33 8.16265
3068.64 7.56049
3068.94 7.18102
3069.54 6.73311
3070.14 6.48083
3070.74 6.32015
3071.94 6.12832
3073.14 6.01793
3074.34 5.94627
3076.75 5.85860
3079.15 5.80657
3081.55 5.77180
3086.36 5.72743
3091.17 5.69946
3095.97 5.67953
3105.59 5.65155
3115.20 5.63134
3124.81 5.61494
3144.04 5.58758
3182.49 5.53983
3201.72 5.51417
3211.33 5.49622
3216.14 5.47810
3218.54 5.45388
3219.74 5.42239
3220.34 5.40489
3220.64 5.49664
3220.72 5.61768
3220.79 5.93087
3220.87 6.94435
3220.91 8.38237
3220.94 11.7001
3220.97 16.2913
3221.00 20.2633
3221.03 18.2044
3221.06 14.0729
3221.10 10.4148
3221.13 8.63397
3221.21 7.12120
3221.29 6.52313
3221.36 6.22393
3221.67 5.80799
3222.27 5.63264
3223.49 5.55727
3225.93 5.52151
3230.79 5.50014
3240.53 5.47998
3260.00 5.44723
3269.73 5.42840
3279.47 5.40360
3284.33 5.38549
3289.20 5.35659
3291.63 5.33190
3294.07 5.28828
3295.28 5.24930
3296.50 5.18142
3297.11 5.12495
3297.72 5.04273
3298.02 4.99731
3298.33 5.00194
3298.48 5.11282
3298.63 5.57085
3298.71 6.23920
3298.78 7.87655
3298.82 9.61095
3298.86 12.7926
3298.90 19.1188
3298.92 24.5563
3298.93 32.9214
3298.95 42.2034
3298.97 53.3317
3299.00 71.0071
3299.03 61.8811
3299.07 43.5240
3299.09 32.9902
3299.12 25.8859
3299.14 21.1346
3299.17 17.8726
3299.22 13.8643
3299.26 11.6377
3299.31 10.2229
3299.36 9.28173
3299.46 8.14373
3299.66 7.07002
3299.86 6.57841
3300.26 6.12919
3300.66 5.92411
3301.45 5.73299
3302.25 5.64292
3303.84 5.55591
3305.43 5.51279
3308.61 5.46806
3311.79 5.44328
3318.15 5.41262
3324.51 5.39057
3337.23 5.35197
3349.95 5.30976
3362.67 5.25336
3369.04 5.21385
3375.40 5.15938
3378.58 5.12271
3381.76 5.07583
3384.94 5.01305
3388.12 4.92363
3389.71 4.86257
3391.30 4.78440
3392.89 4.68058
3394.48 4.53615
3395.27 4.44081
3396.07 4.32338
3396.86 4.17685
3397.66 3.99427
3398.45 3.78263
3398.85 3.69026
3399.25 3.66825
3399.65 3.90362
3399.85 4.30009
3400.04 5.16881
3400.24 7.17424
3400.34 9.12615
3400.44 12.3382
3400.54 18.0483
3400.64 28.7501
3400.69 37.8072
3400.74 50.8149
3400.79 70.6118
3400.84 99.4988
3400.92 172.254
3401.00 233.055
3401.08 202.996
3401.16 139.075
3401.24 93.1175
3401.33 66.0296
3401.41 49.7543
3401.49 39.5252
3401.57 32.5687
3401.65 27.7350
3401.81 21.4862
3401.98 17.7278
3402.14 15.2944
3402.47 12.3721
3402.79 10.7108
3403.12 9.66078
3403.45 8.93973
3403.77 8.41967
3404.43 7.72049
3405.08 7.27552
3405.73 6.96872
3406.38 6.74517
3407.69 6.44086
3409.00 6.24406
3410.30 6.10615
3411.61 6.00415
3414.22 5.86274
3416.83 5.76886
3419.44 5.70137
3422.05 5.64996
3427.27 5.57496
3432.50 5.51913
3437.72 5.46497
3440.33 5.42039
3441.64 5.37113
3442.29 5.33809
3442.45 5.35101
3442.62 5.43879
3442.70 5.58742
3442.78 5.98152
3442.82 6.43644
3442.86 7.33763
3442.90 9.33155
3442.92 11.1641
3442.94 14.1603
3442.97 20.7347
3443.00 26.1888
3443.03 23.4098
3443.06 17.5122
3443.09 13.5399
3443.11 11.1153
3443.17 8.67250
3443.23 7.56835
3443.28 6.98723
3443.39 6.40184
3443.50 6.12359
3443.73 5.86574
3443.95 5.74765
3444.84 5.58690
3446.61 5.51070
3450.17 5.46417
3453.72 5.44002
3457.27 5.42195
3464.38 5.39309
3471.48 5.36892
3499.91 5.28858
3528.34 5.21199
3556.76 5.12375
3585.19 5.00540
3599.40 4.92332
3613.61 4.81171
3620.72 4.73762
3627.83 4.64409
3634.93 4.52098
3642.04 4.34982
3645.59 4.23586
3649.15 4.09351
3652.70 3.91106
3656.25 3.67135
3658.03 3.52350
3659.80 3.35518
3661.58 3.17170
3663.36 3.00335
3664.25 2.95589
3665.13 2.97975
3666.02 3.16561
3666.91 3.73644
3667.80 5.32044
3668.24 7.01978
3668.69 10.0693
3669.13 15.9259
3669.35 20.9000
3669.58 28.3445
3669.80 39.9025
3670.02 58.5972
3670.24 90.0395
3670.46 143.716
3670.73 248.985
3671.00 337.085
3671.27 292.602
3671.54 198.762
3671.72 150.751
3671.90 116.956
3672.08 93.1198
3672.26 76.2177
3672.62 54.5497
3672.98 41.8598
3673.34 33.8023
3673.70 28.3509
3674.42 21.6142
3675.15 17.7039
3675.87 15.2016
3676.59 13.4837
3677.31 12.2427
3678.76 10.5800
3680.20 9.52932
3681.64 8.80937
3683.09 8.28793
3685.97 7.58501
3688.86 7.13449
3691.75 6.82135
3694.63 6.59092
3700.41 6.27314
3706.18 6.06264
3711.95 5.91091
3717.73 5.79453
3729.27 5.62104
3740.82 5.48371
3746.60 5.41444
3749.48 5.37517
3752.37 5.32846
3755.26 5.26625
3756.70 5.22365
3758.14 5.16640
3759.59 5.08180
3760.31 5.02090
3761.03 4.93849
3761.75 4.82082
3762.47 4.64966
3762.83 4.55303
3763.01 4.52348
3763.19 4.54995
3763.38 4.75625
3763.47 5.03974
3763.56 5.61788
3763.65 6.86467
3763.69 8.01686
3763.74 9.86225
3763.78 12.9650
3763.83 18.5043
3763.85 23.0208
3763.87 29.0756
3763.89 38.0438
3763.92 50.1288
3763.96 85.2899
3764.00 114.498
3764.02 112.410
3764.04 100.173
3764.09 69.7609
3764.13 47.4415
3764.17 34.6051
3764.22 26.7115
3764.26 21.8166
3764.30 18.4566
3764.35 16.1493
3764.43 13.1498
3764.52 11.3550
3764.61 10.1841
3764.78 8.78325
3764.95 7.98221
3765.13 7.47591
3765.47 6.87446
3765.82 6.53332
3766.17 6.31599
3766.86 6.05503
3767.56 5.90367
3768.25 5.80472
3769.64 5.68172
3771.03 5.60696
3772.42 5.55556
3775.20 5.48702
3777.97 5.44092
3780.75 5.40600
3786.31 5.35294
3797.42 5.27549
3808.53 5.21291
3852.97 4.99070
3875.19 4.86704
3897.41 4.71160
3908.52 4.60800
3914.08 4.54309
3919.63 4.46255
3925.19 4.35356
3927.96 4.27941
3930.74 4.18118
3932.13 4.11762
3933.52 4.03922
3934.91 3.93912
3936.30 3.80600
3937.69 3.62079
3938.38 3.50125
3939.07 3.36506
3939.77 3.24143
3940.12 3.22699
3940.46 3.33048
3940.81 3.79041
3940.98 4.37594
3941.16 5.53099
3941.33 8.00922
3941.42 10.3057
3941.50 13.9605
3941.59 20.2530
3941.68 31.7676
3941.72 41.2803
3941.77 54.6192
3941.81 73.9501
3941.85 101.877
3941.93 174.701
3942.00 233.871
3942.08 201.363
3942.15 136.431
3942.20 102.344
3942.25 79.0276
3942.30 62.5609
3942.36 51.1653
3942.46 36.6021
3942.56 28.2366
3942.66 22.9071
3942.77 19.3262
3942.97 14.9445
3943.18 12.4096
3943.38 10.8033
3943.59 9.70355
3943.79 8.90998
3944.20 7.84905
3944.61 7.18041
3945.03 6.72349
3945.44 6.39332
3946.26 5.94708
3947.08 5.66062
3947.90 5.46045
3948.72 5.31204
3950.36 5.10457
3952.01 4.96403
3955.29 4.77810
3958.58 4.65225
3961.86 4.55421
3968.43 4.39446
3981.57 4.10767
3994.71 3.78144
4001.28 3.58368
4007.85 3.35218
4014.42 3.07991
4020.99 2.77025
4024.28 2.61458
4027.56 2.48470
4030.85 2.43943
4034.13 2.63665
4035.77 2.94838
4037.42 3.55435
4039.06 4.71188
4040.70 6.97075
4041.52 8.87057
4042.34 11.6537
4043.16 15.8497
4043.99 22.3998
4044.81 33.0894
4045.63 51.3999
4046.45 84.5095
4047.27 146.107
4048.14 255.978
4049.00 350.287
4049.87 306.555
4050.73 209.341
4051.50 146.282
4052.28 106.456
4053.05 81.1484
4053.82 64.4135
4054.59 52.7953
4055.37 44.3728
4055.75 40.9883
4056.14 38.1149
4056.33 36.9924
4056.43 36.6200
4056.53 36.5344
4056.62 37.0814
4056.67 37.8473
4056.72 39.2616
4056.77 41.9342
4056.82 46.9266
4056.86 56.8942
4056.91 77.8290
4056.96 111.269
4057.00 140.337
4057.04 126.427
4057.09 96.3745
4057.13 75.7884
4057.17 63.2114
4057.21 55.1482
4057.25 49.9758
4057.34 43.7048
4057.42 40.1572
4057.50 37.8719
4057.59 36.2531
4057.75 34.0473
4057.92 32.5124
4058.08 31.3234
4058.41 29.4844
4059.08 26.7915
4059.74 24.7435
4061.06 21.6538
4062.39 19.3888
4065.04 16.2665
4067.69 14.2246
4072.99 11.7390
4078.29 10.2970
4083.60 9.36053
4088.90 8.70473
4099.50 7.84380
4110.10 7.29430
4120.71 6.89146
4126.01 6.71026
4128.66 6.61596
4131.31 6.51164
4133.96 6.38351
4135.29 6.30099
4136.61 6.19427
4137.94 6.04177
4138.60 5.93403
4139.26 5.78938
4139.92 5.58275
4140.26 5.44406
4140.59 5.27472
4140.92 5.08356
4141.08 5.00424
4141.25 4.99222
4141.42 5.21070
4141.50 5.55867
4141.58 6.28522
4141.66 7.88934
4141.75 11.7186
4141.79 15.6608
4141.83 22.3332
4141.85 27.6012
4141.87 34.4227
4141.89 44.2246
4141.91 57.2832
4141.93 76.4330
4141.96 99.4500
4142.00 136.645
4142.02 135.792
4142.04 122.310
4142.09 85.9641
4142.13 59.2698
4142.18 43.2416
4142.23 33.5860
4142.27 27.5460
4142.32 23.3754
4142.36 20.4362
4142.45 16.6807
4142.55 14.3884
4142.64 12.8980
4142.82 11.0781
4143.00 10.0324
4143.19 9.36121
4143.55 8.55738
4143.92 8.09594
4144.28 7.79726
4145.02 7.43291
4145.75 7.21729
4146.48 7.07308
4147.94 6.88846
4149.41 6.77106
4150.87 6.68671
4153.80 6.56725
4156.73 6.48074
4159.65 6.41111
4165.51 6.29775
4177.22 6.10454
4180.15 6.04882
4183.07 5.97415
4184.54 5.91815
4186.00 5.82888
4186.73 5.75635
4187.46 5.64498
4187.83 5.56989
4188.20 5.51012
4188.38 5.55111
4188.56 5.86343
4188.65 6.39578
4188.75 7.79396
4188.79 9.37604
4188.84 12.3375
4188.88 18.6939
4188.91 24.4481
4188.93 32.9777
4188.96 54.1166
4189.00 72.0296
4189.04 63.7731
4189.07 45.0862
4189.10 33.5587
4189.13 26.0172
4189.17 21.1535
4189.20 17.9912
4189.26 14.0594
4189.32 11.9206
4189.44 9.71535
4189.56 8.65245
4189.81 7.64467
4190.05 7.18100
4190.55 6.74965
4191.04 6.54812
4192.02 6.35396
4193.00 6.25763
4194.96 6.15632
4196.92 6.09888
4200.85 6.02675
4204.77 5.97628
4212.62 5.89876
4220.47 5.83505
4251.88 5.63108
4314.68 5.28360
4346.08 5.08018
4361.78 4.95079
4377.48 4.78350
4393.18 4.54294
4401.03 4.37096
4408.88 4.13572
4412.81 3.98082
4416.73 3.78875
4420.66 3.54439
4424.58 3.22584
4426.55 3.03058
4428.51 2.80934
4430.47 2.56943
4432.43 2.35018
4433.41 2.28778
4434.40 2.31539
4435.38 2.54421
4436.36 3.24167
4436.85 3.95696
4437.34 5.13719
4437.83 7.12707
4438.32 10.6018
4438.81 17.0487
4439.06 22.3202
4439.30 29.9420
4439.55 41.3200
4439.79 58.6469
4440.04 85.7512
4440.28 128.299
4440.64 226.519
4441.00 312.291
4441.36 275.133
4441.72 189.060
4441.94 147.926
4442.16 117.761
4442.60 79.6021
4443.04 58.2540
4443.47 45.3216
4443.91 36.9136
4444.35 31.1257
4445.23 23.8371
4446.11 19.5376
4446.99 16.7512
4448.74 13.4122
4450.50 11.5129
4452.25 10.3003
4454.01 9.46345
4455.77 8.85300
4459.28 8.02212
4462.79 7.48239
4466.30 7.10096
4469.81 6.81419
4476.83 6.39821
4480.35 6.23267
4483.86 6.07710
4487.37 5.91391
4489.13 5.81953
4490.88 5.70518
4492.64 5.55004
4493.51 5.44311
4494.39 5.30009
4495.27 5.09375
4495.71 4.95102
4496.15 4.76818
4496.59 4.53637
4496.81 4.40904
4497.03 4.30499
4497.25 4.32986
4497.36 4.50036
4497.47 4.95060
4497.58 6.09528
4497.63 7.24441
4497.68 9.13828
4497.74 12.5340
4497.79 18.9262
4497.82 24.3347
4497.85 31.8850
4497.88 42.8834
4497.90 58.9992
4497.93 79.2828
4497.95 103.437
4498.00 142.515
4498.02 141.723
4498.05 127.688
4498.10 89.4645
4498.13 68.7416
4498.17 54.2123
4498.20 43.8135
4498.23 36.6632
4498.30 27.4243
4498.37 22.0909
4498.44 18.6405
4498.51 16.3000
4498.65 13.4030
4498.78 11.6923
4498.92 10.5933
4499.20 9.27131
4499.47 8.51165
4499.74 8.02502
4500.29 7.43726
4500.84 7.09556
4501.39 6.87216
4502.49 6.59469
4503.59 6.42613
4504.69 6.31067
4506.88 6.15760
4509.08 6.05597
4511.28 5.98029
4515.67 5.86886
4520.06 5.78560
4524.46 5.71777
4533.24 5.60834
4550.81 5.44243
4568.39 5.30977
4603.53 5.08069
4638.67 4.85324
4673.82 4.58391
4691.39 4.41404
4708.96 4.20096
4717.75 4.06977
4726.53 3.91507
4735.32 3.72939
4744.11 3.50503
4748.50 3.37831
4752.89 3.24737
4757.29 3.12938
4761.68 3.07839
4766.07 3.27869
4768.27 3.65324
4770.46 4.50064
4772.66 6.47880
4773.76 8.40445
4774.86 11.6195
4775.96 17.3077
4777.05 28.1311
4777.60 37.2499
4778.15 50.7054
4778.70 70.9268
4779.25 101.309
4780.13 175.489
4781.00 238.420
4781.88 207.753
4782.75 141.640
4783.31 109.452
4783.86 86.2150
4784.97 57.5135
4786.08 41.8268
4787.19 32.4758
4788.31 26.4664
4789.42 22.3653
4791.64 17.2470
4793.86 14.2538
4796.08 12.3241
4800.53 10.0192
4804.97 8.70582
4809.41 7.85985
4813.86 7.26643
4818.30 6.82233
4827.19 6.18102
4836.08 5.69217
4840.52 5.45243
4842.74 5.31898
4844.97 5.16329
4847.19 4.96251
4848.30 4.83028
4849.41 4.66027
4850.52 4.42799
4851.08 4.27669
4851.63 4.09737
4852.19 3.90552
4852.47 3.83604
4852.74 3.85217
4853.02 4.14605
4853.16 4.57376
4853.30 5.44702
4853.44 7.33440
4853.51 9.07649
4853.58 11.7900
4853.65 16.3288
4853.72 24.0786
4853.78 38.1746
4853.82 49.5221
4853.85 64.9704
4853.93 113.211
4854.00 155.581
4854.07 137.970
4854.15 95.9371
4854.19 75.7884
4854.24 61.1526
4854.32 42.3701
4854.41 31.8191
4854.50 25.4654
4854.59 21.2687
4854.68 18.4030
4854.86 14.7566
4855.03 12.5871
4855.21 11.1857
4855.56 9.49879
4855.92 8.53159
4856.27 7.91280
4856.63 7.48237
4856.98 7.16747
4857.69 6.73512
4858.40 6.45121
4859.11 6.24881
4859.82 6.09582
4861.24 5.87624
4862.65 5.72208
4865.49 5.50932
4868.33 5.35897
4871.16 5.23955
4876.83 5.04692
4888.18 4.73608
4899.52 4.45230
4910.86 4.15970
4922.20 3.83285
4927.88 3.64661
4933.55 3.43470
4936.38 3.31261
4939.22 3.17052
4940.64 3.08773
4942.06 3.00109
4942.76 2.97504
4943.47 3.04252
4943.83 3.23246
4944.01 3.45506
4944.18 3.88599
4944.36 4.80493
4944.45 5.67714
4944.54 7.10945
4944.63 9.70687
4944.71 14.8082
4944.76 19.4591
4944.80 26.5883
4944.85 38.1229
4944.89 57.0959
4944.95 93.4717
4945.00 121.226
4945.06 101.600
4945.11 67.2428
4945.14 51.8192
4945.18 40.4740
4945.25 26.6434
4945.31 19.2085
4945.38 14.8502
4945.45 12.0955
4945.52 10.2456
4945.65 7.98689
4945.79 6.70345
4945.93 5.89748
4946.20 4.96865
4946.47 4.45875
4946.74 4.14247
4947.28 3.77448
4947.83 3.56527
4948.37 3.42831
4949.46 3.25255
4951.63 3.04963
4953.80 2.91716
4958.15 2.74511
4962.49 2.71547
4966.84 3.03441
4969.01 3.51841
4971.19 4.51078
4973.36 6.64513
4974.45 8.63405
4975.53 11.8888
4976.62 17.6498
4977.71 29.0372
4978.25 39.2878
4978.79 55.6209
4979.34 83.0456
4979.88 129.993
4980.44 202.186
4981.00 244.022
4981.56 187.119
4982.12 111.259
4982.68 64.8428
4983.23 39.5299
4983.79 25.3101
4984.34 16.9698
4984.89 11.9076
4985.45 8.87181
4986.00 7.21653
4986.56 6.64707
4987.11 7.08313
4987.67 8.60976
4988.22 11.4895
4988.77 16.2147
4989.33 23.6341
4989.88 35.0769
4990.44 52.6742
4990.99 79.4439
4992.00 159.568
4993.00 243.538
4993.50 250.920
4994.01 232.251
4995.01 169.849
4995.85 127.230
4996.69 97.9997
4997.53 78.1833
4998.37 64.3974
5000.05 47.1020
5001.72 37.0529
5003.40 30.6307
5005.08 26.2356
5008.44 20.6799
5011.79 17.3559
5015.15 15.1637
5021.86 12.4701
5028.58 10.8856
5035.29 9.84302
5048.72 8.54789
5062.14 7.76225
5075.57 7.22060
5102.42 6.47667
5129.28 5.91107
5142.70 5.63486
5156.13 5.33008
5169.56 4.95470
5176.27 4.71724
5182.98 4.42556
5186.34 4.25306
5189.70 4.06108
5193.05 3.85535
5196.41 3.66588
5198.09 3.60766
5199.77 3.61899
5201.45 3.78632
5203.12 4.31878
5204.80 5.79111
5205.64 7.35084
5206.48 10.1036
5207.32 15.2577
5207.74 19.5310
5208.16 25.7573
5208.58 35.1466
5209.00 49.6866
5209.42 72.9401
5209.84 110.172
5210.42 192.140
5211.00 262.879
5211.58 230.794
5212.16 158.503
5212.77 105.854
5213.37 74.9755
5213.97 56.4597
5214.57 44.7153
5215.17 36.8309
5215.77 31.2989
5216.97 24.1965
5218.18 19.9351
5219.38 17.1511
5221.78 13.7922
5224.19 11.8732
5226.59 10.6453
5229.00 9.79610
5231.40 9.17496
5236.21 8.32536
5241.02 7.76822
5245.83 7.37005
5250.64 7.06736
5260.26 6.62564
5269.88 6.30342
5289.12 5.81162
5308.36 5.36879
5317.98 5.12349
5327.59 4.83208
5337.21 4.45215
5342.02 4.20561
5346.83 3.90195
5349.24 3.72410
5351.64 3.52994
5354.05 3.33051
5356.45 3.16883
5358.86 3.20717
5360.06 3.46854
5361.26 4.16919
5362.46 5.95697
5363.07 7.77169
5363.67 10.8782
5364.27 16.4971
5364.87 27.4522
5365.17 36.8703
5365.47 50.9233
5365.77 72.4598
5366.07 105.275
5366.54 184.227
5367.00 252.596
5367.47 221.956
5367.93 152.422
5368.29 112.384
5368.64 85.3022
5369.00 67.0747
5369.36 54.4895
5370.07 38.9129
5370.79 30.0511
5371.50 24.4971
5372.21 20.7654
5373.64 16.1550
5375.07 13.4543
5376.50 11.6891
5379.35 9.47784
5382.21 8.02837
5383.63 7.39901
5385.06 6.75605
5386.49 6.02287
5387.20 5.58875
5387.92 5.09004
5388.63 4.53780
5388.99 4.28736
5389.34 4.16365
5389.70 4.48138
5389.88 5.09380
5390.06 6.42240
5390.24 9.33032
5390.33 11.9441
5390.41 15.9808
5390.50 22.3954
5390.59 32.9289
5390.68 50.7717
5390.77 81.3030
5390.89 147.390
5391.00 209.732
5391.12 191.503
5391.23 136.492
5391.35 93.0287
5391.48 67.3304
5391.60 51.8675
5391.73 42.0733
5391.85 35.4009
5391.97 30.7095
5392.22 24.5845
5392.47 20.8504
5392.71 18.3697
5393.21 15.3148
5393.70 13.5193
5394.20 12.3455
5395.18 10.8972
5396.17 10.0296
5397.16 9.44501
5399.14 8.68940
5401.12 8.20722
5403.09 7.86246
5407.05 7.38446
5411.00 7.05421
5414.95 6.80291
5422.86 6.42785
5438.68 5.90409
5454.49 5.47633
5470.31 5.02236
5478.22 4.74719
5486.13 4.40671
5490.08 4.19925
5494.03 3.95776
5497.99 3.67537
5501.94 3.35402
5503.92 3.19001
5505.90 3.04682
5507.87 2.97593
5509.85 3.11431
5511.83 3.86876
5512.82 4.83272
5513.80 6.69667
5514.79 10.4756
5515.29 13.7712
5515.78 18.7746
5516.28 26.6242
5516.77 39.4012
5517.26 60.9369
5517.76 97.6933
5518.38 174.029
5519.00 242.402
5519.62 216.134
5520.24 150.481
5520.97 96.8223
5521.70 67.1268
5522.43 50.1069
5523.16 39.6321
5523.89 32.7261
5524.62 27.9328
5526.08 21.8286
5527.54 18.1855
5529.00 15.8061
5531.92 12.9271
5534.84 11.2700
5537.75 10.2017
5540.67 9.45695
5543.59 8.90829
5549.43 8.15041
5555.27 7.64447
5561.10 7.26465
5564.02 7.07924
5565.48 6.94641
5566.21 6.83343
5566.57 6.81788
5566.76 7.18144
5566.85 8.31927
5566.89 10.1887
5566.94 15.1101
5566.97 21.7652
5567.00 27.8707
5567.03 25.5264
5567.06 19.7854
5567.11 14.3901
5567.15 11.7104
5567.24 9.49217
5567.41 8.16053
5567.76 7.51759
5568.46 7.21237
5569.86 7.03608
5572.65 6.88090
5578.24 6.68209
5589.41 6.39535
5611.77 5.99511
5634.12 5.69366
5656.47 5.42813
5678.83 5.16408
5701.18 4.86810
5712.36 4.69131
5723.53 4.47452
5729.12 4.33740
5734.71 4.15805
5737.50 4.03406
5738.90 3.95435
5740.30 3.85379
5741.69 3.71740
5743.09 3.51408
5743.79 3.37340
5744.49 3.23347
5744.84 3.24701
5745.19 3.63227
5745.36 4.37451
5745.45 5.14326
5745.54 6.49037
5745.62 9.04768
5745.71 14.2450
5745.76 18.9962
5745.80 26.2810
5745.84 38.3586
5745.89 57.6858
5745.94 98.8711
5746.00 132.945
5746.06 116.129
5746.11 79.3600
5746.16 57.4474
5746.21 43.1477
5746.26 33.6304
5746.30 27.3616
5746.40 19.7140
5746.49 15.5095
5746.59 12.8954
5746.68 11.1808
5746.87 9.08201
5747.06 7.87563
5747.25 7.11162
5747.63 6.20608
5748.01 5.69186
5748.39 5.36306
5749.14 4.96388
5749.90 4.72710
5750.66 4.56653
5752.17 4.35317
5753.68 4.20699
5755.20 4.09185
5758.22 3.90198
5764.28 3.56263
5770.33 3.19900
5773.36 2.99758
5776.39 2.78647
5779.41 2.58444
5782.44 2.45597
5785.47 2.62624
5786.98 3.04278
5788.50 4.02685
5789.25 4.93478
5790.01 6.34106
5790.77 8.56985
5791.52 12.2149
5792.28 18.4629
5793.04 29.7808
5793.79 51.6223
5794.17 69.7600
5794.55 95.4273
5795.28 169.921
5796.00 236.494
5796.73 210.534
5797.45 146.207
5797.99 109.649
5798.53 84.3904
5799.06 67.0836
5799.60 54.9632
5800.68 39.7346
5801.75 30.9361
5802.83 25.3691
5803.91 21.6035
5806.06 16.9277
5808.21 14.1905
5810.36 12.4189
5812.51 11.1865
5814.66 10.2839
5818.97 9.05284
5823.27 8.25273
5827.57 7.68898
5831.87 7.26786
5840.48 6.67295
5849.09 6.26265
5866.30 5.70284
5883.51 5.30207
5900.72 4.96703
5935.15 4.34279
5969.57 3.63550
5986.78 3.19841
6003.99 2.66856
6021.21 2.01816
6029.81 1.65664
6038.42 1.32418
6047.02 1.21601
6051.33 1.44647
6053.48 1.72615
6055.63 2.19374
6057.78 2.95531
6059.93 4.18861
6062.08 6.21022
6064.24 9.60452
6066.39 15.5326
6068.54 26.4245
6069.61 35.2270
6070.69 47.6745
6071.77 65.4683
6072.84 90.7437
6074.92 165.645
6077.00 234.758
6079.08 211.628
6081.16 148.208
6082.49 115.906
6083.82 92.2009
6086.49 62.4640
6089.15 45.8991
6091.81 35.8557
6094.48 29.2978
6097.14 24.7537
6102.46 18.9623
6107.79 15.4759
6113.11 13.1688
6123.77 10.3587
6134.42 8.95514
6139.74 8.77856
6145.07 9.20872
6150.39 10.8841
6155.72 15.6651
6158.38 20.8077
6161.05 29.9714
6163.71 47.0505
6166.37 79.6437
6169.19 139.751
6172.00 194.617
6174.82 175.097
6177.63 123.298
6179.26 98.6061
6179.67 93.1897
6180.08 88.0095
6180.28 85.5915
6180.49 83.6987
6180.59 83.4704
6180.69 84.8845
6180.74 87.1310
6180.79 91.7207
6180.84 101.085
6180.89 119.727
6180.95 156.629
6181.00 192.609
6181.05 184.644
6181.11 154.162
6181.15 134.987
6181.19 121.605
6181.23 112.132
6181.28 105.559
6181.36 96.9134
6181.45 91.6390
6181.53 87.9763
6181.62 85.2582
6181.78 81.3611
6181.95 78.5034
6182.12 76.2148
6182.46 72.5116
6183.14 66.7516
6183.82 62.1043
6185.17 54.6409
6186.53 48.7985
6189.24 40.2278
6191.95 34.3091
6197.36 26.8140
6202.78 22.3623
6208.20 19.4560
6213.62 17.4242
6224.46 14.7844
6235.30 13.1465
6246.14 12.0279
6267.81 10.5859
6289.49 9.68131
6311.16 9.04832
6354.52 8.19027
6397.87 7.59550
6441.22 7.10748
6484.57 6.61996
6506.25 6.32043
6511.67 6.22728
6517.09 6.11512
6519.80 6.04363
6522.51 5.94577
6523.86 5.87303
6525.22 5.75808
6525.89 5.66382
6526.57 5.51202
6526.91 5.39583
6527.25 5.24811
6527.42 5.19107
6527.59 5.28161
6527.67 5.56236
6527.76 6.41322
6527.80 7.43881
6527.84 9.38952
6527.88 13.4331
6527.93 22.5035
6527.96 37.3673
6528.00 51.2958
6528.04 47.1992
6528.07 34.8162
6528.10 27.3261
6528.13 22.2912
6528.19 16.3141
6528.25 13.2225
6528.30 11.4549
6528.41 9.54269
6528.53 8.57215
6528.75 7.62362
6528.98 7.16802
6529.43 6.72940
6529.88 6.51668
6530.79 6.30264
6531.69 6.18937
6533.50 6.05817
6535.31 5.97198
6538.93 5.83897
6542.55 5.71888
6549.79 5.46336
6557.03 5.14494
6560.65 4.94549
6564.27 4.70642
6567.88 4.41417
6571.50 4.05362
6573.31 3.84599
6575.12 3.62708
6576.93 3.42045
6578.74 3.30204
6580.55 3.52534
6581.46 4.00411
6582.36 5.09114
6583.27 7.55361
6583.72 9.85374
6584.17 13.5030
6584.62 19.5283
6585.08 29.8633
6585.53 48.4174
6585.98 82.4428
6586.49 148.578
6587.00 209.569
6587.51 189.330
6588.02 133.549
6588.47 96.4032
6588.92 72.3339
6589.37 56.7431
6589.82 46.2960
6590.72 33.6566
6591.62 26.6046
6592.52 22.2249
6593.42 19.2952
6595.22 15.6773
6597.02 13.5620
6598.81 12.1891
6600.61 11.2295
6602.41 10.5227
6606.01 9.54975
6609.60 8.90860
6613.20 8.44992
6616.80 8.10143
6623.99 7.59446
6631.19 7.22652
6645.58 6.66634
6659.96 6.15515
6667.16 5.86473
6674.35 5.51052
6681.55 5.03192
6685.14 4.71041
6688.74 4.30054
6690.54 4.05153
6692.34 3.76879
6694.14 3.45660
6695.93 3.14898
6697.73 2.99468
6698.63 3.13551
6699.53 3.69014
6700.43 5.27129
6700.88 6.91692
6701.33 9.71424
6701.78 14.6665
6702.23 23.8400
6702.45 31.3128
6702.68 41.9380
6702.90 57.1804
6703.13 78.8360
6703.56 143.959
6704.00 205.510
6704.44 187.475
6704.87 133.228
6705.38 87.8217
6705.89 62.1984
6706.40 47.2519
6706.91 37.9494
6707.42 31.7526
6707.92 27.4183
6708.94 21.8410
6709.96 18.4747
6710.97 16.2527
6713.01 13.5333
6715.04 11.9476
6717.08 10.9136
6719.11 10.1864
6721.14 9.64615
6725.21 8.89205
6729.28 8.38451
6737.41 7.72405
6745.55 7.28766
6753.69 6.95343
6769.96 6.40190
6786.23 5.84497
6794.36 5.50979
6802.50 5.09032
6810.63 4.51522
6814.70 4.12697
6818.77 3.63028
6822.84 2.97693
6824.87 2.58044
6826.90 2.15874
6828.94 1.83229
6829.95 1.84470
6830.97 2.21750
6831.48 2.68914
6831.99 3.51798
6832.50 4.96143
6833.00 7.49342
6833.51 12.0911
6834.02 20.8108
6834.28 28.0134
6834.53 38.3720
6834.78 53.4116
6835.04 75.1608
6835.52 139.677
6836.00 201.464
6836.48 184.868
6836.96 131.772
6837.32 100.345
6837.68 78.2887
6838.04 62.9947
6838.40 52.2002
6839.12 38.4192
6839.83 30.3299
6840.55 25.1308
6841.27 21.5662
6842.70 17.0410
6844.14 14.3044
6845.57 12.4679
6848.44 10.1179
6851.31 8.66898
6852.74 8.20161
6854.18 8.00504
6855.61 8.41202
6856.33 9.13099
6857.05 10.5937
6857.77 13.5535
6858.48 19.7936
6858.84 25.4109
6859.20 34.0581
6859.56 47.7124
6859.92 69.1851
6860.46 121.468
6861.00 170.063
6861.54 154.365
6862.08 110.218
6862.44 87.3720
6862.79 70.6838
6863.49 49.8149
6864.19 38.2017
6864.89 31.1758
6865.60 26.5801
6866.30 23.3976
6867.70 19.3337
6869.11 16.8805
6870.51 15.2519
6873.32 13.2301
6876.13 12.0200
6878.94 11.2092
6884.56 10.1770
6890.18 9.53505
6895.80 9.08885
6907.04 8.49461
6918.27 8.10403
6929.51 7.81853
6951.99 7.40883
6974.46 7.10462
6996.94 6.84050
7008.17 6.70628
7019.41 6.55112
7025.03 6.45034
7027.84 6.38604
7030.65 6.30363
7033.46 6.18612
7034.86 6.10210
7036.27 5.98622
7037.67 5.81079
7038.37 5.68242
7039.08 5.50595
7039.78 5.24830
7040.48 4.85244
7040.83 4.59290
7041.18 4.40585
7041.36 4.56186
7041.53 5.53845
7041.62 7.01546
7041.71 10.4298
7041.75 13.7344
7041.80 19.1691
7041.84 28.3800
7041.89 43.7218
7041.91 59.0214
7041.94 78.3000
7042.00 110.757
7042.03 111.586
7042.06 102.033
7042.11 73.5298
7042.15 59.4375
7042.19 48.6173
7042.26 34.9645
7042.33 27.1840
7042.40 22.3964
7042.47 19.2406
7042.54 17.0411
7042.68 14.2277
7042.83 12.5363
7042.97 11.4224
7043.25 10.0624
7043.54 9.27003
7043.82 8.75790
7044.39 8.13574
7044.96 7.77209
7045.53 7.53407
7046.66 7.23916
7047.80 7.06175
7048.94 6.94147
7051.21 6.78459
7053.48 6.68228
7055.76 6.60664
7060.31 6.49423
7069.40 6.32992
7078.50 6.18835
7087.59 6.04419
7096.69 5.87754
7101.24 5.77300
7105.79 5.63167
7108.06 5.52838
7110.33 5.36883
7111.47 5.24193
7112.61 5.04667
7113.18 4.90952
7113.75 4.77358
7114.03 4.78749
7114.31 5.15105
7114.46 5.82346
7114.60 7.65281
7114.67 9.70720
7114.74 13.6298
7114.81 21.7620
7114.85 29.1001
7114.88 39.9841
7114.94 67.9430
7115.00 92.5335
7115.06 82.5328
7115.12 58.2487
7115.19 38.7672
7115.26 27.9282
7115.33 21.7203
7115.39 17.9000
7115.53 13.6466
7115.67 11.4346
7115.81 10.1194
7115.95 9.26208
7116.22 8.22871
7116.50 7.63698
7116.77 7.25701
7117.33 6.80048
7117.88 6.53492
7118.43 6.36039
7119.53 6.14149
7120.64 6.00508
7121.74 5.90821
7123.95 5.77079
7128.36 5.58262
7132.77 5.42965
7141.60 5.12994
7150.42 4.78477
7154.84 4.58372
7159.25 4.36162
7163.66 4.12591
7168.08 3.91275
7172.49 3.86514
7174.70 4.04998
7176.90 4.61104
7179.11 6.07283
7180.21 7.53369
7181.32 9.96140
7182.42 14.1472
7183.52 21.6961
7184.63 36.0501
7185.73 64.1878
7186.87 115.789
7188.00 164.388
7189.14 149.874
7190.27 106.804
7191.10 81.8901
7191.94 64.4084
7192.77 52.2673
7193.60 43.6698
7195.27 32.7239
7196.94 26.3082
7198.60 22.2046
7200.27 19.4040
7203.60 15.8856
7206.93 13.7997
7210.27 12.4351
7216.93 10.7719
7223.60 9.79991
7230.26 9.16148
7236.93 8.70731
7243.59 8.36482
7256.92 7.87266
7270.25 7.51827
7283.59 7.20843
7286.92 7.11811
7290.25 6.99846
7291.92 6.90921
7293.58 6.76497
7294.42 6.64321
7295.25 6.43899
7295.67 6.27369
7296.08 6.03774
7296.29 5.90506
7296.50 5.88137
7296.60 6.08866
7296.71 6.90214
7296.76 7.95460
7296.81 10.1288
7296.86 14.9620
7296.89 19.4563
7296.92 26.3851
7296.96 44.9368
7297.00 62.4804
7297.04 57.9642
7297.09 43.1907
7297.12 34.4563
7297.15 28.4222
7297.21 21.0768
7297.27 17.0967
7297.33 14.7201
7297.45 12.1066
7297.57 10.7691
7297.81 9.43882
7298.05 8.79449
7298.53 8.17339
7299.01 7.87269
7299.98 7.57582
7300.94 7.42501
7302.87 7.26314
7304.80 7.16928
7308.65 7.04709
7312.51 6.95490
7316.36 6.86895
7320.22 6.77130
7322.14 6.70590
7324.07 6.60706
7325.03 6.52639
7326.00 6.39152
7326.48 6.27999
7326.96 6.10970
7327.20 5.99792
7327.44 5.91583
7327.57 5.98130
7327.69 6.40345
7327.75 7.04698
7327.81 8.55420
7327.87 12.5019
7327.90 16.7699
7327.93 24.5550
7327.96 40.5311
7328.00 55.5474
7328.04 51.0862
7328.07 37.7551
7328.11 27.6946
7328.15 21.5831
7328.23 15.4194
7328.30 12.6029
7328.38 11.0754
7328.53 9.52311
7328.68 8.76298
7328.99 8.03341
7329.29 7.68551
7329.90 7.35059
7330.51 7.18675
7331.72 7.02094
7332.94 6.93280
7335.37 6.83144
7337.80 6.76676
7342.67 6.67363
7347.53 6.59843
7366.99 6.33345
7376.71 6.19357
7386.44 6.02793
7391.31 5.92206
7393.74 5.85660
7396.17 5.77555
7398.60 5.66523
7401.03 5.48782
7402.25 5.33897
7403.47 5.08933
7404.07 4.88590
7404.68 4.58836
7404.99 4.41290
7405.29 4.35330
7405.44 4.58809
7405.59 5.61546
7405.67 7.03412
7405.75 10.1617
7405.78 13.0951
7405.82 17.8055
7405.86 25.5826
7405.90 38.3887
7405.92 50.9665
7405.95 67.0950
7406.00 94.4649
7406.03 94.7528
7406.05 85.9927
7406.10 61.9109
7406.14 49.5930
7406.17 40.4137
7406.23 28.9888
7406.30 22.5559
7406.36 18.6296
7406.50 14.2482
7406.63 11.9854
7406.76 10.6222
7406.89 9.73506
7407.15 8.65413
7407.41 8.02516
7407.67 7.61764
7408.19 7.12330
7408.71 6.83310
7409.23 6.64181
7410.27 6.40137
7411.32 6.25242
7412.36 6.14790
7414.44 6.00295
7416.53 5.89896
7418.61 5.81401
7422.78 5.66851
7431.13 5.39432
7439.47 5.07774
7447.81 4.65613
7451.98 4.37738
7456.15 4.03008
7460.32 3.59992
7462.40 3.36566
7464.49 3.16625
7466.57 3.16308
7467.61 3.39424
7468.66 4.02970
7469.70 5.60455
7470.22 7.13114
7470.74 9.60976
7471.26 13.7746
7471.78 21.0318
7472.31 34.2460
7472.83 58.8145
7473.41 107.138
7474.00 153.139
7474.59 140.221
7475.17 100.161
7475.60 77.3291
7476.02 61.1023
7476.44 49.7210
7476.86 41.6136
7477.70 31.1892
7478.54 25.0183
7479.38 21.0428
7480.22 18.3167
7481.90 14.8686
7483.59 12.8046
7485.27 11.4408
7488.63 9.74567
7492.00 8.71594
7495.36 7.99978
7502.09 6.98265
7508.82 6.14402
7512.19 5.70822
7515.55 5.22414
7518.92 4.67667
7520.60 4.39903
7522.28 4.18489
7523.96 4.24641
7524.80 4.58381
7525.65 5.43803
7526.49 7.46289
7526.91 9.38456
7527.33 12.4476
7527.75 17.5070
7528.17 26.1423
7528.59 41.5353
7529.01 69.3072
7529.51 125.813
7530.00 179.399
7530.50 164.183
7530.99 117.404
7531.46 83.7508
7531.94 62.5446
7532.41 49.1283
7532.88 40.2688
7533.82 29.7261
7534.77 23.8964
7535.71 20.2920
7536.66 17.8780
7538.54 14.8888
7540.43 13.1282
7542.32 11.9746
7544.21 11.1609
7546.09 10.5557
7549.87 9.71062
7553.64 9.14333
7557.42 8.73035
7561.20 8.41185
7568.75 7.94015
7576.30 7.59182
7591.40 7.05656
7606.50 6.57096
7614.05 6.29821
7621.60 5.96918
7629.15 5.53259
7632.93 5.24658
7636.70 4.89461
7640.48 4.47121
7642.37 4.25452
7644.25 4.09890
7646.14 4.20317
7647.09 4.53969
7648.03 5.34623
7648.97 7.19990
7649.45 8.92157
7649.92 11.6288
7650.39 16.0052
7650.86 23.3171
7651.33 35.9320
7651.80 57.8871
7652.40 105.359
7653.00 151.166
7653.60 139.328
7654.20 100.345
7654.89 67.5270
7655.58 48.7751
7656.27 37.7484
7656.96 30.8382
7657.65 26.2146
7658.35 22.9659
7659.73 18.7701
7661.11 16.2223
7662.49 14.5338
7665.26 12.4588
7668.02 11.2425
7670.79 10.4470
7673.55 9.88606
7676.32 9.46855
7681.85 8.88559
7687.38 8.49400
7698.44 7.98918
7709.50 7.66404
7720.57 7.42492
7742.69 7.06245
7764.81 6.74447
7775.87 6.57073
7786.93 6.36259
7797.99 6.08030
7803.53 5.88506
7809.06 5.62330
7811.82 5.45338
7814.59 5.24497
7817.35 4.98319
7820.12 4.64770
7821.50 4.44557
7822.88 4.22022
7825.65 3.77293
7827.03 3.75221
7827.72 3.96938
7828.41 4.58351
7829.10 6.11669
7829.45 7.60248
7829.80 9.99597
7830.14 13.9859
7830.49 20.8370
7830.83 33.1136
7831.18 55.3322
7831.59 101.491
7832.00 146.319
7832.41 135.348
7832.82 97.7808
7833.08 78.5221
7833.34 64.0972
7833.85 45.6323
7834.36 35.1013
7834.88 28.6132
7835.39 24.3229
7835.90 21.3345
7836.93 17.5026
7837.96 15.1892
7838.98 13.6626
7841.04 11.7900
7843.09 10.6961
7845.14 9.98239
7847.19 9.48082
7849.25 9.10917
7853.35 8.59369
7857.46 8.25159
7861.56 8.00603
7865.67 7.81979
7873.88 7.55195
7882.09 7.36415
7898.51 7.10579
7914.94 6.92300
7931.36 6.77521
7964.20 6.51848
7997.05 6.25077
8013.47 6.08770
8029.89 5.88057
8038.10 5.74886
8046.31 5.58713
8054.53 5.38014
8062.74 5.10122
8066.84 4.92065
8070.95 4.70069
8075.05 4.42813
8079.16 4.08828
8083.26 3.68166
8085.32 3.48102
8087.37 3.35569
8089.42 3.52248
8090.45 3.91358
8091.48 4.79898
8092.50 6.75551
8093.02 8.52355
8093.53 11.2451
8094.04 15.5367
8094.55 22.4938
8095.07 34.0608
8095.58 53.4118
8096.29 98.3879
8097.00 142.396
8097.71 132.036
8098.42 95.4725
8099.17 66.5423
8099.92 49.0843
8100.67 38.4037
8101.41 31.5106
8102.16 26.8161
8102.91 23.4677
8104.41 19.0881
8105.90 16.4006
8107.40 14.6078
8110.39 12.3940
8113.38 11.0949
8116.37 10.2463
8119.37 9.65026
8122.36 9.20891
8128.34 8.59843
8134.33 8.19473
8140.31 7.90605
8146.29 7.68772
8158.26 7.37477
8170.23 7.15554
8194.17 6.85104
8218.11 6.62679
8242.04 6.42831
8254.01 6.32653
8265.98 6.21268
8271.96 6.14456
8277.95 6.05682
8280.94 5.99505
8283.93 5.90023
8285.43 5.82195
8286.92 5.68756
8287.67 5.57057
8288.42 5.37243
8288.79 5.21309
8289.17 4.99081
8289.35 4.87526
8289.54 4.88582
8289.64 5.12302
8289.73 5.95292
8289.82 9.02693
8289.87 13.3371
8289.92 22.5388
8289.96 38.8537
8290.00 54.5145
8290.04 50.8747
8290.09 38.0215
8290.12 29.5419
8290.16 23.7786
8290.22 17.2808
8290.29 13.9135
8290.36 11.9993
8290.50 9.94075
8290.64 8.89502
8290.92 7.86785
8291.20 7.37229
8291.75 6.89109
8292.31 6.65725
8293.42 6.42442
8294.53 6.30481
8296.75 6.17437
8298.97 6.09631
8303.42 5.98883
8307.86 5.90146
8316.75 5.72899
8325.63 5.52123
8330.08 5.39049
8334.52 5.23080
8338.96 5.02812
8343.40 4.75937
8345.63 4.58900
8347.85 4.38641
8350.07 4.14539
8352.29 3.86740
8354.51 3.59725
8355.62 3.53053
8356.73 3.63716
8357.85 4.24605
8358.40 5.01827
8358.96 6.48557
8359.51 9.38113
8359.79 11.8384
8360.07 15.4524
8360.35 20.9399
8360.62 29.4288
8360.90 42.9513
8361.18 64.4024
8361.59 116.023
8362.00 164.168
8362.41 149.193
8362.82 106.032
8363.22 74.8106
8363.62 55.3995
8364.02 43.2482
8364.42 35.2882
8364.82 29.8177
8365.22 25.8951
8366.02 20.7466
8366.81 17.5849
8367.61 15.4796
8369.21 12.8920
8370.80 11.3828
8372.40 10.4042
8373.99 9.72041
8375.59 9.21721
8378.78 8.52578
8381.97 8.07212
8385.16 7.74987
8388.35 7.50748
8394.73 7.16218
8401.12 6.92170
8413.88 6.58890
8426.64 6.34362
8439.41 6.12637
8452.17 5.89593
8458.55 5.74724
8461.75 5.63038
8463.34 5.51204
8464.14 5.38330
8464.54 5.32120
8464.74 5.60984
8464.84 6.70340
8464.89 8.61917
8464.94 13.9204
8464.97 21.1090
8465.00 27.7915
8465.03 25.5873
8465.06 19.5097
8465.10 14.6001
8465.14 11.7424
8465.21 9.07803
8465.36 7.29934
8465.65 6.39014
8466.24 5.96635
8467.41 5.75004
8469.76 5.59121
8474.46 5.34856
8476.81 5.18198
8477.98 5.06826
8479.16 4.91643
8480.33 4.69587
8481.51 4.33736
8482.09 4.06183
8482.68 3.70711
8482.97 3.56267
8483.27 3.73237
8483.41 4.30891
8483.56 6.06370
8483.63 8.09155
8483.71 11.8482
8483.78 19.2490
8483.82 25.5638
8483.85 34.5435
8483.89 46.7323
8483.93 62.4990
8484.00 89.8115
8484.04 90.9755
8484.07 83.4685
8484.15 60.7704
8484.20 47.9985
8484.25 38.7239
8484.30 32.1257
8484.35 27.4424
8484.45 21.2207
8484.55 17.5270
8484.65 15.1050
8484.76 13.4490
8484.96 11.3412
8485.16 10.0712
8485.36 9.23495
8485.77 8.21250
8486.17 7.61209
8486.58 7.21953
8487.39 6.73453
8488.20 6.44324
8489.01 6.24602
8490.63 5.98835
8492.25 5.81848
8493.88 5.69071
8497.12 5.49348
8503.60 5.17308
8510.09 4.84415
8516.57 4.43902
8519.82 4.18728
8523.06 3.89391
8526.30 3.57687
8527.92 3.44755
8529.54 3.42151
8531.17 3.73269
8531.98 4.22552
8532.79 5.25255
8533.60 7.44692
8534.00 9.42005
8534.41 12.4789
8534.81 17.3987
8535.22 25.5868
8535.62 39.7770
8536.03 64.7659
8536.52 115.130
8537.00 160.809
8537.49 144.306
8537.97 101.345
8538.55 65.6071
8539.13 45.8877
8539.71 34.6051
8540.28 27.6538
8540.86 23.0722
8541.44 19.8809
8542.59 15.8032
8543.75 13.3450
8544.91 11.7171
8547.22 9.69555
8549.53 8.46737
8551.84 7.61059
8556.46 6.37851
8561.09 5.34611
8563.40 4.81518
8565.71 4.25216
8568.02 3.69985
8569.18 3.50489
8570.33 3.51779
8571.49 4.12540
8572.07 4.96892
8572.64 6.58707
8573.22 9.72536
8573.80 16.0338
8574.09 21.4472
8574.38 29.4501
8574.67 41.4065
8574.95 59.1351
8575.48 110.766
8576.00 162.372
8576.52 152.009
8577.05 110.674
8577.60 77.2701
8578.16 57.0379
8578.72 44.6462
8579.27 36.6366
8579.83 31.1713
8580.39 27.2646
8581.50 22.1404
8582.62 18.9761
8583.73 16.8555
8585.96 14.2143
8588.18 12.6459
8590.41 11.6104
8592.64 10.8748
8594.86 10.3243
8599.32 9.55179
8603.77 9.03177
8612.68 8.36564
8621.59 7.94750
8630.50 7.65343
8648.32 7.25222
8666.14 6.97524
8683.95 6.75811
8719.59 6.39691
8755.22 6.03647
8773.04 5.82171
8790.86 5.55267
8808.68 5.17850
8817.59 4.91992
8826.49 4.57968
8830.95 4.36514
8835.40 4.11099
8839.86 3.80947
8844.31 3.46199
8848.77 3.12085
8850.99 3.02828
8853.22 3.13332
8855.45 3.80148
8856.56 4.64875
8857.67 6.24113
8858.79 9.31316
8859.90 15.5361
8860.46 20.9569
8861.02 29.0947
8861.57 41.4898
8862.13 60.3033
8863.06 111.057
8864.00 160.201
8864.94 147.821
8865.87 106.269
8866.51 83.5000
8867.14 66.9370
8867.77 55.0571
8868.41 46.4240
8869.67 35.1261
8870.94 28.3260
8872.21 23.8977
8873.47 20.8384
8876.00 16.9488
8878.54 14.6175
8881.07 13.0827
8886.13 11.2015
8891.20 10.0988
8896.26 9.37455
8901.33 8.86039
8906.39 8.47398
8916.53 7.92257
8926.66 7.53052
8936.79 7.19405
8939.32 7.09783
8941.85 6.97237
8943.12 6.88056
8944.38 6.73593
8945.02 6.61795
8945.65 6.43063
8945.97 6.29208
8946.28 6.13085
8946.44 6.09110
8946.60 6.27045
8946.68 6.66841
8946.76 7.75673
8946.84 11.0484
8946.88 15.1000
8946.92 22.7174
8946.96 37.6981
8947.00 51.8297
8947.04 48.1323
8947.09 36.1809
8947.12 28.3731
8947.16 23.0920
8947.23 17.1066
8947.30 14.0769
8947.37 12.3387
8947.51 10.4958
8947.65 9.56394
8947.93 8.65149
8948.21 8.21052
8948.77 7.78255
8949.32 7.57197
8950.44 7.35666
8951.56 7.24053
8953.80 7.10401
8956.04 7.01417
8960.52 6.87922
8964.99 6.76208
8969.47 6.64056
8973.94 6.48655
8976.18 6.37360
8978.42 6.19130
8979.54 6.03639
8980.66 5.77238
8981.22 5.55270
8981.78 5.22050
8982.06 5.00678
8982.34 4.86128
8982.48 4.99727
8982.62 5.79161
8982.69 6.94255
8982.76 9.49428
8982.83 15.6271
8982.86 21.7070
8982.90 31.4638
8982.92 41.8289
8982.95 55.3142
8983.00 79.1453
8983.03 80.2197
8983.05 73.6320
8983.10 54.2643
8983.14 43.8465
8983.17 36.2729
8983.24 26.6321
8983.30 21.1737
8983.37 17.8244
8983.50 14.0796
8983.63 12.1082
8983.90 10.1334
8984.16 9.16925
8984.69 8.23634
8985.22 7.78653
8986.27 7.34525
8987.33 7.12435
8989.45 6.89411
8991.56 6.76667
8995.79 6.61195
9000.01 6.50664
9008.47 6.34394
9016.92 6.20246
9033.83 5.92331
9050.74 5.60345
9067.65 5.18196
9076.11 4.89904
9084.56 4.53201
9088.79 4.30173
9093.02 4.02822
9097.24 3.69968
9101.47 3.30697
9105.70 2.87198
9107.81 2.68761
9109.92 2.63250
9112.04 2.99594
9113.10 3.58493
9114.15 4.79410
9115.21 7.28697
9115.74 9.44700
9116.27 12.6600
9116.79 17.5599
9117.32 25.1737
9117.85 37.2483
9118.38 56.4260
9119.19 104.717
9120.00 151.870
9120.81 140.601
9121.62 101.267
9122.22 77.9719
9122.82 61.5146
9123.42 50.0233
9124.02 41.8486
9125.21 31.3848
9126.41 25.2003
9127.60 21.2179
9128.80 18.4787
9131.19 15.0011
9133.58 12.9058
9135.98 11.5073
9140.76 9.73545
9145.54 8.60719
9150.33 7.73854
9152.72 7.32224
9155.11 6.84803
9156.31 6.54103
9157.50 6.10261
9158.10 5.77052
9158.70 5.27009
9159.00 4.91444
9159.30 4.50858
9159.45 4.40070
9159.60 4.75629
9159.67 5.54509
9159.75 7.57934
9159.82 13.0751
9159.86 18.8604
9159.90 28.9746
9159.92 39.2461
9159.95 52.8573
9160.00 78.0968
9160.03 80.2239
9160.05 74.4942
9160.10 55.8986
9160.14 43.7576
9160.19 35.1825
9160.27 25.1087
9160.35 19.8258
9160.43 16.7506
9160.59 13.3770
9160.76 11.6234
9161.08 9.85639
9161.41 8.97163
9162.06 8.06954
9162.71 7.59068
9164.02 7.03727
9165.32 6.67675
9167.93 6.12496
9170.54 5.63030
9173.15 5.15576
9174.45 4.96252
9175.76 4.88920
9177.06 5.18009
9177.72 5.67149
9178.37 6.68392
9179.02 8.76498
9179.67 13.2061
9180.00 17.2161
9180.32 23.4089
9180.65 33.1404
9180.98 48.4399
9181.49 87.6443
9182.00 125.922
9182.51 116.788
9183.02 84.8494
9183.55 60.2841
9184.07 45.1664
9184.59 35.7847
9185.11 29.6769
9185.63 25.4758
9186.15 22.4614
9187.19 18.4935
9188.23 16.0339
9189.27 14.3800
9191.36 12.3080
9193.44 11.0620
9195.52 10.2240
9199.69 9.14410
9203.85 8.44518
9208.02 7.92327
9216.35 7.09625
9224.68 6.30790
9228.84 5.85679
9233.01 5.32304
9237.18 4.66872
9241.34 3.93957
9243.42 3.75468
9244.46 3.89132
9245.51 4.43882
9246.55 5.94280
9247.07 7.44086
9247.59 9.87487
9248.11 13.9267
9248.63 20.8332
9249.15 32.9921
9249.67 54.5188
9250.34 102.565
9251.00 151.328
9251.67 142.677
9252.33 104.638
9253.03 73.8004
9253.74 54.9852
9254.44 43.3701
9255.14 35.8383
9255.84 30.6736
9256.55 26.9773
9257.95 22.1108
9259.35 19.0981
9260.76 17.0741
9263.57 14.5521
9266.38 13.0535
9269.19 12.0638
9272.00 11.3609
9274.81 10.8353
9280.43 10.0983
9286.04 9.60240
9291.66 9.24271
9297.28 8.96768
9308.52 8.56957
9319.76 8.29033
9342.23 7.91316
9364.71 7.66044
9387.18 7.47243
9432.13 7.19695
9477.08 6.98796
9522.03 6.80473
9566.98 6.61494
9578.22 6.55978
9589.46 6.49609
9595.08 6.45797
9600.69 6.41040
9606.31 6.33338
9609.12 6.24078
9610.53 6.11037
9611.23 5.94946
9611.58 5.88467
9611.76 6.29802
9611.84 7.64742
9611.89 9.72755
9611.93 14.6414
9611.97 22.4808
9612.00 29.8050
9612.03 27.9546
9612.07 21.5390
9612.12 15.0755
9612.17 11.9493
9612.28 9.33476
9612.49 7.77826
9612.91 7.01678
9613.75 6.66204
9615.42 6.48606
9618.77 6.37451
9625.48 6.23819
9628.83 6.15016
9632.18 6.00668
9633.86 5.88131
9635.54 5.65877
9636.38 5.46246
9637.21 5.13218
9637.63 4.87350
9638.05 4.53648
9638.26 4.39599
9638.47 4.54290
9638.58 5.06397
9638.68 6.64133
9638.79 11.7286
9638.84 18.0344
9638.89 30.5621
9638.92 41.2130
9638.95 54.9218
9639.00 78.8865
9639.03 80.2525
9639.06 74.1253
9639.11 54.6590
9639.15 42.4710
9639.20 34.0347
9639.28 24.0531
9639.37 18.8621
9639.46 15.8619
9639.63 12.5929
9639.80 10.9296
9640.15 9.28210
9640.50 8.48487
9641.19 7.71258
9641.88 7.33813
9643.27 6.96998
9644.66 6.78535
9647.43 6.59297
9650.20 6.48642
9655.75 6.35501
9661.29 6.26034
9672.38 6.09078
9683.47 5.89650
9689.01 5.77522
9694.56 5.62680
9700.10 5.43754
9705.65 5.18494
9708.42 5.02376
9711.19 4.83106
9713.97 4.59973
9716.74 4.32839
9719.51 4.05018
9720.90 3.96063
9722.28 4.00708
9723.67 4.45127
9724.36 5.03965
9725.05 6.16431
9725.75 8.35408
9726.44 12.8225
9726.79 16.7294
9727.13 22.5830
9727.48 31.5287
9727.83 45.0992
9728.41 82.1496
9729.00 118.467
9729.59 110.034
9730.17 79.9576
9730.64 61.0274
9731.10 47.9816
9731.57 39.0902
9732.03 32.8840
9732.96 25.0916
9733.89 20.5694
9734.82 17.6921
9735.75 15.7304
9737.61 13.2653
9739.47 11.8008
9741.33 10.8395
9743.19 10.1630
9745.05 9.66157
9748.77 8.96595
9752.49 8.49594
9756.21 8.11680
9758.07 7.87909
9759.00 7.64871
9759.47 7.43817
9759.70 7.48587
9759.82 8.28296
9759.88 10.0273
9759.93 16.0314
9759.97 24.0634
9760.00 31.9230
9760.03 30.3210
9760.07 23.8829
9760.12 16.6091
9760.18 13.3814
9760.30 10.8317
9760.52 9.34229
9760.98 8.59640
9761.89 8.21529
9763.72 7.97399
9765.54 7.84802
9767.37 7.75497
9771.02 7.61177
9774.67 7.49965
9781.97 7.32722
9789.26 7.19669
9803.86 7.00417
9818.46 6.85967
9833.06 6.73506
9847.66 6.60572
9854.96 6.52385
9858.61 6.47109
9862.26 6.40231
9865.91 6.30186
9867.73 6.22852
9869.56 6.12560
9871.38 5.96685
9872.30 5.84849
9873.21 5.68319
9874.12 5.43561
9875.03 5.03350
9875.49 4.73931
9875.95 4.41893
9876.17 4.38108
9876.40 4.88041
9876.52 5.83402
9876.63 8.25516
9876.69 10.7263
9876.74 14.9431
9876.80 22.3731
9876.86 35.6569
9876.89 48.4691
9876.93 64.3236
9877.00 92.8536
9877.04 94.3368
9877.07 86.8255
9877.14 63.7674
9877.20 48.0961
9877.26 37.6418
9877.33 30.6126
9877.39 25.8954
9877.51 20.0459
9877.63 16.7377
9877.76 14.6356
9877.88 13.2224
9878.12 11.4462
9878.37 10.3914
9878.61 9.70387
9879.10 8.86463
9879.59 8.37397
9880.08 8.05427
9881.07 7.66213
9882.05 7.43077
9883.03 7.27764
9884.99 7.08609
9886.95 6.96934
9888.91 6.88940
9892.83 6.78383
9896.76 6.71404
9900.68 6.66192
9908.53 6.58369
9924.22 6.46773
9939.91 6.36442
9955.60 6.24953
9963.45 6.17843
9971.30 6.08788
9975.22 6.03010
9979.14 5.95863
9983.07 5.86581
9986.99 5.73700
9990.91 5.54060
9992.87 5.39549
9994.83 5.19415
9996.80 4.89558
9997.78 4.68656
9998.76 4.41833
9999.74 4.07807
10000.7 3.73570
10001.2 3.74424
10001.7 4.45733
10002.0 5.73834
10002.2 8.72641
10002.3 11.9654
10002.4 16.9951
10002.6 25.5202
10002.7 40.0546
10002.8 72.7728
10003.0 104.984
10003.2 98.5376
10003.3 72.5125
10003.5 54.3328
10003.6 42.8828
10003.7 35.0832
10003.9 29.6361
10004.1 22.7858
10004.4 18.7997
10004.6 16.2571
10004.9 14.5198
10005.4 12.3313
10005.9 11.0082
10006.5 10.1581
10007.0 9.55941
10007.5 9.11637
10008.6 8.50170
10009.6 8.10387
10010.6 7.82331
10011.7 7.61475
10013.8 7.32375
10015.9 7.13051
10017.9 6.99195
10020.0 6.88746
10024.2 6.73696
10028.4 6.63226
10032.6 6.55283
10036.7 6.48921
10045.1 6.38915
10053.4 6.30922
10070.1 6.17470
10086.8 6.04775
10103.5 5.90878
10111.9 5.82796
10120.2 5.73250
10124.4 5.67485
10128.6 5.60334
10132.8 5.48920
10134.8 5.35773
10135.9 5.19608
10136.4 5.07560
10136.7 5.29440
10136.8 6.37885
10136.9 8.73855
10136.9 11.0453
10136.9 16.1843
10137.0 24.6459
10137.0 34.2363
10137.0 30.9181
10137.1 23.6937
10137.1 15.8368
10137.2 12.3647
10137.3 9.11384
10137.5 7.20736
10137.9 6.30197
10138.8 5.87640
10140.5 5.66203
10144.0 5.51286
10150.9 5.32588
10157.9 5.12727
10164.8 4.87458
10168.3 4.71589
10171.7 4.52823
10175.2 4.30415
10178.7 4.04431
10182.1 3.78169
10183.9 3.70185
10185.6 3.75710
10187.3 4.20669
10188.2 4.79380
10189.1 5.89334
10189.9 8.04524
10190.8 12.3547
10191.2 16.1901
10191.7 21.8102
10192.1 30.3123
10192.5 43.1468
10193.3 78.5196
10194.0 113.101
10194.7 105.048
10195.5 76.3474
10196.1 57.6535
10196.7 45.1378
10197.3 36.5558
10197.9 30.7132
10199.1 23.3655
10200.3 19.1604
10201.5 16.4702
10202.7 14.6420
10205.1 12.3582
10207.6 10.9975
10210.0 10.1086
10212.4 9.48290
10214.8 9.01949
10219.6 8.37830
10224.4 7.95646
10229.3 7.65528
10234.1 7.42877
10243.8 7.10494
10253.4 6.87934
10272.7 6.56629
10292.0 6.33319
10311.3 6.12161
10321.0 6.01029
10330.6 5.88406
10335.4 5.80862
10340.3 5.71388
10342.7 5.64955
10345.1 5.55600
10346.3 5.48228
10347.5 5.36301
10348.1 5.26273
10348.7 5.10679
10349.3 4.87387
10349.6 5.05531
10349.8 6.38714
10349.8 9.43625
10349.9 13.1708
10349.9 19.2311
10350.0 32.7911
10350.0 44.1327
10350.0 41.5246
10350.1 30.5641
10350.1 22.3737
10350.2 17.0511
10350.3 12.0551
10350.5 8.85854
10350.7 7.71554
10350.9 7.15180
10351.2 6.59520
10351.6 6.33404
10352.4 6.07297
10353.2 5.94174
10354.7 5.79826
10356.2 5.71251
10359.3 5.59353
10362.3 5.49609
10368.5 5.30079
10374.6 5.06391
10377.7 4.91476
10380.7 4.73474
10383.8 4.51035
10386.8 4.22283
10389.9 3.84962
10393.0 3.42602
10394.5 3.33317
10395.3 3.44107
10396.0 3.82350
10396.8 4.87115
10397.2 5.90533
10397.6 7.59795
10398.0 10.5356
10398.3 15.5370
10398.7 24.5319
10399.1 40.9581
10399.6 75.9811
10400.0 109.872
10400.2 111.613
10400.5 102.204
10400.9 74.6025
10401.3 54.2556
10401.8 41.4824
10402.2 33.2311
10402.6 27.6927
10403.5 20.9312
10404.3 17.1834
10405.1 14.8138
10406.0 13.2343
10407.7 11.2585
10409.4 10.0796
10411.0 9.30864
10412.7 8.76036
10414.4 8.35436
10417.8 7.78424
10421.2 7.40253
10427.9 6.90841
10434.6 6.58439
10441.4 6.33830
10454.9 5.93315
10468.4 5.51901
10475.1 5.26578
10481.8 4.94510
10485.2 4.74353
10488.6 4.50243
10492.0 4.20689
10495.3 3.83950
10498.7 3.39445
10500.4 3.16444
10502.1 2.99652
10503.8 3.08845
10504.6 3.41406
10505.4 4.19244
10506.3 5.97983
10506.7 7.59502
10507.1 10.0847
10507.5 14.0056
10508.0 20.3361
10508.4 30.7887
10508.8 48.1231
10509.4 89.8300
10510.0 131.465
10510.6 122.976
10511.2 89.5407
10511.8 64.8931
10512.3 49.1189
10512.9 39.0262
10513.5 32.3996
10514.6 24.3233
10515.7 19.7946
10516.9 16.9660
10518.0 15.0572
10520.3 12.6745
10522.5 11.2572
10524.8 10.3300
10527.0 9.67489
10529.3 9.18739
10533.8 8.50731
10538.4 8.05423
10542.9 7.72607
10547.4 7.47543
10556.5 7.10813
10565.5 6.84123
10583.6 6.44135
10601.7 6.09340
10610.7 5.90516
10619.8 5.68319
10628.8 5.39133
10633.4 5.19687
10637.9 4.94796
10640.2 4.79345
10642.4 4.61406
10644.7 4.40575
10646.9 4.17380
10649.2 3.96606
10650.3 3.93258
10651.5 4.05817
10652.6 4.61384
10653.2 5.27789
10653.7 6.46193
10654.3 8.71177
10654.9 13.0346
10655.1 16.8282
10655.4 22.2086
10655.7 30.1477
10656.0 41.8196
10656.5 75.3250
10657.0 107.761
10657.5 99.8308
10658.0 72.5280
10658.5 53.4299
10658.9 41.1940
10659.4 33.0286
10659.8 27.6347
10660.8 20.9892
10661.7 17.2745
10662.6 14.9200
10663.5 13.3472
10665.3 11.3721
10667.1 10.2037
10668.9 9.43694
10670.7 8.89641
10672.5 8.49482
10676.1 7.93522
10679.8 7.56296
10687.0 7.08753
10694.3 6.78507
10701.5 6.56624
10716.0 6.24657
10730.5 5.99709
10744.9 5.77323
10773.9 5.32113
10802.9 4.77141
10817.4 4.42308
10831.9 4.00346
10846.4 3.51316
10853.6 3.27171
10860.8 3.10842
10868.1 3.23648
10871.7 3.59439
10875.3 4.40334
10878.9 6.13389
10882.6 9.88077
10884.4 13.2499
10886.2 18.3986
10888.0 26.3598
10889.8 38.6402
10892.9 73.3758
10896.0 109.076
10897.6 111.618
10899.1 102.894
10902.2 75.1406
10904.2 60.1316
10906.2 48.8635
10908.2 40.4327
10910.2 34.0820
10912.2 29.1381
10913.2 27.1113
10914.2 25.4412
10915.2 24.3272
10915.7 24.2043
10916.2 24.6594
10916.7 26.2649
10917.2 30.3191
10917.7 40.0895
10918.2 63.0630
10918.6 103.177
10919.0 142.566
10919.4 134.196
10919.9 102.324
10920.2 83.1136
10920.5 69.6770
10920.8 60.0467
10921.1 53.0260
10921.7 43.6229
10922.3 37.9309
10922.9 34.0452
10923.5 31.3023
10924.7 27.5841
10925.9 25.1165
10927.1 23.3440
10929.5 20.8583
10931.9 19.1432
10934.3 17.8526
10939.1 15.9913
10944.0 14.6857
10948.8 13.7073
10958.4 12.3272
10968.1 11.3949
10977.7 10.7209
10997.0 9.80850
11016.3 9.21656
11035.6 8.79933
11074.1 8.24348
11112.7 7.88249
11151.2 7.62234
11228.4 7.25246
11305.5 6.97032
11382.6 6.69403
11421.2 6.52348
11440.5 6.41560
11459.8 6.27785
11479.1 6.08289
11488.7 5.94505
11498.3 5.75707
11508.0 5.47770
11512.8 5.27681
11517.6 5.00557
11520.0 4.83110
11522.4 4.62085
11524.8 4.36559
11527.3 4.05915
11529.7 3.72350
11530.9 3.58701
11532.1 3.56135
11533.3 3.87643
11533.9 4.34832
11534.5 5.27853
11535.1 7.14855
11535.7 10.8926
11536.0 14.1110
11536.3 18.8651
11536.6 25.9521
11536.9 36.4729
11537.5 68.2085
11538.0 99.9647
11538.6 94.6935
11539.1 70.3231
11539.6 54.3725
11540.0 43.2226
11540.4 35.5463
11540.9 30.2497
11541.7 23.3624
11542.6 19.3659
11543.5 16.7697
11544.4 15.0072
11546.1 12.7588
11547.9 11.4105
11549.6 10.5190
11553.1 9.42106
11556.6 8.76815
11560.1 8.33465
11567.1 7.78796
11574.1 7.44571
11581.1 7.20027
11595.1 6.83311
11609.1 6.50194
11616.0 6.31234
11623.0 6.07712
11626.5 5.92944
11630.0 5.75000
11633.5 5.52377
11637.0 5.22739
11638.8 5.04076
11640.5 4.82073
11642.3 4.56203
11644.0 4.27004
11645.8 3.98966
11646.6 3.91734
11647.5 4.00354
11648.4 4.51455
11649.3 6.20950
11649.7 8.19032
11650.1 11.7501
11650.6 18.6733
11651.0 31.7013
11651.5 59.4231
11652.0 88.6148
11652.3 91.3217
11652.5 85.0164
11653.0 63.6524
11653.4 48.6595
11653.9 38.4758
11654.3 31.6404
11654.7 27.0133
11655.6 21.1470
11656.4 17.7434
11657.3 15.5705
11658.1 14.0818
11659.8 12.1967
11661.5 11.0595
11663.2 10.3112
11664.9 9.78011
11666.6 9.38408
11670.0 8.83134
11673.4 8.46502
11676.8 8.20251
11680.2 8.00407
11687.0 7.72073
11693.8 7.52524
11700.7 7.37877
11707.5 7.26287
11721.1 7.08427
11734.7 6.94507
11761.9 6.71346
11789.1 6.47946
11802.7 6.33719
11816.3 6.15487
11829.9 5.89247
11836.8 5.70419
11843.6 5.44682
11847.0 5.27707
11850.4 5.06760
11853.8 4.80220
11857.2 4.45829
11860.6 4.00953
11864.0 3.49907
11865.7 3.37936
11866.5 3.48900
11867.4 3.89526
11868.2 4.96967
11868.7 6.02667
11869.1 7.66780
11869.5 10.3803
11869.9 14.7373
11870.4 22.2165
11870.8 34.4713
11871.4 65.5566
11872.0 97.5433
11872.3 100.585
11872.6 93.5636
11873.2 70.1491
11873.6 56.7268
11874.0 46.8826
11874.9 34.0940
11875.7 26.8118
11876.5 22.3626
11877.3 19.3708
11878.1 17.2737
11879.7 14.5795
11881.3 12.9263
11882.9 11.8300
11886.1 10.4667
11889.4 9.65358
11892.6 9.11418
11895.8 8.72784
11899.1 8.43519
11905.5 8.00422
11912.0 7.66440
11915.2 7.48563
11918.4 7.24886
11920.0 7.06540
11921.6 6.76212
11922.5 6.50170
11923.3 6.07573
11923.7 5.73372
11924.1 5.28577
11924.3 5.06674
11924.5 5.08928
11924.7 6.69558
11924.8 10.3486
11924.8 14.4829
11924.9 23.0955
11924.9 31.5192
11924.9 41.1960
11925.0 63.2425
11925.0 65.3936
11925.1 61.3261
11925.1 47.5834
11925.2 34.7172
11925.3 26.6361
11925.4 21.8230
11925.5 18.7673
11925.6 15.2373
11925.8 13.3187
11926.1 11.3408
11926.4 10.3716
11927.0 9.37577
11927.7 8.89092
11928.9 8.40080
11930.2 8.15047
11932.8 7.88533
11935.3 7.73795
11937.8 7.63763
11940.4 7.56198
11945.4 7.45009
11955.6 7.29958
11965.7 7.19423
11986.0 7.04476
12006.3 6.93681
12046.9 6.77825
12087.5 6.65553
12168.7 6.44111
12189.0 6.38320
12209.3 6.31384
12219.4 6.26765
12229.6 6.19900
12234.7 6.14271
12239.7 6.04423
12242.3 5.95426
12244.8 5.78910
12246.1 5.63679
12247.3 5.36448
12248.0 5.12798
12248.6 4.76185
12248.9 4.50639
12249.2 4.27707
12249.4 4.30651
12249.6 4.84944
12249.7 7.64973
12249.8 12.2077
12249.9 22.5745
12249.9 39.9269
12250.0 60.3200
12250.0 61.7349
12250.1 57.4529
12250.1 43.8959
12250.2 30.3160
12250.3 22.5092
12250.4 18.1230
12250.5 15.6848
12250.7 12.5628
12250.8 10.9984
12251.2 9.35395
12251.5 8.55922
12252.2 7.75663
12252.9 7.37174
12254.3 6.99162
12255.7 6.80434
12258.5 6.61701
12261.3 6.52127
12266.8 6.41956
12272.4 6.36212
12283.5 6.29044
12294.6 6.23973
12339.0 6.08020
12383.5 5.91428
12405.7 5.81074
12416.8 5.73685
12422.4 5.66474
12425.2 5.56624
12426.5 5.41286
12427.2 5.19982
12427.6 5.01727
12427.8 5.17458
12427.8 6.09643
12427.9 7.42507
12427.9 11.6531
12428.0 17.2964
12428.0 25.3521
12428.0 23.8743
12428.1 19.3220
12428.1 13.4167
12428.2 10.9536
12428.3 8.72037
12428.5 7.20932
12428.9 6.43418
12429.7 6.06387
12431.4 5.87936
12434.7 5.77705
12441.4 5.69866
12454.8 5.59742
12481.4 5.38396
12494.8 5.24370
12508.1 5.05064
12514.8 4.91119
12521.5 4.69971
12524.8 4.52980
12526.5 4.40978
12528.1 4.24776
12529.8 4.00690
12531.5 3.60600
12532.3 3.27874
12533.1 2.81409
12533.5 2.54194
12534.0 2.43216
12534.2 2.70496
12534.4 3.85533
12534.5 5.40428
12534.6 8.15964
12534.7 13.5881
12534.7 18.1103
12534.8 25.1213
12534.8 35.4355
12534.9 47.3147
12535.0 71.7787
12535.1 73.7605
12535.1 68.6026
12535.2 51.4083
12535.3 41.2770
12535.4 34.1238
12535.5 24.9217
12535.7 19.3592
12535.8 16.1854
12535.9 13.9402
12536.1 12.4767
12536.4 10.5145
12536.7 9.32253
12537.0 8.52872
12537.5 7.54404
12538.1 6.95934
12538.7 6.57175
12539.9 6.08631
12541.0 5.78944
12542.2 5.58415
12544.5 5.30689
12549.1 4.95270
12553.7 4.66807
12558.4 4.36246
12560.7 4.18322
12563.0 3.98027
12565.3 3.76511
12566.5 3.68080
12567.6 3.67185
12568.8 3.90315
12569.4 4.25716
12570.0 4.98669
12570.5 6.52618
12571.1 10.0135
12571.4 13.3698
12571.7 18.8952
12572.0 28.3081
12572.3 43.8165
12572.6 77.8840
12573.0 108.279
12573.4 97.3666
12573.7 69.2520
12574.1 50.0228
12574.4 38.0406
12574.7 30.2715
12575.0 25.0480
12575.7 18.6604
12576.3 15.1525
12577.0 12.9416
12577.6 11.4833
12578.9 9.67362
12580.2 8.60211
12581.5 7.90280
12584.0 7.04772
12586.6 6.53583
12589.2 6.19074
12594.3 5.73431
12604.6 5.17816
12609.8 4.95045
12612.4 4.81275
12613.7 4.70007
12614.3 4.61186
12614.6 4.65918
12614.8 5.13603
12614.9 6.31027
12614.9 7.91716
12614.9 12.0370
12615.0 23.2803
12615.1 16.1817
12615.1 10.3149
12615.2 7.88239
12615.3 6.26026
12615.6 5.45339
12616.2 5.07160
12617.2 4.87353
12619.4 4.72610
12623.7 4.54345
12632.4 4.22839
12641.0 3.91869
12649.7 3.63127
12658.3 3.48276
12662.7 3.58317
12667.0 3.99100
12671.3 5.10905
12673.5 6.22043
12675.7 8.01286
12677.8 10.9868
12680.0 16.0025
12682.1 24.7160
12684.3 39.9781
12687.2 75.1225
12690.0 111.154
12692.9 105.007
12695.7 77.2175
12698.2 57.8951
12700.7 44.9963
12703.2 36.4495
12705.7 30.6245
12710.6 23.4096
12715.6 19.2865
12720.6 16.6711
12725.6 14.8931
12735.5 12.6516
12745.4 11.3083
12755.4 10.4178
12765.3 9.78406
12775.3 9.30899
12795.2 8.63555
12815.1 8.16448
12835.0 7.76280
12839.9 7.64435
12844.9 7.48340
12847.4 7.35944
12849.9 7.15448
12851.1 6.97619
12852.4 6.67333
12853.0 6.42275
12853.6 6.04735
12853.9 5.80958
12854.2 5.64413
12854.4 5.77705
12854.5 6.48568
12854.7 9.68632
12854.8 14.4758
12854.9 24.2178
12854.9 32.1395
12854.9 43.6100
12855.0 62.0960
12855.1 60.2690
12855.1 45.5977
12855.2 35.4479
12855.3 28.0853
12855.4 23.3430
12855.4 20.1730
12855.6 16.3504
12855.7 14.2044
12856.0 11.9531
12856.3 10.8465
12856.8 9.70759
12857.4 9.16046
12858.5 8.61635
12859.6 8.34754
12861.8 8.06992
12864.0 7.92264
12868.4 7.75446
12872.9 7.64999
12881.7 7.50587
12890.6 7.39688
12926.0 7.06367
12943.7 6.91212
12961.4 6.74310
12970.2 6.63541
12979.1 6.48052
12983.5 6.35732
12985.7 6.26969
12987.9 6.14889
12990.2 5.96492
12992.4 5.64375
12993.5 5.36679
12994.6 4.92853
12995.1 4.60862
12995.7 4.27567
12996.0 4.23989
12996.2 4.70982
12996.4 5.58408
12996.5 7.68324
12996.7 12.9558
12996.7 18.2653
12996.8 26.0051
12996.9 47.3838
12997.0 71.0211
12997.1 72.9901
12997.1 68.0625
12997.2 51.5417
12997.3 37.5979
12997.5 28.6174
12997.6 23.1565
12997.7 19.8865
12997.9 15.7989
12998.1 13.5336
12998.4 12.0749
12998.6 11.1386
12999.1 9.96419
12999.5 9.25155
13000.0 8.79238
13000.9 8.22382
13001.9 7.88275
13002.8 7.65690
13004.6 7.37534
13006.5 7.20256
13008.3 7.08453
13012.1 6.92721
13015.8 6.82177
13019.5 6.74151
13026.9 6.61677
13041.7 6.41414
13056.6 6.20692
13071.4 5.94173
13078.8 5.76196
13086.2 5.52277
13093.6 5.17622
13097.4 4.93398
13101.1 4.61869
13104.8 4.19790
13108.5 3.67853
13110.3 3.49526
13111.3 3.53521
13112.2 3.82332
13113.1 4.72318
13113.6 5.65205
13114.0 7.20172
13114.5 9.91170
13115.0 14.5802
13115.4 23.0116
13115.9 38.4239
13116.4 71.6491
13117.0 105.542
13117.6 99.9606
13118.1 73.8545
13118.7 52.0345
13119.3 38.8603
13120.0 30.8197
13120.6 25.7031
13121.2 22.1478
13121.8 19.6453
13123.0 16.3241
13124.2 14.2726
13125.4 12.8958
13127.8 11.1822
13130.2 10.1666
13132.7 9.49734
13135.1 9.02330
13137.5 8.66944
13142.3 8.17341
13147.2 7.84034
13156.9 7.40978
13166.6 7.13026
13176.2 6.92198
13195.6 6.59502
13215.0 6.29048
13224.7 6.11762
13234.3 5.90854
13244.0 5.62709
13248.9 5.43675
13253.7 5.18804
13256.1 5.03009
13258.6 4.84147
13261.0 4.61162
13263.4 4.32943
13265.8 3.99594
13268.2 3.72197
13269.5 3.82666
13270.1 4.10351
13270.7 4.72259
13271.3 6.09762
13271.9 9.12517
13272.2 12.0448
13272.5 16.5184
13272.8 23.6796
13273.1 35.1513
13273.5 64.3010
13274.0 93.4907
13274.5 87.9194
13274.9 64.7298
13275.4 46.1529
13275.9 34.7378
13276.4 27.6721
13276.8 23.0718
13277.3 19.9164
13277.8 17.6520
13278.8 14.6906
13279.7 12.8307
13280.7 11.5881
13282.6 10.0142
13284.5 9.05448
13286.4 8.40128
13290.2 7.51286
13294.1 6.83552
13296.0 6.50080
13297.9 6.12741
13299.8 5.66677
13300.8 5.38368
13301.7 5.05901
13302.7 4.70272
13303.6 4.48923
13304.1 4.70661
13304.6 5.82168
13304.8 7.29571
13305.1 10.2579
13305.2 12.7712
13305.3 16.4325
13305.4 21.7949
13305.5 28.8331
13305.6 39.5186
13305.8 53.3899
13306.0 79.4021
13306.1 81.9271
13306.2 76.4507
13306.5 57.6215
13306.7 42.1153
13307.0 32.7429
13307.2 26.7747
13307.5 22.8027
13307.7 19.9352
13307.9 17.9453
13308.4 15.2795
13308.9 13.5713
13309.4 12.4350
13310.4 10.9944
13311.3 10.1150
13312.3 9.52651
13314.2 8.78536
13316.2 8.32523
13318.1 8.00741
13322.0 7.57765
13325.8 7.28389
13329.7 7.05501
13337.4 6.67743
13345.2 6.30477
13349.1 6.08406
13352.9 5.80844
13356.8 5.42747
13358.7 5.16621
13360.7 4.82961
13362.6 4.37882
13364.5 3.81009
13365.5 3.57553
13366.0 3.57294
13366.5 3.79633
13367.0 4.59446
13367.2 5.43885
13367.4 6.86404
13367.7 9.30447
13367.9 13.5885
13368.2 21.3217
13368.4 35.4310
13368.7 67.0181
13369.0 100.089
13369.2 102.918
13369.3 95.4659
13369.6 70.8565
13369.9 53.1162
13370.1 41.7127
13370.4 34.0994
13370.7 28.8589
13371.2 22.2584
13371.7 18.5392
13372.2 16.1322
13372.8 14.5208
13373.8 12.4790
13374.8 11.2420
13375.9 10.4301
13378.0 9.41754
13380.1 8.81333
13382.2 8.40951
13386.3 7.89657
13390.5 7.57622
13394.7 7.35020
13403.1 7.03630
13411.4 6.81039
13419.8 6.62413
13436.5 6.28731
13453.2 5.91343
13461.6 5.67686
13470.0 5.37287
13474.1 5.18020
13478.3 4.94817
13482.5 4.66148
13486.7 4.30052
13490.9 3.85054
13495.0 3.39273
13497.1 3.36838
13498.2 3.57142
13499.2 4.12383
13500.3 5.45086
13500.8 6.66727
13501.3 8.54378
13501.8 11.5551
13502.4 16.2936
13502.9 23.9891
13503.4 36.4958
13504.2 69.1247
13505.0 103.143
13505.4 106.042
13505.8 98.3697
13506.6 72.9839
13507.3 54.2264
13508.1 41.9302
13508.8 33.9152
13509.6 28.4991
13511.0 21.8929
13512.5 18.1628
13514.0 15.7926
13515.5 14.1909
13518.4 12.1641
13521.4 10.9452
13524.3 10.1373
13527.3 9.55868
13530.2 9.12037
13536.1 8.48241
13542.0 7.99621
13545.0 7.75479
13547.9 7.45473
13549.4 7.23764
13550.9 6.90145
13551.6 6.63213
13552.4 6.22630
13553.1 5.71086
13553.3 5.75626
13553.5 6.32616
13553.7 9.01449
13553.7 13.1099
13553.8 17.4006
13553.8 24.0852
13553.9 32.3044
13553.9 42.7054
13554.0 62.1295
13554.1 60.0497
13554.2 45.8522
13554.3 33.6296
13554.3 26.8084
13554.4 22.4413
13554.5 19.5200
13554.7 15.8236
13554.8 13.8846
13555.2 11.7728
13555.5 10.7280
13556.1 9.65133
13556.8 9.12480
13558.1 8.58821
13559.4 8.31078
13562.0 8.00447
13564.6 7.82569
13569.9 7.59918
13575.1 7.44546
13585.5 7.22573
13596.0 7.06321
13616.9 6.81753
13637.8 6.62436
13679.6 6.29780
13721.4 5.98130
13763.2 5.61717
13784.2 5.39468
13805.1 5.12374
13826.0 4.77070
13836.4 4.54377
13846.9 4.26367
13857.3 3.90668
13862.6 3.69306
13867.8 3.46427
13873.0 3.27134
13875.6 3.25064
13878.2 3.39035
13880.8 3.95587
13882.2 4.60946
13883.5 5.77348
13884.8 7.94414
13886.1 12.1350
13886.7 15.7275
13887.4 20.9125
13888.0 28.5798
13888.7 39.8830
13889.8 71.8770
13891.0 102.000
13892.2 93.3921
13893.3 67.1033
13894.4 48.6492
13895.5 36.8064
13896.5 29.2007
13897.6 24.1612
13899.7 18.0520
13901.9 14.6295
13904.0 12.4839
13906.1 11.0413
13910.4 9.22780
13914.7 8.13116
13918.9 7.39106
13927.5 6.42146
13936.0 5.77370
13944.5 5.27084
13961.6 4.44326
13978.6 3.71653
13987.2 3.41647
13995.7 3.25969
14004.2 3.51299
14008.5 4.00876
14012.8 5.02157
14017.0 7.01584
14021.3 10.9352
14025.5 18.8349
14027.7 25.4903
14029.8 34.9570
14034.4 67.9262
14039.0 103.441
14041.3 107.432
14043.6 100.655
14048.2 75.9186
14052.2 57.9952
14056.2 45.7025
14060.1 37.3534
14064.1 31.5531
14072.1 24.2177
14080.0 19.8623
14080.0 8.87894
15000.0 8.87117
17000.0 8.86029
20000.0 8.85463
25000.0 8.86125
30000.0 8.87784
35000.0 8.89873
40000.0 8.92126
50000.0 8.96634
60000.0 9.00812
70000.0 9.04515
80000.0 9.07743
99999.9 9.12819
100000 9.14354
150000 9.28411
200000 9.27679
250000 9.18155
300000 9.03468
392807 8.69432
446404 8.46469
500000 8.26634
512500 8.20756
525000 8.15062
537500 8.09540
550000 8.04182
562500 7.98979
575000 7.93924
587500 7.89010
600000 7.84229
612500 7.79575
625000 7.75043
637500 7.70626
650000 7.66320
662500 7.62121
675000 7.58022
687500 7.54021
700000 7.50113
712500 7.45427
725000 7.40852
737500 7.36383
750000 7.32017
762500 7.27749
775000 7.23575
787500 7.19492
800000 7.15497
820783 7.08462
841566 7.01672
862349 6.95113
883132 6.88772
900000 6.83572
912500 6.79650
925000 6.75806
937500 6.72037
950000 6.68341
962500 6.64716
975000 6.61159
987500 6.57668
1.00000E+06 6.54241
1.06082E+06 6.36879
1.12163E+06 6.20949
1.18245E+06 6.06266
1.24326E+06 5.92675
1.24327E+06 5.92674
1.25000E+06 5.91148
1.27159E+06 5.86315
1.32869E+06 5.73416
1.38580E+06 5.61531
1.44290E+06 5.50545
1.50000E+06 5.40364
1.56250E+06 5.29095
1.62500E+06 5.18571
1.68750E+06 5.08719
1.75000E+06 4.99475
1.75918E+06 4.98135
1.75918E+06 4.98134
1.79155E+06 4.93500
1.79156E+06 4.93499
1.86743E+06 4.82739
1.94330E+06 4.73397
2.00000E+06 4.66533
2.02018E+06 4.64170
2.13059E+06 4.51782
2.24100E+06 4.41187
2.35141E+06 4.32103
2.46182E+06 4.24299
2.58972E+06 4.14179
2.71762E+06 4.05667
2.85881E+06 3.95914
3.00000E+06 3.87853
3.22371E+06 3.82062
3.46410E+06 3.76359
3.72242E+06 3.70740
4.00000E+06 3.65205
4.22949E+06 3.68366
4.47214E+06 3.71555
4.72871E+06 3.74771
5.00000E+06 3.78015
5.47723E+06 3.90798
6.00000E+06 4.04013
6.48074E+06 4.15474
7.00000E+06 4.27259
7.19730E+06 4.30195
7.39099E+06 4.33018
7.48331E+06 4.34345
8.00000E+06 4.41548
8.01321E+06 4.41629
8.02641E+06 4.41711
8.03962E+06 4.41794
8.05282E+06 4.41876
8.06603E+06 4.41960
8.07923E+06 4.42043
8.09244E+06 4.42127
8.10565E+06 4.42211
8.11885E+06 4.42296
8.13206E+06 4.42381
8.14526E+06 4.42466
8.15847E+06 4.42552
8.17167E+06 4.42638
8.18488E+06 4.42724
8.19809E+06 4.42811
8.21129E+06 4.42898
8.23126E+06 4.43016
8.25123E+06 4.43135
8.27120E+06 4.43255
8.29116E+06 4.43376
8.31113E+06 4.43497
8.33110E+06 4.43619
8.35107E+06 4.43742
8.37104E+06 4.43866
8.39100E+06 4.43990
8.41097E+06 4.44115
8.43094E+06 4.44241
8.45091E+06 4.44368
8.47088E+06 4.44495
8.49084E+06 4.44623
8.51081E+06 4.44752
8.53078E+06 4.44882
8.56011E+06 4.45039
8.58943E+06 4.45199
8.61876E+06 4.45362
8.64809E+06 4.45527
8.67741E+06 4.45693
8.70674E+06 4.45863
8.73606E+06 4.46035
8.76539E+06 4.46208
8.79472E+06 4.46385
8.82404E+06 4.46563
8.85337E+06 4.46744
8.88270E+06 4.46927
8.91202E+06 4.47112
8.94135E+06 4.47299
8.97067E+06 4.47489
9.00000E+06 4.47681
9.06678E+06 4.47631
9.13356E+06 4.47609
9.20034E+06 4.47613
9.26712E+06 4.47644
9.33389E+06 4.47700
9.40067E+06 4.47781
9.46745E+06 4.47888
9.53423E+06 4.48019
9.61502E+06 4.48052
9.69581E+06 4.48118
9.77186E+06 4.48123
9.84791E+06 4.48155
9.92395E+06 4.48214
1.00000E+07 4.48299
1.00465E+07 4.48111
1.00930E+07 4.47932
1.01395E+07 4.47763
1.01860E+07 4.47604
1.02324E+07 4.47454
1.02789E+07 4.47313
1.03254E+07 4.47181
1.03719E+07 4.47058
1.03915E+07 4.46978
1.04112E+07 4.46899
1.04308E+07 4.46821
1.04504E+07 4.46744
1.04701E+07 4.46669
1.04897E+07 4.46595
1.05093E+07 4.46522
1.05289E+07 4.46450
1.05486E+07 4.46379
1.05682E+07 4.46310
1.05878E+07 4.46241
1.06074E+07 4.46174
1.06271E+07 4.46108
1.06467E+07 4.46043
1.06663E+07 4.45979
1.06860E+07 4.45917
1.07056E+07 4.45855
1.07252E+07 4.45795
1.07448E+07 4.45736
1.07645E+07 4.45678
1.07841E+07 4.45621
1.08037E+07 4.45565
1.08234E+07 4.45510
1.08430E+07 4.45456
1.08626E+07 4.45404
1.08822E+07 4.45352
1.09019E+07 4.45302
1.09215E+07 4.45253
1.09411E+07 4.45205
1.09608E+07 4.45158
1.09804E+07 4.45112
1.10000E+07 4.45067
1.10313E+07 4.44948
1.10625E+07 4.44831
1.10938E+07 4.44715
1.11250E+07 4.44602
1.11563E+07 4.44490
1.11875E+07 4.44380
1.12188E+07 4.44272
1.12500E+07 4.44165
1.12813E+07 4.44061
1.13125E+07 4.43958
1.13438E+07 4.43857
1.13750E+07 4.43758
1.14063E+07 4.43661
1.14375E+07 4.43565
1.14688E+07 4.43471
1.15000E+07 4.43379
1.15313E+07 4.43289
1.15625E+07 4.43200
1.15938E+07 4.43113
1.16250E+07 4.43028
1.16563E+07 4.42944
1.16875E+07 4.42863
1.17188E+07 4.42782
1.17500E+07 4.42704
1.17813E+07 4.42627
1.18125E+07 4.42552
1.18438E+07 4.42479
1.18750E+07 4.42407
1.19063E+07 4.42337
1.19375E+07 4.42269
1.19688E+07 4.42202
1.20000E+07 4.42137
1.20625E+07 4.41800
1.21250E+07 4.41471
1.21875E+07 4.41148
1.22500E+07 4.40832
1.23125E+07 4.40524
1.23750E+07 4.40222
1.24375E+07 4.39928
1.25000E+07 4.39640
1.25625E+07 4.39360
1.26250E+07 4.39086
1.26875E+07 4.38820
1.27500E+07 4.38560
1.28125E+07 4.38307
1.28750E+07 4.38062
1.29375E+07 4.37824
1.30000E+07 4.37593
1.30625E+07 4.37289
1.31250E+07 4.36990
1.31875E+07 4.36698
1.32500E+07 4.36410
1.33125E+07 4.36129
1.33750E+07 4.35853
1.34375E+07 4.35583
1.35000E+07 4.35318
1.35625E+07 4.35060
1.36250E+07 4.34808
1.36875E+07 4.34561
1.37500E+07 4.34322
1.38125E+07 4.34088
1.38750E+07 4.33861
1.39375E+07 4.33641
1.40000E+07 4.33428
1.40625E+07 4.32895
1.41250E+07 4.32370
1.41875E+07 4.31852
1.42500E+07 4.31341
1.43125E+07 4.30838
1.43750E+07 4.30343
1.44375E+07 4.29855
1.45000E+07 4.29376
1.45625E+07 4.28868
1.46250E+07 4.28367
1.46875E+07 4.27873
1.47500E+07 4.27384
1.48125E+07 4.26902
1.48750E+07 4.26427
1.49375E+07 4.25958
1.50000E+07 4.25497
1.51191E+07 4.23862
1.52382E+07 4.22258
1.53573E+07 4.20683
1.54764E+07 4.19137
1.55955E+07 4.17622
1.57146E+07 4.16138
1.58337E+07 4.14684
1.59528E+07 4.13262
1.60000E+07 4.12685
1.61250E+07 4.10227
1.62500E+07 4.07808
1.63750E+07 4.05427
1.65000E+07 4.03084
1.66250E+07 4.00779
1.67500E+07 3.98512
1.68750E+07 3.96283
1.70000E+07 3.94091
1.70313E+07 3.93540
1.70625E+07 3.92989
1.70938E+07 3.92441
1.71250E+07 3.91895
1.71563E+07 3.91350
1.71875E+07 3.90807
1.72188E+07 3.90266
1.72500E+07 3.89727
1.72813E+07 3.89190
1.73125E+07 3.88654
1.73438E+07 3.88120
1.73750E+07 3.87588
1.74063E+07 3.87058
1.74375E+07 3.86530
1.74688E+07 3.86003
1.75000E+07 3.85479
1.75313E+07 3.84956
1.75625E+07 3.84435
1.75938E+07 3.83915
1.76250E+07 3.83398
1.76563E+07 3.82882
1.76875E+07 3.82368
1.77188E+07 3.81856
1.77500E+07 3.81346
1.77813E+07 3.80838
1.78125E+07 3.80331
1.78438E+07 3.79826
1.78750E+07 3.79323
1.79063E+07 3.78822
1.79375E+07 3.78323
1.79688E+07 3.77825
1.80000E+07 3.77330
1.80625E+07 3.76155
1.81250E+07 3.74989
1.81875E+07 3.73832
1.82500E+07 3.72683
1.83125E+07 3.71543
1.83750E+07 3.70412
1.84375E+07 3.69289
1.85000E+07 3.68174
1.85625E+07 3.67068
1.86250E+07 3.65971
1.86875E+07 3.64881
1.87500E+07 3.63800
1.88125E+07 3.62728
1.88750E+07 3.61664
1.89375E+07 3.60608
1.90000E+07 3.59560
1.91250E+07 3.57447
1.92500E+07 3.55363
1.93750E+07 3.53308
1.95000E+07 3.51283
1.96250E+07 3.49287
1.97500E+07 3.47321
1.98750E+07 3.45384
2.00000E+07 3.43476