Sr-84(n,tot) ENDF/B-VII.1
Energy(eV) XS(b)
1.00000E-05 46.7934
1.25000E-05 42.4291
1.50000E-05 39.2075
2.00000E-05 34.6854
2.75000E-05 30.3827
3.50000E-05 27.5509
4.25000E-05 25.5066
5.00000E-05 23.9416
6.25000E-05 21.9898
7.50000E-05 20.5491
0.000100000 18.5268
0.000125000 17.1467
0.000150000 16.1279
0.000200000 14.6979
0.000275000 13.3372
0.000350000 12.4418
0.000425000 11.7953
0.000500000 11.3004
0.000625000 10.6832
0.000750000 10.2276
0.00100000 9.58807
0.00125000 9.15164
0.00150000 8.82949
0.00200000 8.37728
0.00275000 7.94700
0.00350000 7.66383
0.00425000 7.45940
0.00500000 7.30290
0.00625000 7.10772
0.00750000 6.96364
0.0100000 6.76140
0.0125000 6.62339
0.0150000 6.52151
0.0200000 6.37850
0.0253000 6.27598
0.0314750 6.19095
0.0376500 6.12780
0.0500000 6.03868
0.0625000 5.97693
0.0750000 5.93134
0.100000 5.86732
0.125000 5.82361
0.150000 5.79133
0.200000 5.74597
0.275000 5.70274
0.350000 5.67421
0.500000 5.63769
0.750000 5.60305
1.00000 5.58210
1.50000 5.55665
2.00000 5.54087
2.75000 5.52504
3.50000 5.51385
5.00000 5.49793
7.50000 5.47963
10.0000 5.46560
15.0000 5.44256
20.0000 5.42236
27.5000 5.39409
35.0000 5.36673
50.0000 5.31215
75.0000 5.21694
100.000 5.11203
150.000 4.85408
200.000 4.48233
240.958 4.00709
261.437 3.66054
281.917 3.18727
292.156 2.88034
302.396 2.50895
312.635 2.05852
322.875 1.52876
327.995 1.25405
333.114 1.01832
335.674 0.944350
338.234 0.932099
339.514 0.962600
340.154 0.990437
340.794 1.02839
341.434 1.07805
342.074 1.14121
342.714 1.22006
343.354 1.31709
343.994 1.43530
344.634 1.57821
345.274 1.75002
345.914 1.95572
347.194 2.49431
348.474 3.25914
349.754 4.34811
351.034 5.91171
352.314 8.19043
353.594 11.5828
354.874 16.7856
356.153 25.0899
357.433 39.0927
358.713 64.5785
359.353 85.5564
359.993 116.458
360.633 164.134
361.273 242.205
361.913 380.659
362.233 492.412
362.553 654.107
362.873 897.335
363.193 1278.82
363.513 1901.09
363.833 2928.55
364.217 4818.68
364.600 6189.80
364.984 5087.22
365.368 3266.72
365.607 2442.75
365.847 1859.31
366.325 1155.84
366.804 782.245
367.282 565.458
367.761 429.614
368.240 339.148
369.197 229.913
370.154 168.760
371.111 130.913
373.025 88.0552
374.939 65.3038
376.854 51.6042
378.768 42.6186
380.682 36.3498
384.511 28.2937
388.339 23.4159
392.168 20.1844
395.996 17.9031
403.654 14.9184
411.311 13.0652
418.968 11.8075
426.625 10.8989
441.939 9.67117
457.253 8.87325
472.567 8.30707
476.396 8.19237
480.224 8.09357
482.139 8.05852
483.096 8.05078
484.053 8.05847
485.010 8.10376
485.489 8.16044
485.967 8.27154
486.446 8.51309
486.685 8.74857
486.924 9.15999
487.164 9.97002
487.283 10.7029
487.403 11.8977
487.523 14.0330
487.582 15.7813
487.642 18.3614
487.702 22.3598
487.762 28.9207
487.822 40.3469
487.881 60.8465
487.941 92.6189
488.000 113.793
488.059 92.5603
488.119 60.7980
488.165 43.9019
488.212 33.1921
488.258 26.3446
488.304 21.8226
488.397 16.5271
488.490 13.7140
488.583 12.0591
488.676 11.0110
488.861 9.81062
489.047 9.17631
489.233 8.80105
489.604 8.39577
489.975 8.19084
490.347 8.07093
491.089 7.93857
491.832 7.86592
492.574 7.81778
494.059 7.75192
497.030 7.66125
500.000 7.58793
504.220 7.49675
508.440 7.42332
510.550 7.40431
511.605 7.40767
512.660 7.43184
513.716 7.50731
514.243 7.59179
514.771 7.75149
515.034 7.88697
515.298 8.09245
515.562 8.42342
515.826 9.00245
516.089 10.1492
516.221 11.1945
516.353 12.9145
516.485 16.0318
516.551 18.6271
516.617 22.5099
516.683 28.6624
516.749 39.0400
516.815 57.8686
516.881 93.5167
516.940 145.368
517.000 179.876
517.060 145.305
517.120 93.5517
517.177 61.3223
517.234 42.8616
517.292 32.0304
517.349 25.3254
517.407 20.9485
517.464 17.9567
517.579 14.2729
517.693 12.1864
517.808 10.8982
518.038 9.45797
518.267 8.71450
518.497 8.28125
518.726 8.00616
518.956 7.82008
519.415 7.59014
519.874 7.45704
520.333 7.37146
520.792 7.31191
521.710 7.23346
522.628 7.18213
524.464 7.11271
526.300 7.06137
528.136 7.01734
531.809 6.93822
539.153 6.79103
546.498 6.64544
561.187 6.33628
575.876 5.96798
590.566 5.46850
597.910 5.12343
605.255 4.66320
608.927 4.36747
612.599 4.00959
616.272 3.57156
619.944 3.04074
621.780 2.74874
623.616 2.46705
625.452 2.27081
627.289 2.38803
627.748 2.53206
628.207 2.75853
628.436 2.91238
628.666 3.09995
628.895 3.32774
629.125 3.60357
629.354 3.93727
629.584 4.34048
629.813 4.82822
630.043 5.41920
630.272 6.13718
630.502 7.01257
630.961 9.40526
631.420 13.0899
631.879 18.9648
632.338 28.8010
632.567 36.2559
632.797 46.4290
633.027 60.6828
633.256 81.2757
633.486 112.219
633.715 161.038
633.945 242.965
634.174 391.598
634.289 512.791
634.404 687.284
634.518 943.345
634.633 1317.51
634.817 2194.71
635.000 2855.45
635.184 2376.89
635.368 1544.80
635.517 1071.30
635.667 768.397
635.816 573.711
635.966 444.352
636.264 290.901
636.563 207.733
636.862 157.729
637.161 125.291
637.758 86.9135
638.356 65.7201
638.953 52.6428
639.551 43.9238
640.148 37.7700
641.343 29.7722
642.538 24.8789
643.733 21.6158
644.928 19.3021
647.318 16.2628
649.708 14.3696
652.098 13.0829
654.488 12.1528
659.268 10.8971
664.048 10.0835
668.827 9.50632
673.607 9.06748
683.167 8.40990
687.947 8.13206
692.727 7.85446
697.507 7.54083
699.897 7.35015
702.287 7.11593
703.482 6.97402
704.677 6.80931
705.872 6.61719
707.067 6.39987
707.664 6.29088
708.262 6.20065
708.859 6.17321
709.457 6.33247
709.755 6.58300
710.054 7.08092
710.353 8.06762
710.652 10.1079
710.950 14.7443
711.100 19.3252
711.175 22.7124
711.212 24.8046
711.249 27.2360
711.287 30.0866
711.324 33.4319
711.361 37.4067
711.399 42.1401
711.436 47.8549
711.473 54.7812
711.511 63.2814
711.548 73.8292
711.585 87.1173
711.623 103.988
711.660 125.829
711.697 154.368
711.735 192.402
711.772 243.437
711.809 312.511
711.847 405.328
711.923 676.278
712.000 883.523
712.038 850.983
712.077 740.570
712.154 486.161
712.224 325.788
712.294 228.575
712.364 168.835
712.435 130.416
712.575 86.2871
712.716 63.0259
712.856 49.2471
712.997 40.3896
713.278 29.9699
713.559 24.2295
713.840 20.6828
714.121 18.3107
714.402 16.6298
714.965 14.4311
715.527 13.0729
716.089 12.1584
716.651 11.5038
717.776 10.6324
718.900 10.0797
720.024 9.69731
721.149 9.41616
723.398 9.02751
725.646 8.76810
730.144 8.43463
734.642 8.22119
739.139 8.06718
748.134 7.84984
757.130 7.69599
766.125 7.57671
784.115 7.39666
820.096 7.15463
856.077 6.98925
892.058 6.86400
928.038 6.76328
1000.00 6.60594
1074.96 6.47809
1149.92 6.36959
1224.87 6.26969
1299.83 6.16907
1374.79 6.05472
1412.27 5.98452
1449.75 5.89600
1487.23 5.77075
1505.97 5.68097
1524.71 5.55581
1534.08 5.47098
1543.45 5.36207
1552.82 5.21570
1562.19 5.00653
1566.87 4.86345
1571.56 4.67994
1576.24 4.43588
1580.92 4.09610
1583.27 3.87166
1585.61 3.59545
1587.95 3.25128
1590.29 2.82519
1591.47 2.58433
1592.64 2.34284
1593.81 2.15078
1594.98 2.16313
1595.57 2.37831
1595.86 2.59106
1596.15 2.91159
1596.44 3.38900
1596.74 4.09388
1596.88 4.56612
1597.03 5.13814
1597.18 5.83763
1597.32 6.69670
1597.47 7.76552
1597.61 9.08580
1597.91 12.8457
1598.20 19.0081
1598.35 23.5601
1598.49 29.6409
1598.64 37.9974
1598.79 49.6022
1598.93 66.4199
1599.08 91.2939
1599.23 130.128
1599.37 192.679
1599.52 298.496
1599.66 480.719
1599.83 818.173
1600.00 1084.39
1600.17 920.478
1600.34 609.719
1600.52 381.693
1600.71 255.959
1600.89 183.734
1601.08 139.376
1601.27 110.251
1601.45 90.3188
1601.82 65.3243
1602.19 50.7053
1602.56 41.3838
1603.30 30.4158
1604.04 24.3434
1604.78 20.5609
1605.53 18.0084
1606.27 16.1835
1607.75 13.7684
1609.23 12.2551
1610.71 11.2244
1612.19 10.4800
1615.16 9.48023
1618.12 8.84168
1621.09 8.39935
1624.05 8.07502
1629.98 7.63114
1635.91 7.34110
1641.83 7.13610
1647.76 6.98300
1659.62 6.76794
1671.47 6.62227
1683.33 6.51530
1695.18 6.43204
1718.90 6.30695
1742.61 6.21253
1790.03 6.06262
1837.45 5.92206
1861.16 5.84211
1884.87 5.74444
1908.59 5.60946
1920.44 5.51410
1932.30 5.38248
1938.22 5.29395
1944.15 5.18098
1950.08 5.03027
1956.01 4.81698
1958.97 4.67244
1961.94 4.48875
1964.90 4.24755
1967.86 3.91832
1969.35 3.70588
1970.83 3.45087
1972.31 3.14612
1973.79 2.79822
1974.53 2.62624
1975.27 2.49118
1976.01 2.47303
1976.76 2.79046
1977.13 3.24896
1977.31 3.61814
1977.50 4.12765
1977.68 4.83689
1977.87 5.82025
1978.05 7.20564
1978.24 9.18943
1978.42 12.1117
1978.61 16.4933
1978.79 23.3399
1978.98 34.5638
1979.16 54.1505
1979.26 69.6595
1979.35 91.2226
1979.44 122.672
1979.53 168.731
1979.63 239.120
1979.72 344.395
1979.86 588.389
1980.00 785.276
1980.14 669.697
1980.28 446.767
1980.44 282.123
1980.59 190.783
1980.75 138.007
1980.90 105.444
1981.05 84.0761
1981.21 69.3128
1981.52 50.7329
1981.82 39.8413
1982.13 32.8483
1982.75 24.5930
1983.37 19.9903
1983.98 17.1154
1984.60 15.1676
1985.21 13.7703
1986.45 11.9119
1987.68 10.7430
1988.91 9.94370
1990.14 9.36433
1992.61 8.58258
1995.07 8.08091
1997.54 7.73159
2000.00 7.47440
2003.90 7.18141
2007.80 6.97353
2015.60 6.69585
2023.39 6.51602
2031.19 6.38748
2046.79 6.20931
2062.38 6.08359
2093.58 5.89224
2124.77 5.71625
2155.96 5.50352
2171.56 5.35989
2187.15 5.16458
2194.95 5.03412
2202.75 4.86824
2210.54 4.64789
2218.34 4.33791
2222.24 4.12941
2226.14 3.86650
2230.04 3.52553
2233.94 3.06976
2235.89 2.78311
2237.84 2.44953
2239.79 2.07161
2241.74 1.69010
2242.71 1.54591
2243.69 1.50993
2244.17 1.57521
2244.66 1.73889
2245.15 2.05878
2245.64 2.63187
2245.88 3.06312
2246.12 3.63080
2246.37 4.37931
2246.61 5.36609
2246.85 6.68733
2247.10 8.45969
2247.34 10.8889
2247.58 14.2468
2247.83 19.0260
2248.07 25.9843
2248.32 36.4486
2248.56 52.7483
2248.80 79.6538
2249.05 126.412
2249.29 213.895
2249.41 284.929
2249.53 382.742
2249.77 659.232
2250.00 883.973
2250.23 758.229
2250.47 507.173
2250.65 364.094
2250.83 269.780
2251.02 206.989
2251.20 164.459
2251.56 112.483
2251.93 83.4299
2252.29 65.5401
2252.66 53.6928
2253.39 39.3502
2254.12 31.1842
2254.85 26.0289
2255.58 22.5145
2256.31 19.9920
2257.77 16.6350
2259.22 14.5278
2260.68 13.0918
2262.14 12.0548
2265.06 10.6634
2267.98 9.77678
2270.90 9.16364
2273.82 8.71504
2279.65 8.10230
2285.49 7.70291
2291.33 7.42117
2297.16 7.21110
2308.84 6.91667
2320.51 6.71786
2332.18 6.57246
2343.86 6.45988
2367.21 6.29264
2390.55 6.16936
2437.25 5.98527
2483.94 5.83764
2530.64 5.70152
2624.02 5.41464
2717.41 5.03774
2764.11 4.77497
2810.80 4.41699
2834.15 4.18029
2857.50 3.88385
2880.84 3.49925
2904.19 2.97792
2915.87 2.64119
2927.54 2.23394
2939.21 1.73781
2950.89 1.14267
2956.72 0.819333
2962.56 0.511385
2965.48 0.384862
2966.94 0.335817
2968.40 0.300807
2969.86 0.284624
2971.32 0.293610
2972.77 0.336233
2974.23 0.423908
2975.69 0.572332
2977.15 0.802818
2978.61 1.14559
2980.07 1.64363
2981.53 2.35998
2982.99 3.38658
2984.45 4.86548
2985.91 7.01940
2987.37 10.2138
2988.83 15.0615
2990.29 22.6666
2991.74 35.1231
2993.20 56.7055
2994.66 96.8959
2995.39 130.163
2996.12 178.432
2996.85 249.801
2997.58 354.855
2998.79 618.719
3000.00 839.616
3001.21 726.333
3002.42 489.477
3003.77 309.943
3005.12 209.806
3006.47 152.092
3007.82 116.521
3009.16 93.1353
3010.51 76.9477
3013.21 56.5077
3015.91 44.4503
3018.61 36.6639
3024.00 27.3921
3029.39 22.1678
3034.79 18.8630
3040.18 16.6010
3045.58 14.9625
3056.37 12.7533
3067.16 11.3333
3077.95 10.3395
3088.74 9.59980
3110.31 8.55341
3131.89 7.82002
3153.47 7.24378
3175.05 6.74411
3196.63 6.26908
3218.21 5.77531
3239.79 5.21408
3261.37 4.51475
3272.16 4.07820
3282.94 3.55422
3293.73 2.91020
3304.52 2.10800
3309.92 1.64122
3315.31 1.14410
3320.71 0.669454
3323.41 0.485719
3324.75 0.424114
3326.10 0.394193
3327.45 0.408682
3328.80 0.485509
3330.15 0.650063
3330.82 0.775987
3331.50 0.938659
3332.85 1.40538
3334.19 2.12985
3335.54 3.23667
3336.89 4.91937
3338.24 7.50023
3339.59 11.5238
3340.94 17.9671
3342.29 28.6744
3343.64 47.4319
3344.98 82.5005
3345.66 111.538
3346.33 153.553
3347.01 215.297
3347.68 305.831
3348.84 543.845
3350.00 751.474
3351.16 660.960
3352.32 452.272
3353.07 348.566
3353.81 273.453
3355.30 180.691
3356.79 129.908
3358.28 99.5657
3359.77 80.0160
3361.26 66.6400
3364.24 49.8891
3367.22 40.0542
3370.20 33.6968
3376.16 26.0927
3382.12 21.7722
3388.08 19.0152
3394.04 17.1133
3400.00 15.7265
3400.00 10.2419
4000.00 9.99235
5000.00 9.68862
6000.00 9.47136
7200.00 9.27974
8000.00 9.17997
10000.0 8.99344
12000.0 8.86437
14000.0 8.77044
16000.0 8.69961
18000.0 8.64481
20000.0 8.60158
22000.0 8.56695
24000.0 8.53889
26000.0 8.51593
28000.0 8.49702
30000.0 8.48135
32000.0 8.46831
34000.0 8.45743
36000.0 8.44834
38000.0 8.44074
40000.0 8.43439
42000.0 8.42909
44000.0 8.42469
46000.0 8.42104
48000.0 8.41804
50000.0 8.41560
60000.0 8.40932
72000.0 8.40921
85000.0 8.41271
100000 8.41777
113346 8.42108
125000 8.42397
150000 8.42503
170000 8.42183
200000 8.41053
250000 8.37635
300000 8.32589
350000 8.26187
364348 8.24020
400000 8.18635
500000 8.00703
582539 7.83451
586061 7.82715
591830 7.81509
600000 7.79801
653765 7.67376
664088 7.64990
684126 7.60359
693639 7.58161
700000 7.56691
723190 7.50961
734828 7.48086
740799 7.46611
799496 7.32109
800000 7.31985
802740 7.31290
802740 7.21930
802836 7.21866
802836 7.21866
825606 7.06612
839977 6.96985
890578 6.63087
919926 6.43426
955347 6.19698
990000 5.96484
990000 5.96484
1.00000E+06 5.89785
1.01404E+06 5.86541
1.05351E+06 5.77424
1.06566E+06 5.74618
1.08185E+06 5.70878
1.11525E+06 5.63163
1.13245E+06 5.59190
1.47169E+06 4.80829
1.47169E+06 4.80828
1.50000E+06 4.74289
1.52005E+06 4.72289
1.52006E+06 4.72289
1.78917E+06 4.45445
1.78917E+06 4.45445
2.00000E+06 4.24415
2.08143E+06 4.20845
2.08143E+06 4.20845
2.09994E+06 4.20034
2.09994E+06 4.20033
2.32585E+06 4.10130
2.32585E+06 4.10130
2.41873E+06 4.06058
2.47774E+06 4.03470
2.50000E+06 4.02495
3.00000E+06 3.90644
3.50000E+06 3.83733
4.00000E+06 3.80288
5.00000E+06 3.83488
5.23822E+06 3.86644
6.00000E+06 3.96734
6.47491E+06 4.03923
7.00000E+06 4.11872
8.00000E+06 4.21463
8.96650E+06 4.22876
9.00000E+06 4.22926
1.00000E+07 4.17708
1.10000E+07 4.07506
1.20000E+07 3.93501
1.20613E+07 3.92505
1.20613E+07 3.92504
1.30000E+07 3.77232
1.40000E+07 3.60849
1.50000E+07 3.44940
1.60000E+07 3.29831
1.70000E+07 3.16104
1.80000E+07 3.04554
1.90000E+07 2.94706
2.00000E+07 2.86974