Y-90(n,tot) ENDF/B-VII.1
Energy(eV) XS(b)
1.00000E-05 175.574
1.25000E-05 158.047
1.50000E-05 145.109
2.00000E-05 126.948
2.75000E-05 109.669
3.50000E-05 98.2965
4.25000E-05 90.0868
5.00000E-05 83.8018
6.25000E-05 75.9635
7.50000E-05 70.1776
0.000100000 62.0559
0.000125000 56.5135
0.000150000 52.4222
0.000200000 46.6793
0.000275000 41.2149
0.000350000 37.6187
0.000425000 35.0226
0.000500000 33.0351
0.000625000 30.5564
0.000750000 28.7267
0.00100000 26.1583
0.00125000 24.4056
0.00150000 23.1118
0.00200000 21.2957
0.00275000 19.5676
0.00350000 18.4303
0.00425000 17.6093
0.00500000 16.9807
0.00625000 16.1968
0.00750000 15.6181
0.0100000 14.8058
0.0125000 14.2513
0.0150000 13.8420
0.0200000 13.2674
0.0253000 12.8555
0.0314750 12.5137
0.0376500 12.2598
0.0500000 11.9013
0.0625000 11.6528
0.0750000 11.4692
0.100000 11.2111
0.125000 11.0347
0.150000 10.9041
0.200000 10.7202
0.275000 10.5440
0.350000 10.4270
0.500000 10.2756
0.750000 10.1289
1.00000 10.0374
1.50000 9.92096
2.00000 9.84380
2.75000 9.76012
3.50000 9.69566
5.00000 9.59419
7.50000 9.46180
10.0000 9.35054
15.0000 9.15872
20.0000 8.99074
27.5000 8.76744
35.0000 8.56948
50.0000 8.22965
75.0000 7.78119
100.000 7.43315
100.000 7.43315
100.001 7.43314
100.001 7.43314
100.002 7.43313
100.003 7.43311
100.006 7.43307
100.012 7.43300
100.025 7.43285
100.049 7.43254
100.098 7.43194
100.196 7.43073
100.391 7.42832
100.781 7.42350
101.563 7.41392
103.125 7.39495
106.250 7.35777
112.500 7.28628
125.000 7.15374
150.000 6.92352
200.000 6.56372
257.466 6.25647
314.932 6.01815
372.397 5.82297
401.130 5.73700
408.313 5.71691
415.497 5.69830
419.088 5.69067
420.884 5.68809
422.680 5.68750
424.476 5.69181
425.374 5.69844
426.271 5.71235
426.720 5.72472
427.169 5.74401
427.618 5.77583
428.067 5.83296
428.292 5.87999
428.516 5.94991
428.741 6.06009
428.965 6.24794
429.190 6.60708
429.302 6.92323
429.414 7.42473
429.526 8.28679
429.639 9.93115
429.695 11.3556
429.751 13.5434
429.807 17.0286
429.863 22.6310
429.932 32.8029
430.000 39.5690
430.069 32.7577
430.137 22.5743
430.205 16.0696
430.274 12.4282
430.342 10.3242
430.410 9.03954
430.478 8.20721
430.547 7.64297
430.683 6.95250
430.819 6.56435
430.956 6.32592
431.229 6.06085
431.502 5.92486
431.775 5.84594
432.047 5.79603
432.320 5.76240
432.866 5.72106
433.412 5.69730
433.958 5.68213
434.504 5.67165
435.595 5.65799
436.687 5.64916
438.870 5.63740
441.053 5.62880
443.236 5.62147
447.603 5.60837
456.336 5.58428
465.069 5.56117
500.000 5.47231
589.966 5.25417
679.931 5.02846
700.000 4.97331
739.966 4.85297
779.931 4.70987
819.897 4.52431
829.888 4.46706
839.879 4.40396
844.875 4.37041
849.871 4.33715
852.369 4.32298
853.618 4.31821
854.867 4.31742
856.115 4.32657
856.740 4.34023
857.364 4.36844
857.989 4.43155
858.301 4.49386
858.613 4.60363
858.926 4.82180
859.082 5.02092
859.238 5.34918
859.394 5.94491
859.472 6.44194
859.550 7.18769
859.628 8.37390
859.706 10.3879
859.784 14.0846
859.862 21.1736
859.931 31.2695
860.000 37.9284
860.069 31.1083
860.138 20.9908
860.186 16.0672
860.235 12.7936
860.283 10.6166
860.332 9.13648
860.429 7.34340
860.526 6.36259
860.623 5.77427
860.720 5.39675
860.914 4.95921
861.107 4.72589
861.301 4.58711
861.689 4.43686
862.077 4.36082
862.465 4.31635
863.240 4.26726
864.016 4.24013
864.791 4.22187
866.342 4.19595
869.444 4.15682
872.547 4.12093
878.751 4.04650
884.955 3.96375
897.364 3.76083
909.772 3.48116
915.976 3.29629
922.181 3.06676
928.385 2.77531
934.589 2.39885
937.691 2.17216
940.793 1.92234
943.895 1.66939
946.998 1.49179
948.549 1.50605
950.100 1.69846
951.651 2.28147
952.426 2.86090
953.202 3.78581
953.977 5.28059
954.753 7.76067
955.528 12.0560
956.304 19.9889
956.692 26.5313
957.080 36.1211
957.467 50.7428
957.855 74.1696
958.243 114.204
958.631 188.429
958.824 250.114
959.018 340.506
959.212 475.656
959.406 677.507
959.703 1137.75
960.000 1491.67
960.297 1251.38
960.594 819.839
960.902 520.495
961.210 350.359
961.518 250.987
961.826 189.362
962.133 148.840
962.441 120.867
963.057 85.7661
963.673 65.3232
964.288 52.3020
965.520 37.1052
966.751 28.7740
967.983 23.6345
969.214 20.1970
970.446 17.7592
972.908 14.5654
975.371 12.5883
977.834 11.2551
980.297 10.3000
985.223 9.02885
990.149 8.22465
995.074 7.67108
1000.00 7.26683
1009.06 6.75076
1018.11 6.40380
1036.22 5.96192
1054.34 5.68654
1072.45 5.49350
1108.67 5.22916
1144.89 5.04438
1181.11 4.89821
1217.34 4.77415
1235.45 4.71909
1244.50 4.69414
1253.56 4.67253
1258.09 4.66407
1262.62 4.65854
1267.14 4.65838
1271.67 4.66937
1273.93 4.68330
1276.20 4.70816
1278.46 4.75326
1280.73 4.84054
1281.86 4.91599
1282.99 5.03241
1284.12 5.22412
1285.25 5.57069
1285.82 5.85900
1286.39 6.29303
1286.95 6.98960
1287.52 8.21092
1288.08 10.6498
1288.37 12.8998
1288.65 16.6592
1288.93 23.6271
1289.08 29.5906
1289.22 38.6856
1289.36 53.6916
1289.50 80.1569
1289.64 131.805
1289.71 176.368
1289.78 240.012
1289.89 381.822
1290.00 475.080
1290.11 380.187
1290.22 239.713
1290.32 152.017
1290.43 101.739
1290.53 72.2210
1290.64 53.9409
1290.74 42.0059
1290.85 33.8473
1291.06 23.8315
1291.27 18.1335
1291.48 14.6168
1291.90 10.7018
1292.32 8.68266
1292.74 7.51363
1293.16 6.77408
1293.58 6.27896
1294.41 5.67546
1295.25 5.33584
1296.09 5.12562
1296.93 4.98636
1298.61 4.81788
1300.29 4.72289
1301.96 4.66314
1303.64 4.62246
1307.00 4.57037
1310.35 4.53759
1313.71 4.51397
1317.06 4.49528
1323.77 4.46543
1330.48 4.44053
1343.90 4.39676
1357.32 4.35628
1370.75 4.31720
1397.59 4.24100
1451.27 4.09337
1504.95 3.95601
1558.64 3.84620
1612.32 3.81064
1639.16 3.85564
1652.59 3.90713
1666.01 3.98862
1679.43 4.11679
1686.14 4.20966
1692.85 4.33665
1699.56 4.53033
1702.91 4.67971
1706.27 4.90663
1707.95 5.07535
1709.62 5.31222
1711.30 5.67098
1712.98 6.27262
1713.82 6.75052
1714.66 7.44902
1715.50 8.54009
1716.33 10.4037
1716.75 11.8916
1717.17 14.0476
1717.59 17.3698
1718.01 22.8643
1718.43 33.0165
1718.64 41.6581
1718.85 54.8702
1719.06 76.6741
1719.27 115.477
1719.38 147.116
1719.48 192.824
1719.59 260.237
1719.69 358.277
1719.85 567.156
1720.00 701.500
1720.16 556.245
1720.31 346.517
1720.49 200.614
1720.66 125.692
1720.84 85.0256
1721.01 61.2259
1721.19 46.3220
1721.36 36.4547
1721.71 24.7097
1722.06 18.2944
1722.41 14.4578
1723.11 10.3131
1723.81 8.26188
1724.51 7.11676
1725.21 6.42078
1725.91 5.97223
1727.32 5.46107
1728.72 5.20598
1730.12 5.07276
1731.52 5.00464
1734.32 4.96755
1737.12 4.99605
1742.72 5.13824
1748.33 5.33957
1753.93 5.58276
1765.13 6.19344
1787.55 8.09431
1809.96 11.6191
1832.37 18.7286
1843.57 25.0737
1854.78 35.0431
1865.98 51.5641
1877.19 80.7737
1888.40 136.303
1894.00 182.197
1899.60 246.841
1909.80 418.608
1920.00 554.054
1930.20 470.601
1940.40 313.640
1947.85 229.807
1955.30 172.886
1962.75 134.377
1970.20 107.707
1985.10 74.6846
2000.00 55.9599
2018.73 42.0624
2037.46 33.6004
2056.19 28.0309
2074.92 24.1455
2112.38 19.1707
2121.75 18.2921
2131.11 17.5206
2135.80 17.1764
2138.14 17.0182
2140.48 16.8744
2142.82 16.7576
2143.99 16.7203
2145.16 16.7144
2145.75 16.7337
2146.33 16.7805
2146.92 16.8758
2147.50 17.0671
2147.79 17.2320
2148.09 17.4819
2148.38 17.8805
2148.67 18.5627
2148.97 19.8785
2149.11 21.0394
2149.26 22.8955
2149.40 26.1538
2149.55 32.5005
2149.62 38.1634
2149.70 47.1424
2149.77 62.0831
2149.84 87.3997
2149.92 128.734
2150.00 155.143
2150.08 126.041
2150.16 84.0251
2150.21 64.5220
2150.26 51.5608
2150.37 36.5727
2150.47 29.0801
2150.58 24.9324
2150.68 22.4339
2150.79 20.8257
2151.00 18.9636
2151.21 17.9742
2151.42 17.3886
2151.84 16.7599
2152.26 16.4429
2152.68 16.2578
2153.10 16.1364
2153.52 16.0499
2154.35 15.9299
2155.19 15.8443
2156.87 15.7137
2158.55 15.6042
2160.23 15.5033
2163.58 15.3131
2166.94 15.1319
2170.30 14.9573
2177.01 14.6250
2190.44 14.0201
2203.86 13.4842
2257.57 11.8435
2311.27 10.7234
2364.97 9.90631
2418.68 9.27639
2472.38 8.76572
2499.23 8.54097
2526.08 8.33177
2539.51 8.23326
2552.93 8.14263
2559.65 8.10573
2563.00 8.09337
2566.36 8.09081
2569.72 8.11235
2571.40 8.14516
2573.07 8.21373
2573.91 8.27473
2574.75 8.36986
2575.59 8.52713
2576.43 8.81066
2576.85 9.04541
2577.27 9.39529
2577.69 9.95198
2578.11 10.9097
2578.53 12.7774
2578.74 14.4540
2578.95 17.1576
2579.16 21.9673
2579.26 25.8821
2579.37 31.6252
2579.47 40.4564
2579.58 54.7961
2579.68 79.4069
2579.79 122.186
2579.89 190.801
2580.00 235.759
2580.11 189.630
2580.22 121.575
2580.29 89.2017
2580.36 67.5850
2580.43 52.7686
2580.51 42.6846
2580.65 30.2240
2580.80 23.3059
2580.94 19.1220
2581.09 16.4170
2581.37 13.2728
2581.66 11.5808
2581.95 10.5733
2582.24 9.92610
2582.53 9.48735
2583.11 8.94399
2583.69 8.63439
2584.27 8.44060
2584.85 8.31085
2586.01 8.15187
2587.17 8.06041
2588.33 8.00143
2589.48 7.96009
2591.80 7.90446
2594.12 7.86664
2598.75 7.81233
2603.39 7.76927
2608.02 7.73053
2617.29 7.65786
2635.83 7.51660
2654.36 7.37261
2691.44 7.05985
2728.51 6.68331
2765.59 6.17751
2784.13 5.83588
2802.66 5.39432
2821.20 4.80376
2830.47 4.44064
2839.74 4.05442
2849.01 3.77893
2853.64 3.84456
2858.27 4.34194
2862.91 6.01058
2865.23 7.90431
2867.54 11.3648
2869.86 18.0295
2871.02 23.6478
2872.18 31.9417
2873.34 44.5722
2874.49 64.3875
2875.65 96.4107
2876.81 148.430
2878.41 263.755
2880.00 366.275
2881.60 325.094
2883.19 225.161
2884.17 176.868
2885.15 141.283
2887.12 96.3134
2889.08 71.1147
2891.04 55.8270
2893.00 45.8616
2894.97 38.9877
2898.89 30.3092
2902.82 25.1699
2906.74 21.8298
2914.59 17.8134
2922.44 15.5220
2930.29 14.0599
2946.00 12.3341
2961.70 11.4083
2969.55 11.1371
2977.40 11.0010
2981.32 11.0047
2985.25 11.0858
2989.17 11.2965
2993.10 11.7569
2995.06 12.1651
2997.03 12.7910
2998.99 13.7974
3000.95 15.5329
3002.91 18.8688
3003.89 21.8051
3004.88 26.4635
3005.86 34.4625
3006.84 49.6930
3007.33 62.8856
3007.82 83.0891
3008.31 115.321
3008.80 167.019
3009.40 261.206
3010.00 323.339
3010.60 258.802
3011.20 164.106
3011.62 118.911
3012.03 88.7886
3012.45 68.7013
3012.86 54.9860
3013.70 38.3661
3014.53 29.2511
3015.36 23.7727
3016.19 20.2498
3017.85 16.1667
3019.52 13.9846
3021.18 12.6850
3024.51 11.2731
3027.83 10.5539
3031.16 10.1304
3034.49 9.85373
3037.81 9.65853
3044.47 9.39711
3051.12 9.22399
3057.77 9.09551
3064.43 8.99280
3077.73 8.83174
3091.04 8.70529
3117.65 8.50919
3144.26 8.35830
3170.88 8.23631
3224.10 8.05050
3277.33 7.92297
3303.94 7.88179
3330.55 7.86403
3357.16 7.89409
3370.47 7.94970
3383.78 8.06890
3390.43 8.17515
3397.08 8.33991
3403.74 8.60928
3410.39 9.08559
3417.04 10.0350
3420.37 10.9034
3423.69 12.3360
3427.02 14.9375
3428.68 17.1047
3430.35 20.3574
3432.01 25.5192
3433.67 34.2658
3435.34 50.2327
3437.00 80.7628
3438.50 125.406
3440.00 155.359
3441.50 125.176
3443.00 80.5832
3444.55 51.6473
3446.10 35.8520
3447.65 26.9014
3449.19 21.5001
3450.74 18.0337
3452.29 15.6961
3455.39 12.8517
3458.49 11.2618
3461.58 10.2870
3467.78 9.20450
3473.97 8.64778
3480.16 8.32295
3486.36 8.11587
3492.55 7.97486
3504.94 7.79816
3517.33 7.69309
3542.10 7.57292
3566.88 7.50291
3591.65 7.45392
3641.20 7.38344
3690.75 7.33082
3715.52 7.30980
3740.30 7.29437
3765.07 7.29027
3777.46 7.29659
3789.85 7.31265
3802.24 7.34239
3808.43 7.36223
3814.62 7.38166
3820.82 7.38967
3823.91 7.38229
3827.01 7.36453
3830.11 7.35721
3831.66 7.39714
3833.20 7.55842
3834.75 8.12070
3835.53 8.82443
3836.30 10.2507
3837.08 13.4026
3837.46 16.4145
3837.85 21.4130
3838.24 30.2360
3838.62 47.0982
3838.82 61.4305
3839.01 82.5974
3839.20 114.824
3839.40 163.417
3839.70 280.306
3840.00 379.071
3840.30 330.806
3840.60 227.152
3840.80 174.740
3841.00 137.592
3841.40 92.5027
3841.80 68.3746
3842.20 54.2483
3842.60 45.2699
3843.00 39.2424
3843.79 31.8823
3844.59 27.7655
3845.39 25.2828
3846.98 22.7675
3848.58 21.9340
3850.17 22.0606
3853.36 24.4688
3856.55 30.2622
3859.73 42.3759
3861.33 53.1540
3862.92 69.8940
3864.52 96.8044
3866.11 140.466
3868.06 220.636
3870.00 274.395
3871.95 219.836
3873.89 139.541
3875.86 88.2293
3877.83 59.9143
3879.80 43.7264
3881.77 33.8861
3883.74 27.5340
3885.71 23.2276
3889.65 17.9524
3893.60 14.9772
3897.54 13.1368
3905.42 11.0682
3913.30 9.98656
3921.18 9.34588
3929.06 8.93230
3936.95 8.64809
3952.71 8.28992
3968.47 8.07847
4000.00 7.84749
4037.32 7.71403
4074.64 7.64494
4111.96 7.61001
4149.29 7.60011
4186.61 7.61957
4205.27 7.64841
4223.93 7.70402
4233.26 7.75069
4242.59 7.82065
4251.92 7.93216
4261.25 8.12688
4265.92 8.28501
4270.58 8.51913
4275.25 8.88919
4279.91 9.52989
4282.24 10.0453
4284.58 10.8000
4286.91 11.9731
4289.24 13.9467
4291.57 17.6708
4292.74 20.9161
4293.91 26.0344
4295.07 34.7736
4296.24 51.3281
4296.82 65.5946
4297.40 87.4215
4297.99 122.050
4298.57 177.479
4299.29 278.130
4300.00 343.669
4300.72 273.665
4301.43 172.005
4302.27 100.118
4303.10 63.8823
4303.94 44.5877
4304.77 33.4513
4305.61 26.5295
4306.44 21.9809
4308.12 16.5952
4309.79 13.6744
4311.46 11.9282
4314.80 10.0453
4318.14 9.11349
4321.49 8.59022
4324.83 8.26957
4328.17 8.06029
4334.85 7.81511
4341.54 7.68446
4348.22 7.60799
4354.91 7.56020
4368.28 7.50753
4381.65 7.48195
4408.38 7.46115
4435.12 7.45473
4461.86 7.45262
4515.34 7.44914
4568.81 7.43684
4622.29 7.40446
4649.03 7.37822
4662.39 7.36465
4675.76 7.35625
4689.13 7.36918
4695.82 7.39902
4702.50 7.46941
4705.84 7.53544
4709.19 7.64083
4712.53 7.81742
4715.87 8.13700
4717.54 8.40072
4719.21 8.79275
4720.88 9.41118
4722.56 10.4704
4724.23 12.5189
4725.06 14.3551
4725.90 17.3357
4726.73 22.6659
4727.15 27.0540
4727.57 33.5594
4727.99 43.7860
4728.40 60.9053
4728.82 91.6599
4729.24 149.011
4729.62 231.760
4730.00 284.380
4730.38 225.715
4730.76 141.779
4731.03 101.800
4731.29 75.3129
4731.55 57.6765
4731.81 45.6575
4732.34 31.1210
4732.87 23.2034
4733.39 18.4724
4733.92 15.4561
4734.97 11.9911
4736.03 10.1655
4737.08 9.09406
4739.18 7.95499
4741.29 7.39032
4743.39 7.06379
4745.50 6.85099
4747.60 6.69788
4751.82 6.47684
4756.03 6.30157
4764.45 5.96320
4772.87 5.56401
4777.08 5.33896
4781.29 5.13473
4785.50 5.10191
4787.60 5.30907
4789.71 5.93147
4791.82 7.58045
4792.87 9.26600
4793.92 12.1311
4794.97 17.2333
4796.03 26.8629
4796.55 34.8618
4797.08 46.4253
4797.60 63.3778
4798.13 88.1572
4799.07 156.131
4800.00 218.040
4800.94 196.202
4801.87 138.329
4802.64 101.922
4803.42 77.7309
4804.19 61.7243
4804.97 50.8108
4806.51 37.4525
4808.06 29.9062
4809.61 25.2003
4811.16 22.0427
4814.25 18.1469
4817.35 15.8807
4820.45 14.4196
4826.64 12.6717
4832.83 11.6772
4839.02 11.0434
4851.40 10.2942
4863.79 9.87725
4876.17 9.62094
4900.94 9.34636
4950.47 9.22201
5000.00 9.44041
5037.88 9.96335
5056.82 10.4895
5075.77 11.4192
5094.71 13.2739
5104.18 14.9751
5113.65 17.7926
5123.12 22.9359
5127.85 27.2428
5132.59 33.7359
5137.33 44.0916
5142.06 61.7676
5146.80 94.3408
5151.53 157.439
5155.77 250.142
5160.00 313.539
5164.24 251.877
5168.47 160.031
5171.73 112.440
5174.98 82.1251
5178.24 62.6622
5181.50 49.7542
5188.01 34.5559
5194.52 26.4298
5201.03 21.6293
5207.54 18.5732
5220.57 15.0626
5233.59 13.2074
5246.62 12.1147
5272.66 10.9575
5298.71 10.4048
5324.76 10.1142
5376.86 9.87970
5428.95 9.86779
5481.05 10.0267
5507.10 10.2244
5520.12 10.3939
5533.14 10.6652
5546.17 11.1615
5552.68 11.5959
5559.19 12.3012
5565.70 13.5838
5568.96 14.6705
5572.22 16.3420
5575.47 19.1001
5578.73 24.0782
5580.36 28.1590
5581.98 34.1056
5583.61 42.9737
5585.24 56.2032
5587.62 84.2231
5590.00 103.230
5592.38 84.7603
5594.76 57.0033
5597.02 39.9928
5599.27 30.2192
5601.53 24.4709
5603.78 20.9179
5608.29 17.0460
5612.80 15.1672
5617.31 14.1694
5621.82 13.6231
5630.85 13.2183
5648.89 13.7337
5666.93 15.5735
5684.97 19.5438
5703.02 28.4568
5712.04 37.0757
5721.06 51.4639
5730.08 76.5861
5739.10 121.390
5749.55 208.757
5760.00 287.341
5770.45 258.137
5780.90 183.984
5787.85 145.535
5794.80 117.928
5808.70 84.4113
5822.60 66.6379
5836.50 56.5455
5864.30 47.1620
5892.10 45.0828
5919.90 48.3378
5933.80 52.5618
5947.70 59.6666
5961.60 71.8080
5975.50 94.0559
5982.45 112.522
5989.40 139.867
5996.35 181.631
6003.30 245.327
6011.65 347.516
6020.00 383.816
6028.35 268.338
6036.70 148.418
6043.13 94.3616
6049.55 62.9535
6055.97 44.4092
6062.40 33.0743
6075.25 21.1912
6088.10 15.8733
6100.94 13.3082
6113.79 12.0298
6139.49 11.1261
6165.19 11.0789
6190.89 11.3200
6242.28 12.0430
6293.68 12.8277
6345.07 13.6351
6370.77 14.0752
6383.62 14.3236
6396.47 14.6170
6409.31 15.0166
6415.74 15.3097
6422.16 15.7470
6428.59 16.5174
6431.80 17.1849
6435.01 18.2690
6438.22 20.2519
6439.83 21.9446
6441.44 24.5709
6443.04 28.9616
6444.65 37.0568
6445.45 43.8452
6446.25 53.9614
6447.06 69.4815
6447.86 93.3744
6448.93 139.654
6450.00 169.693
6451.07 137.415
6452.14 90.6505
6453.19 61.4286
6454.25 45.0830
6455.30 35.6727
6456.36 29.9397
6457.41 26.2412
6458.46 23.7446
6460.57 20.7149
6462.68 19.0387
6464.78 18.0295
6469.00 16.9499
6473.21 16.4376
6477.43 16.1737
6485.86 15.9651
6494.28 15.9347
6502.71 15.9770
6519.57 16.1493
6536.43 16.3676
6553.29 16.6021
6587.00 17.0765
6620.72 17.5043
6654.43 17.7554
6671.29 17.6984
6679.72 17.5713
6688.15 17.3351
6696.57 16.9433
6700.79 16.6840
6705.00 16.4198
6709.22 16.3206
6711.33 16.5188
6713.43 17.1949
6715.54 19.0563
6716.59 20.9720
6717.65 24.2099
6718.70 29.8863
6719.75 40.2910
6720.81 60.4365
6721.86 100.612
6722.93 174.434
6724.00 245.605
6725.07 227.466
6726.14 167.060
6727.32 117.828
6728.50 88.9268
6729.69 71.6223
6730.87 60.6466
6732.05 53.2596
6733.23 48.0501
6735.59 41.3199
6737.96 37.2597
6740.32 34.5988
6745.04 31.4098
6749.77 29.6375
6754.49 28.5651
6763.95 27.4573
6773.40 27.0483
6782.85 27.0157
6801.75 27.6856
6820.65 29.3340
6830.10 30.7351
6839.56 32.8637
6849.01 36.4404
6853.73 39.3203
6858.46 43.6586
6863.18 50.8886
6865.55 56.6134
6867.91 65.0006
6870.27 78.2417
6872.64 101.371
6873.82 120.166
6875.00 147.687
6876.18 189.353
6877.36 251.905
6878.68 338.615
6879.34 364.478
6880.00 353.875
6881.32 236.195
6882.64 124.383
6883.56 79.5217
6884.47 52.9390
6885.39 37.1382
6886.31 27.5622
6887.23 21.6407
6888.14 17.9244
6889.98 14.1045
6891.81 12.6705
6893.64 12.2963
6897.31 12.7608
6900.98 13.6977
6904.65 14.6711
6911.98 16.3738
6919.32 17.7198
6926.65 18.7950
6941.32 20.4247
6955.99 21.6448
6970.66 22.6365
7000.00 24.2626
7036.74 25.9946
7073.48 27.6105
7146.95 30.8542
7293.90 38.3372
7389.05 44.3700
7484.20 51.7391
7531.77 56.0995
7555.56 58.5216
7579.34 61.1899
7603.13 64.2970
7615.02 66.1772
7626.92 68.5112
7638.81 71.7954
7644.76 74.1622
7650.70 77.4691
7656.65 82.4975
7662.60 90.9540
7668.54 106.909
7671.52 120.387
7674.49 139.966
7679.25 187.300
7684.00 246.853
7684.56 255.875
7686.28 291.748
7688.00 319.894
7691.44 241.805
7693.51 194.838
7696.77 152.363
7700.03 129.403
7703.29 115.706
7706.56 106.971
7713.08 97.1024
7719.60 92.1972
7726.12 89.6297
7732.65 88.3074
7745.69 87.5692
7758.74 88.0994
7771.78 89.2609
7797.87 92.5607
7850.05 101.112
7902.23 111.268
7954.41 122.761
8006.59 135.544
8032.68 142.437
8045.73 146.034
8058.77 149.774
8071.82 153.765
8078.34 155.954
8084.86 158.422
8091.38 161.520
8094.64 163.588
8097.91 166.398
8101.17 170.741
8102.80 174.044
8104.43 178.752
8106.06 185.915
8107.69 197.626
8109.32 218.335
8110.95 256.654
8112.48 313.931
8114.00 353.298
8115.53 317.171
8117.05 261.434
8118.72 223.227
8120.39 203.062
8122.05 192.067
8123.72 185.707
8125.39 181.838
8127.06 179.403
8130.39 176.843
8133.73 175.854
8137.06 175.633
8143.74 176.278
8150.41 177.586
8157.08 179.191
8170.42 182.799
8197.10 190.575
8223.79 198.533
8330.53 228.419
8544.00 253.871
8568.53 252.331
8593.06 249.797
8605.32 248.302
8611.45 247.639
8617.58 247.254
8623.72 247.659
8629.85 250.428
8632.91 254.135
8635.98 261.526
8639.05 276.775
8642.11 308.979
8645.06 366.460
8648.00 422.021
8650.95 407.389
8653.89 359.499
8656.39 327.753
8658.88 306.398
8661.38 292.076
8663.87 282.139
8668.86 269.561
8673.85 261.994
8678.84 256.879
8683.83 253.097
8693.81 247.605
8713.77 240.011
8733.73 233.938
8773.65 222.879
8813.57 212.080
8893.40 190.711
8933.32 180.421
8943.30 177.957
8948.29 176.763
8953.28 175.620
8958.27 174.578
8960.77 174.137
8963.26 173.812
8965.76 173.737
8967.00 173.904
8968.25 174.359
8969.50 175.425
8970.12 176.426
8970.75 178.041
8971.37 180.820
8971.99 186.044
8972.30 190.498
8972.62 197.227
8972.93 207.725
8973.24 224.080
8973.62 252.424
8974.00 267.905
8974.38 244.168
8974.76 213.732
8975.16 194.449
8975.57 184.369
8975.97 178.862
8976.37 175.628
8976.77 173.595
8977.17 172.241
8977.98 170.598
8978.78 169.655
8979.59 169.037
8981.19 168.233
8982.80 167.671
8984.41 167.203
8987.62 166.376
8994.06 164.835
9000.49 163.324
9013.35 160.326
9026.21 157.363
9077.66 145.982
9180.56 125.943
9232.01 117.511
9283.46 110.694
9309.19 108.489
9322.05 108.030
9334.91 108.366
9347.77 110.140
9360.64 114.808
9367.07 119.216
9373.50 126.071
9379.93 136.790
9386.36 153.294
9395.18 185.625
9404.00 203.509
9412.82 174.859
9421.64 138.356
9427.34 122.394
9433.04 111.478
9444.44 98.5344
9455.84 91.4523
9467.24 86.9581
9490.03 81.1627
9512.83 77.0281
9535.63 73.4944
9558.43 70.3430
9569.82 69.1794
9581.22 69.2672
9586.92 70.8005
9592.62 75.2229
9595.47 79.7792
9598.32 87.3939
9601.17 100.314
9604.02 122.203
9608.01 174.531
9612.00 227.153
9615.99 216.651
9619.98 174.340
9622.70 150.503
9625.42 132.961
9630.86 110.946
9636.30 98.5548
9641.75 90.8796
9652.63 82.0118
9663.51 77.0104
9685.28 71.3899
9707.04 68.3036
9728.81 66.7817
9750.57 67.1575
9772.34 71.2751
9783.22 76.2694
9794.10 85.0570
9805.11 100.313
9819.56 132.842
9834.00 158.293
9848.45 138.641
9862.89 104.841
9878.13 80.5381
9893.37 65.7462
9908.61 55.9235
9923.85 48.6729
9939.08 43.1634
9954.32 40.5015
9961.94 42.0667
9969.56 48.8829
9977.18 68.4578
9980.99 88.2929
9984.80 120.035
9988.35 164.890
9991.90 226.575
9999.00 356.720
9999.99 367.338
10000.0 7.66331
12500.0 7.64335
15000.0 7.64578
17000.0 7.65683
20000.0 7.68215
25000.0 7.73621
30000.0 7.79595
35000.0 7.85658
40000.0 7.91597
50000.0 8.02779
60000.0 8.12883
70000.0 8.21928
80000.0 8.30001
90000.0 8.37205
100000 8.43632
125000 8.56834
150000 8.66727
170000 8.72757
200000 8.79296
204780 8.80099
204780 8.79832
204802 8.79829
300000 9.25689
400000 9.22758
689682 8.18641
750000 7.97001
785485 7.83020
900000 7.53199
950000 7.39620
964369 7.34951
1.00000E+06 7.27880
1.01000E+06 7.25501
1.02000E+06 7.23052
1.03000E+06 7.20928
1.04000E+06 7.18822
1.05000E+06 7.16667
1.05926E+06 7.14570
1.06000E+06 7.14436
1.07000E+06 7.12496
1.08000E+06 7.10412
1.09000E+06 7.08211
1.10000E+06 7.06054
1.11000E+06 7.03838
1.13000E+06 6.99280
1.14000E+06 6.96932
1.15000E+06 6.94915
1.16000E+06 6.92858
1.17000E+06 6.90795
1.20000E+06 6.84394
1.20326E+06 6.83691
1.22529E+06 6.79203
1.30000E+06 6.69029
1.31277E+06 6.67019
1.38664E+06 6.57188
1.50000E+06 6.50208
1.55000E+06 6.48757
1.60000E+06 6.44414
1.63000E+06 6.45251
1.65000E+06 6.43389
1.69000E+06 6.40470
1.70000E+06 6.43823
1.75000E+06 6.40097
1.80000E+06 6.40357
1.85000E+06 6.37508
1.90000E+06 6.38331
1.95000E+06 6.38609
2.00000E+06 6.36437
2.01000E+06 6.36003
2.02000E+06 6.35568
2.04000E+06 6.37326
2.06000E+06 6.36419
2.08000E+06 6.35512
2.10000E+06 6.34605
2.50000E+06 6.27613
2.60000E+06 6.25098
2.70000E+06 6.21924
2.80000E+06 6.18146
2.90000E+06 6.14649
3.00000E+06 6.10686
3.50000E+06 5.91131
4.00000E+06 5.74597
4.91958E+06 5.63128
5.00000E+06 5.62125
6.00000E+06 5.71496
6.23518E+06 5.75054
6.93393E+06 5.85627
6.93393E+06 5.85627
7.00000E+06 5.86627
7.65493E+06 5.83066
8.00000E+06 5.81189
9.00000E+06 5.53794
1.00000E+07 5.23577
1.10000E+07 4.96541
1.20000E+07 4.72661
1.30000E+07 4.51415
1.40000E+07 4.31977
1.40843E+07 4.30680
1.40843E+07 4.30679
1.49822E+07 4.16858
1.50000E+07 4.16584
1.60000E+07 4.02122
1.70000E+07 3.88662
1.80000E+07 3.77321
1.85387E+07 3.71239
1.85387E+07 3.71239
1.90000E+07 3.66031
2.00000E+07 3.55463