Zr-91(n,tot) ENDF/B-VII.1
Energy(eV) XS(b)
1.00000E-05 71.0099
1.25000E-05 64.5539
1.50000E-05 59.7883
2.00000E-05 53.0988
2.75000E-05 46.7339
3.50000E-05 42.5449
4.25000E-05 39.5208
5.00000E-05 37.2058
6.25000E-05 34.3185
7.50000E-05 32.1873
0.000100000 29.1957
0.000125000 27.1541
0.000150000 25.6471
0.000200000 23.5317
0.000275000 21.5189
0.000350000 20.1942
0.000425000 19.2379
0.000500000 18.5058
0.000625000 17.5928
0.000750000 16.9188
0.00100000 15.9728
0.00125000 15.3272
0.00150000 14.8506
0.00200000 14.1817
0.00275000 13.5452
0.00350000 13.1263
0.00425000 12.8238
0.00500000 12.5923
0.00625000 12.3036
0.00750000 12.0904
0.0100000 11.7912
0.0125000 11.5870
0.0150000 11.4363
0.0200000 11.2247
0.0253000 11.0730
0.0314750 10.9472
0.0376500 10.8537
0.0500000 10.7217
0.0625000 10.6303
0.0750000 10.5627
0.100000 10.4678
0.125000 10.4030
0.150000 10.3551
0.200000 10.2876
0.275000 10.2231
0.350000 10.1804
0.500000 10.1254
0.750000 10.0725
1.00000 10.0398
1.50000 9.99901
2.00000 9.97254
2.75000 9.94450
3.50000 9.92339
5.00000 9.89090
7.50000 9.84930
10.0000 9.81442
15.0000 9.75319
20.0000 9.69747
27.5000 9.61918
35.0000 9.54478
50.0000 9.40330
75.0000 9.18041
100.000 8.96491
129.637 8.70757
144.456 8.57397
151.865 8.50619
153.717 8.48998
155.569 8.47596
156.496 8.47193
156.959 8.47217
157.422 8.47602
157.885 8.48848
158.116 8.50223
158.348 8.52744
158.580 8.57831
158.695 8.62457
158.811 8.69971
158.927 8.83250
159.043 9.09556
159.100 9.33238
159.158 9.70996
159.216 10.3417
159.274 11.4161
159.337 13.2036
159.400 14.3947
159.463 13.2030
159.526 11.4145
159.569 10.5582
159.613 9.98331
159.656 9.59667
159.699 9.33086
159.785 9.00591
159.872 8.82613
159.958 8.71724
160.045 8.64674
160.218 8.56397
160.391 8.51891
160.563 8.49142
160.909 8.46025
161.255 8.44307
161.601 8.43189
162.292 8.41717
163.676 8.39810
165.059 8.38313
167.825 8.35704
170.592 8.33510
173.358 8.32206
174.741 8.32396
176.124 8.33997
176.816 8.35877
177.508 8.39166
178.199 8.45074
178.891 8.56454
179.237 8.66273
179.582 8.81415
179.928 9.06332
180.274 9.51324
180.447 9.88706
180.620 10.4489
180.793 11.3486
180.966 12.9201
181.138 16.0382
181.225 18.8959
181.311 23.6261
181.398 32.2922
181.441 39.5702
181.484 50.5923
181.527 68.2888
181.571 98.8203
181.614 155.966
181.657 268.723
181.694 423.756
181.730 526.591
181.767 423.833
181.803 268.827
181.839 170.766
181.874 115.007
181.910 82.3350
181.945 62.2337
181.981 49.1077
182.016 40.1788
182.087 29.1834
182.159 22.9776
182.230 19.1508
182.372 14.8883
182.514 12.6953
182.656 11.4228
182.798 10.6197
182.940 10.0808
183.225 9.42381
183.509 9.05354
183.793 8.82381
184.078 8.67103
184.646 8.48549
185.215 8.37990
185.784 8.31276
186.352 8.26639
187.490 8.20563
188.627 8.16587
190.902 8.11150
193.176 8.07020
195.451 8.03364
200.000 7.96475
209.991 7.80977
219.982 7.63499
224.977 7.53745
229.972 7.43436
232.470 7.38470
233.719 7.36357
234.968 7.34971
236.217 7.35519
236.841 7.37612
237.465 7.42671
238.090 7.54932
238.402 7.67463
238.714 7.89933
239.026 8.35202
239.183 8.76870
239.339 9.45936
239.495 10.7194
239.573 11.7748
239.651 13.3630
239.729 15.8974
239.807 20.2172
239.885 28.1843
239.963 43.5523
240.032 65.3677
240.100 79.9059
240.169 65.3788
240.237 43.5637
240.288 32.4878
240.338 25.2611
240.389 20.5352
240.439 17.3587
240.541 13.5708
240.642 11.5242
240.743 10.3054
240.844 9.52653
241.046 8.62604
241.249 8.14567
241.451 7.85884
241.856 7.54523
242.260 7.38315
242.665 7.28559
243.474 7.17198
244.283 7.10337
245.092 7.05283
246.711 6.97281
249.948 6.83426
253.184 6.69386
259.658 6.37302
266.132 5.97524
269.368 5.74427
272.605 5.50052
275.842 5.27684
279.079 5.18698
280.697 5.29621
282.316 5.65818
283.934 6.56408
285.552 8.74942
286.362 10.8820
287.171 14.4175
287.980 20.5971
288.789 32.2701
289.194 42.1589
289.598 57.0725
290.003 80.7333
290.408 120.879
290.812 195.578
291.015 258.729
291.217 354.230
291.419 506.312
291.621 763.905
291.824 1230.14
292.026 2106.87
292.218 3461.04
292.410 4442.43
292.602 3653.33
292.794 2348.86
292.947 1626.10
293.100 1162.90
293.253 864.369
293.405 665.893
293.711 430.781
294.017 303.786
294.323 227.853
294.628 178.866
295.240 121.426
295.851 90.0963
296.462 70.9939
297.074 58.4008
297.685 49.6066
298.908 38.3363
300.131 31.5626
301.354 27.1163
302.576 24.0080
305.022 19.9971
307.468 17.5524
309.913 15.9217
312.359 14.7627
317.250 13.2320
322.141 12.2698
327.032 11.6093
331.924 11.1270
341.706 10.4661
351.488 10.0298
361.271 9.71556
371.053 9.47486
390.618 9.12125
410.183 8.86347
429.748 8.65901
434.639 8.61445
439.530 8.57447
441.976 8.55905
443.198 8.55458
444.421 8.55531
445.033 8.55956
445.644 8.56882
446.255 8.58722
446.867 8.62441
447.172 8.65693
447.478 8.70704
447.784 8.78875
448.090 8.93335
448.395 9.22286
448.548 9.48935
448.701 9.93192
448.854 10.7446
448.930 11.4291
449.007 12.4679
449.083 14.1409
449.159 17.0396
449.236 22.5009
449.312 33.3857
449.376 48.3255
449.440 58.2850
449.504 48.3289
449.568 33.3894
449.617 25.5405
449.666 20.5197
449.716 17.2921
449.765 15.1554
449.863 12.6387
449.962 11.2959
450.060 10.5044
450.159 10.0016
450.356 9.42497
450.553 9.12012
450.750 8.93968
450.947 8.82397
451.144 8.74518
451.538 8.64730
451.932 8.59046
452.326 8.55395
452.720 8.52867
453.508 8.49571
454.296 8.47455
455.872 8.44678
457.448 8.42698
459.024 8.41043
462.176 8.38140
468.480 8.32920
474.784 8.27984
500.000 8.09151
545.237 7.74751
567.856 7.54873
590.475 7.30537
613.093 6.97095
624.403 6.73804
635.712 6.42408
641.367 6.21936
647.021 5.96715
652.676 5.64887
658.330 5.23949
661.158 4.99336
663.985 4.72199
666.812 4.44642
669.640 4.25025
671.053 4.26221
672.467 4.46573
673.881 5.09180
675.294 6.72191
676.001 8.35233
676.708 11.0733
677.415 15.8214
678.122 24.6831
678.475 32.0674
678.829 42.9929
679.182 59.8611
679.535 87.3603
679.889 135.498
680.242 228.086
680.419 307.889
680.596 428.980
680.772 618.024
680.949 914.634
681.190 1526.71
681.430 1991.06
681.671 1662.10
681.911 1084.23
682.117 740.380
682.322 525.258
682.528 389.577
682.734 300.645
683.145 196.662
683.557 140.982
683.968 107.740
684.379 86.2576
685.202 60.9260
686.025 46.9573
686.848 38.3385
687.670 32.5870
688.493 28.5225
690.138 23.2290
691.784 19.9805
693.429 17.8082
695.075 16.2639
698.366 14.2288
701.657 12.9565
704.948 12.0896
708.239 11.4620
714.821 10.6143
721.402 10.0673
727.984 9.68323
734.566 9.39725
747.730 8.99553
760.894 8.72186
787.221 8.35980
813.549 8.11766
839.877 7.93423
853.040 7.85631
859.622 7.82026
866.204 7.78644
872.786 7.75604
876.077 7.74334
879.368 7.73435
881.014 7.73260
882.659 7.73435
884.305 7.74259
885.950 7.76433
886.773 7.78541
887.595 7.81967
888.418 7.87824
889.241 7.98705
889.652 8.07897
890.064 8.21867
890.475 8.44493
890.886 8.84552
891.092 9.17252
891.298 9.65591
891.503 10.4129
891.709 11.6933
891.915 14.1133
892.018 16.2184
892.120 19.5154
892.223 25.0797
892.326 35.3933
892.378 44.0649
892.429 56.9964
892.480 76.8285
892.532 107.326
892.601 167.201
892.670 207.053
892.739 167.131
892.808 107.356
892.861 76.3827
892.913 56.4415
892.965 43.5038
893.018 34.8922
893.122 24.6952
893.227 19.2271
893.332 15.9943
893.437 13.9365
893.646 11.5744
893.855 10.3249
894.065 9.58692
894.274 9.11506
894.483 8.79550
894.902 8.40239
895.321 8.17883
895.739 8.03930
896.158 7.94614
896.996 7.83262
897.833 7.76788
898.670 7.72676
899.508 7.69844
901.183 7.66164
902.858 7.63797
904.533 7.62060
906.207 7.60664
909.557 7.58401
912.907 7.56492
919.606 7.53125
926.306 7.50027
933.005 7.47060
946.404 7.41344
973.202 7.30381
1000.00 7.19732
1065.76 6.93681
1131.53 6.65956
1197.29 6.34156
1263.05 5.94803
1328.81 5.41842
1361.69 5.07123
1394.58 4.64859
1411.02 4.40929
1427.46 4.16332
1443.90 3.94806
1460.34 3.88204
1468.56 4.00698
1476.78 4.37613
1485.00 5.24312
1493.22 7.20303
1497.33 9.01158
1501.44 11.8557
1505.55 16.4954
1509.66 24.4574
1513.77 39.1084
1515.83 51.1696
1517.88 68.7910
1519.94 95.4182
1521.99 137.142
1524.05 204.689
1526.10 314.983
1531.40 720.544
1531.79 726.347
1532.17 728.339
1532.37 730.616
1532.56 739.137
1532.66 749.992
1532.75 771.207
1532.85 814.968
1532.94 907.804
1533.02 1036.65
1533.10 1119.58
1533.18 1025.80
1533.26 889.918
1533.31 823.449
1533.37 777.651
1533.47 722.677
1533.58 691.624
1533.69 671.145
1533.90 642.543
1534.12 620.357
1534.55 581.452
1534.98 545.012
1536.70 414.467
1538.33 319.576
1539.96 250.628
1543.21 164.902
1546.47 117.718
1549.72 89.5242
1552.98 71.4139
1556.23 59.0809
1562.74 43.7605
1569.25 34.8735
1575.76 29.1959
1588.78 22.5075
1601.80 18.7770
1614.82 16.4322
1627.84 14.8344
1640.86 13.6802
1666.90 12.1287
1692.94 11.1339
1718.98 10.4392
1745.02 9.92337
1797.10 9.19853
1823.15 8.92960
1849.19 8.70084
1875.23 8.50312
1888.25 8.41457
1901.27 8.33354
1914.29 8.26344
1920.80 8.23599
1927.31 8.21956
1930.56 8.21931
1933.82 8.22917
1937.07 8.25752
1940.33 8.32411
1941.95 8.38610
1943.58 8.48485
1945.21 8.65107
1946.84 8.95517
1947.65 9.20942
1948.46 9.59246
1949.28 10.2064
1950.09 11.2767
1950.91 13.3980
1951.31 15.3358
1951.72 18.5378
1952.13 24.3717
1952.33 29.2695
1952.53 36.6202
1952.74 48.4169
1952.94 68.5117
1953.14 105.650
1953.35 177.765
1953.52 279.827
1953.70 347.893
1953.88 279.597
1954.05 177.500
1954.22 114.129
1954.39 77.8756
1954.56 56.6218
1954.73 43.5337
1954.90 34.9335
1955.07 29.0875
1955.41 21.8575
1955.75 17.7669
1956.09 15.2402
1956.77 12.4200
1957.45 10.9664
1958.12 10.1232
1958.80 9.59021
1959.48 9.23168
1960.84 8.79319
1962.19 8.54461
1963.55 8.38892
1964.91 8.28430
1967.62 8.15460
1970.33 8.07818
1973.05 8.02782
1975.76 7.99209
1981.18 7.94605
1986.61 7.92565
1989.32 7.92892
1992.04 7.95498
1993.39 7.99290
1994.07 8.02936
1994.75 8.09336
1995.43 8.22342
1995.77 8.34717
1996.10 8.56263
1996.44 8.99041
1996.61 9.38484
1996.78 10.0372
1996.95 11.2456
1997.04 12.2693
1997.12 13.8085
1997.21 16.3260
1997.29 20.7243
1997.38 29.1063
1997.42 36.0117
1997.46 45.7853
1997.53 68.7616
1997.60 84.2871
1997.67 69.1829
1997.74 46.3138
1997.81 31.4778
1997.88 23.2273
1997.95 18.4960
1998.02 15.6459
1998.09 13.7748
1998.16 12.5219
1998.31 10.9749
1998.45 10.1005
1998.59 9.56750
1998.87 8.97612
1999.15 8.67455
1999.44 8.50371
2000.00 8.33279
2000.75 8.25054
2001.49 8.23459
2002.99 8.29810
2004.48 8.46877
2005.97 8.80942
2006.72 9.09958
2007.47 9.53796
2008.21 10.2419
2008.96 11.4661
2009.71 13.8781
2010.08 16.0613
2010.45 19.6345
2010.82 26.0496
2011.01 31.3541
2011.20 39.1884
2011.38 51.4999
2011.57 71.8317
2011.76 108.044
2011.94 174.100
2012.12 274.579
2012.30 341.211
2012.48 274.074
2012.66 174.247
2012.84 109.236
2013.02 73.4103
2013.20 52.8042
2013.38 40.3492
2013.57 32.2798
2013.75 26.8480
2014.11 20.2131
2014.47 16.4829
2014.83 14.1938
2015.56 11.6557
2016.29 10.3527
2017.01 9.59797
2017.74 9.12099
2018.46 8.79997
2019.91 8.40650
2021.36 8.18232
2022.81 8.04092
2024.26 7.94502
2027.16 7.82405
2030.06 7.75039
2032.97 7.69959
2035.87 7.66120
2041.67 7.60369
2047.47 7.55905
2059.08 7.48561
2070.68 7.42084
2082.28 7.35952
2105.49 7.24034
2128.70 7.12118
2151.91 6.99902
2198.33 6.73627
2244.75 6.43035
2291.17 6.04655
2314.37 5.80664
2337.58 5.51767
2349.19 5.34934
2354.99 5.25862
2360.79 5.16433
2366.60 5.06983
2369.50 5.02609
2372.40 4.99089
2375.30 4.98018
2376.75 4.99871
2378.20 5.05717
2378.93 5.11674
2379.65 5.21517
2380.38 5.38483
2381.10 5.69961
2381.46 5.96405
2381.83 6.36217
2382.19 6.99754
2382.55 8.09263
2382.91 10.2263
2383.10 12.1277
2383.28 15.1905
2383.46 20.5985
2383.64 31.2158
2383.73 40.7918
2383.82 55.8369
2383.91 81.1886
2384.00 123.724
2384.10 195.770
2384.20 243.291
2384.30 195.183
2384.40 123.954
2384.49 82.8603
2384.57 57.9783
2384.66 42.7056
2384.74 33.0214
2384.91 21.9209
2385.08 16.1817
2385.26 12.8509
2385.43 10.7777
2385.77 8.42832
2386.11 7.19659
2386.45 6.47436
2386.80 6.01139
2387.14 5.69746
2387.82 5.30633
2388.51 5.07782
2389.19 4.92950
2389.88 4.82518
2391.25 4.68527
2392.62 4.59093
2395.36 4.45703
2398.10 4.35100
2400.84 4.25426
2406.32 4.06603
2417.28 3.66792
2428.24 3.23402
2439.19 2.86047
2444.67 2.83067
2450.15 3.16641
2452.89 3.64719
2455.63 4.55274
2458.37 6.24092
2461.11 9.46641
2462.48 12.1345
2463.85 15.9997
2465.22 21.7461
2466.59 30.5589
2467.96 44.6271
2469.33 68.0928
2470.70 109.010
2472.07 181.741
2473.64 319.972
2475.20 439.579
2476.77 385.951
2478.33 264.361
2479.28 206.849
2480.23 164.445
2482.13 110.876
2484.04 80.8690
2485.94 62.6875
2487.84 50.8566
2489.74 42.7117
2493.54 32.4564
2497.35 26.4030
2501.15 22.4775
2508.76 17.7617
2516.36 15.0626
2523.97 13.3229
2539.18 11.2013
2554.40 9.92641
2569.61 9.03955
2600.04 7.76935
2630.46 6.72391
2645.68 6.20667
2660.89 5.69527
2676.10 5.30968
2683.71 5.32249
2691.31 5.77611
2698.92 7.46706
2702.72 9.47947
2706.53 13.3067
2710.33 21.0877
2712.23 27.9928
2714.13 38.7061
2716.04 56.0972
2717.94 85.8119
2719.84 139.498
2721.74 239.280
2723.72 414.054
2725.70 560.771
2727.68 486.912
2729.66 330.618
2731.33 234.729
2733.00 172.841
2734.67 132.813
2736.34 106.020
2739.67 73.9060
2743.01 56.2011
2746.35 45.3862
2749.69 38.3032
2751.36 35.6728
2753.02 33.5364
2753.86 32.6727
2754.69 32.0474
2755.11 31.9457
2755.32 32.0272
2755.53 32.2964
2755.74 32.9703
2755.84 33.6181
2755.94 34.6806
2756.05 36.5505
2756.15 40.0655
2756.21 43.0505
2756.26 47.5255
2756.31 54.4177
2756.36 65.0497
2756.43 85.9192
2756.50 99.4956
2756.57 85.4510
2756.64 64.7970
2756.69 55.1193
2756.73 48.6181
2756.82 41.0129
2756.91 37.0676
2757.00 34.8565
2757.09 33.4769
2757.18 32.5767
2757.36 31.4878
2757.54 30.8774
2757.73 30.4989
2758.09 30.0854
2758.81 29.9229
2759.53 30.4735
2760.26 32.2572
2760.62 34.1097
2760.98 37.2839
2761.34 43.1350
2761.70 55.1471
2761.89 66.2303
2762.07 84.2893
2762.25 115.335
2762.43 169.617
2762.61 257.063
2762.80 315.131
2762.99 256.707
2763.17 169.654
2763.37 112.250
2763.56 80.8120
2763.75 62.8018
2763.94 51.9187
2764.14 44.8546
2764.33 40.0756
2764.71 34.1626
2765.10 30.7713
2765.48 28.6201
2766.25 26.0757
2767.02 24.6077
2767.79 23.6235
2769.33 22.3090
2770.87 21.3933
2772.41 20.6699
2775.49 19.5240
2778.57 18.6115
2781.65 17.8475
2787.81 16.6192
2800.12 14.8998
2812.44 13.7448
2824.76 12.9130
2837.07 12.2843
2861.71 11.3934
2886.34 10.7886
2910.97 10.3478
2960.24 9.74137
3009.50 9.33721
3034.14 9.18051
3058.77 9.04591
3083.40 8.93110
3095.72 8.88198
3108.03 8.84110
3114.19 8.82571
3120.35 8.81624
3126.51 8.81719
3132.67 8.83939
3135.75 8.86639
3138.82 8.91391
3141.90 8.99933
3144.98 9.16342
3146.52 9.30458
3148.06 9.52138
3149.60 9.87673
3151.14 10.5138
3151.91 11.0399
3152.68 11.8259
3153.45 13.0738
3154.22 15.2232
3154.99 19.4096
3155.37 23.1642
3155.76 29.2467
3156.14 40.0049
3156.34 48.7662
3156.53 61.5181
3156.72 81.1575
3156.91 112.711
3157.11 166.390
3157.30 259.899
3157.50 411.033
3157.70 511.921
3157.90 411.070
3158.10 259.990
3158.32 156.025
3158.55 101.366
3158.77 71.1905
3158.99 53.2968
3159.21 41.9702
3159.43 34.4016
3159.87 25.2882
3160.31 20.2382
3160.76 17.1737
3161.64 13.7992
3162.53 12.0817
3163.41 11.0928
3164.29 10.4709
3165.18 10.0543
3166.95 9.54697
3168.71 9.26069
3170.48 9.08219
3172.25 8.96269
3175.79 8.81540
3179.33 8.72914
3182.86 8.67229
3186.40 8.63136
3193.47 8.57424
3200.55 8.53366
3207.62 8.50119
3214.70 8.47328
3228.85 8.42501
3242.99 8.38243
3271.29 8.30641
3299.59 8.23784
3327.88 8.17436
3384.48 8.05828
3441.07 7.95225
3497.66 7.85238
3525.96 7.80387
3554.26 7.75657
3568.41 7.73432
3582.56 7.71593
3589.63 7.71177
3596.70 7.72108
3600.24 7.74333
3602.01 7.76770
3603.78 7.81338
3605.55 7.91103
3606.43 8.00652
3607.31 8.17599
3607.76 8.31512
3608.20 8.52121
3608.64 8.84598
3609.08 9.40131
3609.53 10.4691
3609.75 11.4159
3609.97 12.9324
3610.19 15.5726
3610.41 20.7253
3610.52 25.3220
3610.63 32.4895
3610.74 44.3901
3610.85 64.0834
3610.98 97.8411
3611.10 119.938
3611.23 97.2302
3611.35 63.4586
3611.47 42.2886
3611.59 30.3024
3611.72 23.3327
3611.84 19.0747
3611.96 16.2817
3612.08 14.3940
3612.32 12.0646
3612.57 10.7520
3612.81 9.94398
3613.30 9.04560
3613.78 8.58471
3614.27 8.31890
3615.24 8.03993
3616.21 7.90447
3617.19 7.82902
3619.13 7.75283
3621.08 7.71821
3623.02 7.70137
3626.91 7.69516
3630.80 7.72299
3632.75 7.76058
3634.69 7.83491
3635.66 7.89950
3636.64 7.99910
3637.61 8.16306
3638.58 8.45810
3639.07 8.70310
3639.55 9.06960
3640.04 9.65388
3640.53 10.6680
3641.01 12.6595
3641.25 14.4631
3641.50 17.4158
3641.74 22.7200
3641.86 27.1169
3641.98 33.5972
3642.11 43.8220
3642.23 60.6833
3642.35 90.8616
3642.47 145.855
3642.59 229.036
3642.70 283.801
3642.82 228.377
3642.93 145.399
3643.04 95.0891
3643.15 66.0206
3643.25 48.6684
3643.36 37.7870
3643.58 25.6778
3643.79 19.5489
3644.00 16.0563
3644.22 13.8882
3644.65 11.4567
3645.07 10.1971
3645.50 9.46536
3645.93 9.00206
3646.36 8.69028
3647.22 8.30915
3648.07 8.09400
3648.93 7.96025
3649.78 7.87115
3651.50 7.76273
3653.21 7.70095
3656.63 7.63452
3660.06 7.59904
3663.49 7.57593
3670.34 7.54455
3684.04 7.49992
3697.74 7.45994
3711.44 7.41867
3725.14 7.37372
3752.55 7.26427
3779.95 7.10548
3793.65 6.98960
3807.36 6.82667
3814.21 6.71601
3821.06 6.57424
3827.91 6.38507
3834.76 6.11879
3838.19 5.94015
3841.61 5.71600
3845.04 5.42750
3848.46 5.04735
3850.17 4.81233
3851.89 4.54399
3853.60 4.25015
3855.31 3.97536
3856.17 3.89077
3857.03 3.90969
3857.88 4.16233
3858.74 4.96227
3859.59 7.16504
3860.02 9.48302
3860.45 13.5421
3860.88 21.0496
3861.09 27.1882
3861.31 36.0469
3861.52 49.1696
3861.73 69.1406
3861.95 100.221
3862.16 148.727
3862.48 262.572
3862.80 362.731
3863.12 320.742
3863.44 221.441
3863.72 157.260
3864.00 116.277
3864.28 89.9229
3864.56 72.3415
3865.11 51.2667
3865.67 39.6438
3866.23 32.4901
3866.79 27.7501
3867.91 21.9623
3869.02 18.6266
3870.14 16.4916
3871.26 15.0182
3872.37 13.9476
3874.61 12.5016
3876.84 11.5769
3879.07 10.9368
3881.30 10.4685
3885.77 9.83017
3890.24 9.41595
3894.70 9.12525
3899.17 8.90985
3908.10 8.61107
3917.04 8.41261
3934.90 8.16245
3952.77 8.00855
3961.70 7.95156
3970.63 7.90432
3979.57 7.86699
3988.50 7.84679
3992.97 7.85499
3995.20 7.87250
3997.43 7.91180
3999.67 8.00509
4000.78 8.10120
4001.90 8.27707
4002.46 8.42457
4003.02 8.64683
4003.58 9.00389
4004.13 9.62932
4004.69 10.8765
4004.97 12.0195
4005.25 13.9166
4005.53 17.3945
4005.67 20.3364
4005.81 24.7681
4005.95 31.9553
4006.09 44.3118
4006.23 67.7504
4006.37 114.068
4006.48 177.991
4006.60 220.699
4006.72 178.187
4006.83 114.317
4006.97 69.6257
4007.10 46.3397
4007.23 33.6330
4007.36 26.2028
4007.49 21.4828
4007.62 18.3625
4007.89 14.5992
4008.15 12.5170
4008.41 11.2577
4008.94 9.87243
4009.47 9.16723
4009.99 8.76138
4010.52 8.50551
4011.05 8.33423
4012.10 8.12501
4013.15 8.00632
4015.26 7.88172
4017.36 7.81900
4019.47 7.78147
4023.68 7.73743
4032.10 7.69040
4040.53 7.65950
4057.37 7.61138
4074.22 7.57024
4107.91 7.49584
4141.60 7.42318
4175.29 7.34204
4192.14 7.29246
4208.99 7.22961
4225.83 7.13902
4242.68 6.97721
4251.10 6.82504
4255.31 6.70718
4259.52 6.53604
4263.74 6.26590
4265.84 6.06410
4267.95 5.78625
4270.05 5.38920
4271.11 5.12988
4272.16 4.83376
4273.21 4.56698
4273.74 4.53678
4274.26 4.75477
4274.79 5.69156
4275.05 6.83495
4275.32 9.01067
4275.58 13.3662
4275.71 17.1622
4275.84 22.8612
4275.98 31.8442
4276.11 46.3126
4276.24 70.8240
4276.37 112.219
4276.54 198.384
4276.70 274.597
4276.87 244.155
4277.03 170.094
4277.21 112.995
4277.39 80.1926
4277.57 60.7570
4277.75 48.5174
4277.93 40.3445
4278.11 34.6103
4278.46 27.2549
4278.82 22.8324
4279.18 19.9464
4279.90 16.4595
4280.61 14.4640
4281.33 13.1924
4282.76 11.6835
4284.20 10.8343
4285.63 10.3001
4288.49 9.68910
4294.23 9.23445
4299.96 9.26281
4305.69 9.76213
4308.55 10.3266
4311.42 11.3234
4314.28 13.2187
4315.72 14.8442
4317.15 17.3363
4318.58 21.3981
4320.02 28.5341
4321.45 42.2343
4322.16 53.7547
4322.88 70.2238
4324.04 107.982
4325.20 133.264
4326.36 108.056
4327.52 70.3481
4328.34 51.9146
4329.16 39.6954
4329.98 31.5770
4330.80 26.0488
4332.44 19.3611
4334.08 15.6953
4335.72 13.4914
4337.36 12.0718
4340.64 10.4175
4343.92 9.52650
4347.21 8.99065
4350.49 8.64182
4353.77 8.40084
4360.33 8.09510
4366.89 7.91249
4373.45 7.79214
4380.01 7.70689
4393.13 7.59317
4406.26 7.51910
4419.38 7.46538
4432.50 7.42339
4458.75 7.35899
4484.99 7.30882
4511.24 7.26624
4537.48 7.22810
4589.97 7.15908
4642.47 7.09480
4668.71 7.06394
4694.96 7.03583
4708.08 7.02585
4721.20 7.02812
4727.76 7.04628
4731.04 7.06863
4734.32 7.11282
4737.61 7.21131
4739.25 7.31023
4740.89 7.48932
4741.71 7.63851
4742.53 7.86261
4743.35 8.22143
4744.17 8.84787
4744.99 10.0892
4745.40 11.2242
4745.81 13.1015
4746.22 16.5264
4746.42 19.3970
4746.63 23.7318
4746.83 30.6643
4747.04 42.5594
4747.24 64.6519
4747.45 107.838
4747.62 168.567
4747.80 209.145
4747.98 168.629
4748.15 107.923
4748.27 80.6248
4748.38 61.8776
4748.60 39.7312
4748.83 28.3190
4749.05 21.8809
4749.28 17.9131
4749.50 15.3231
4749.95 12.2808
4750.40 10.6303
4750.85 9.64244
4751.75 8.56826
4752.65 8.02773
4753.55 7.71859
4754.45 7.52485
4755.34 7.39556
4757.14 7.23832
4758.94 7.14957
4762.53 7.05671
4766.13 7.01004
4769.72 6.98200
4776.91 6.94850
4791.29 6.91032
4805.66 6.88200
4834.42 6.82902
4863.17 6.77068
4891.93 6.69794
4920.68 6.58991
4935.06 6.50216
4942.25 6.43883
4949.44 6.35047
4956.63 6.21423
4960.22 6.11208
4963.82 5.96762
4965.62 5.86992
4967.41 5.74621
4969.21 5.58459
4971.01 5.36581
4971.91 5.22582
4972.80 5.05951
4973.70 4.86310
4974.60 4.64344
4975.50 4.45585
4975.95 4.44713
4976.40 4.63313
4976.85 5.36832
4977.07 6.24318
4977.30 7.86932
4977.52 11.0704
4977.63 13.7851
4977.75 17.8215
4977.86 24.0696
4977.97 33.8755
4978.08 49.8187
4978.19 75.9301
4978.35 133.738
4978.50 185.838
4978.65 166.289
4978.81 116.622
4978.97 78.2962
4979.14 56.0814
4979.30 42.9066
4979.47 34.6426
4979.64 29.0793
4979.80 25.1930
4980.13 20.1789
4980.46 17.1549
4980.79 15.1767
4981.46 12.7778
4982.12 11.3976
4982.78 10.5131
4983.44 9.90093
4984.11 9.45380
4985.43 8.84626
4986.75 8.45461
4988.08 8.18130
4989.40 7.98012
4992.05 7.70324
4994.70 7.52153
4997.35 7.39262
5000.00 7.29604
5004.92 7.16785
5009.84 7.07872
5019.68 6.95986
5029.52 6.88091
5039.36 6.82189
5059.03 6.73318
5078.71 6.66292
5118.07 6.54123
5157.42 6.42228
5236.14 6.14382
5275.49 5.96333
5285.33 5.91167
5295.17 5.85706
5305.01 5.80138
5309.93 5.78405
5311.16 5.79038
5312.39 5.82214
5313.00 5.87131
5313.62 6.00703
5313.93 6.17977
5314.23 6.59264
5314.39 7.05299
5314.54 7.98105
5314.62 8.84300
5314.69 10.2574
5314.77 12.7185
5314.85 17.0487
5314.92 23.8921
5315.00 28.5007
5315.08 24.0019
5315.15 17.1852
5315.20 14.0635
5315.25 11.9486
5315.35 9.44023
5315.45 8.15093
5315.55 7.42175
5315.75 6.68254
5315.95 6.33784
5316.34 6.03709
5316.74 5.91261
5317.53 5.81008
5318.32 5.76752
5321.49 5.70670
5327.82 5.65069
5340.48 5.55101
5365.81 5.32489
5391.13 5.04372
5416.46 4.68836
5429.12 4.47854
5441.78 4.25088
5454.45 4.02366
5467.11 3.86045
5479.77 3.98371
5486.10 4.36733
5492.44 5.29866
5498.77 7.48576
5501.93 9.56424
5505.10 12.9061
5508.26 18.4737
5511.43 28.1492
5514.60 45.7483
5517.76 78.4687
5521.28 141.628
5524.80 200.616
5528.32 182.202
5531.84 129.261
5535.01 93.2611
5538.17 70.0800
5541.34 55.1413
5544.50 45.1485
5550.83 33.1259
5557.16 26.4262
5563.49 22.2747
5569.82 19.4967
5582.48 16.0735
5595.14 14.0905
5601.47 13.3993
5607.80 12.8536
5614.13 12.4513
5617.30 12.3227
5620.46 12.2813
5623.63 12.4268
5625.21 12.6592
5626.79 13.1374
5628.37 14.1862
5629.17 15.1943
5629.96 16.9158
5630.75 20.1724
5631.14 22.9868
5631.54 27.3456
5631.94 34.6007
5632.33 47.6959
5632.53 58.4524
5632.73 74.1062
5632.92 97.3866
5633.12 131.745
5633.41 204.313
5633.70 252.522
5633.99 204.158
5634.28 131.885
5634.46 99.2464
5634.65 76.6543
5635.02 50.1476
5635.39 36.5069
5635.76 28.7882
5636.13 24.0549
5636.50 20.9611
5637.24 17.3095
5637.98 15.3208
5638.72 14.1166
5640.20 12.7824
5641.68 12.0848
5643.16 11.6629
5644.64 11.3799
5646.12 11.1748
5649.08 10.8891
5652.04 10.6899
5657.96 10.4065
5663.88 10.1950
5669.80 10.0202
5681.63 9.73424
5693.47 9.50205
5705.31 9.30647
5728.99 8.99135
5752.67 8.74609
5776.34 8.54846
5788.18 8.46352
5800.02 8.38805
5805.94 8.35639
5811.86 8.33805
5814.82 8.34661
5817.78 8.40613
5819.26 8.50554
5820.00 8.60864
5820.74 8.79794
5821.48 9.19458
5821.85 9.57527
5822.22 10.2351
5822.59 11.5216
5822.77 12.6745
5822.96 14.5371
5823.14 17.8120
5823.33 24.2852
5823.42 30.1334
5823.51 39.3343
5823.60 54.6317
5823.70 80.5217
5823.80 124.351
5823.90 153.941
5824.00 125.203
5824.10 81.5883
5824.17 61.6703
5824.24 48.1020
5824.37 32.1326
5824.50 23.8826
5824.63 19.2006
5824.76 16.3059
5824.89 14.4285
5825.15 12.2103
5825.41 11.0000
5825.67 10.2736
5826.19 9.47699
5826.71 9.07253
5827.23 8.83831
5828.27 8.58945
5829.31 8.46447
5830.36 8.39131
5832.44 8.31008
5836.61 8.23493
5840.77 8.19372
5849.11 8.13766
5857.44 8.09307
5874.11 8.01605
5890.78 7.94745
5924.11 7.82573
5957.45 7.71828
5990.78 7.62060
6024.12 7.52957
6057.45 7.44323
6074.12 7.40443
6082.46 7.40074
6084.54 7.41397
6086.62 7.46081
6087.67 7.52870
6088.71 7.71435
6089.23 7.95336
6089.75 8.54390
6090.01 9.22865
6090.27 10.6920
6090.40 12.1273
6090.53 14.6419
6090.66 19.4562
6090.72 23.4983
6090.79 29.2666
6090.90 42.5582
6091.00 51.3720
6091.11 42.5764
6091.21 29.4565
6091.30 22.2740
6091.38 17.7659
6091.47 14.9146
6091.55 13.0651
6091.72 10.8960
6091.89 9.74938
6092.23 8.64962
6092.57 8.16383
6093.24 7.75531
6093.92 7.59188
6095.27 7.46238
6096.63 7.41140
6099.34 7.36853
6102.04 7.34827
6112.87 7.30662
6134.54 7.24611
6156.20 7.18714
6167.03 7.15762
6172.45 7.14552
6175.16 7.15124
6176.51 7.19745
6177.19 7.35779
6177.53 7.77655
6177.69 8.55012
6177.78 9.50259
6177.86 11.4230
6177.93 14.0434
6178.00 15.7750
6178.07 14.0469
6178.14 11.4776
6178.21 9.74992
6178.28 8.81739
6178.42 7.96183
6178.71 7.44527
6179.28 7.22581
6180.42 7.14939
6182.71 7.12096
6187.28 7.10129
6196.41 7.07204
6214.69 7.01406
6251.24 6.88493
6287.79 6.72668
6324.34 6.51727
6360.89 6.20992
6379.17 5.98796
6397.44 5.68388
6406.58 5.48440
6415.72 5.23870
6424.85 4.93008
6433.99 4.53757
6438.56 4.30476
6443.13 4.05129
6447.70 3.79715
6452.27 3.61279
6456.83 3.74670
6459.12 4.17466
6461.40 5.22077
6463.69 7.69624
6464.83 10.0627
6465.97 13.8910
6467.11 20.3150
6468.26 31.5949
6469.40 52.3828
6470.54 91.6915
6471.77 165.561
6473.00 234.132
6474.23 212.081
6475.46 149.897
6476.56 107.841
6477.66 80.7609
6478.77 63.2864
6479.87 51.6068
6482.07 37.5495
6484.27 29.7201
6486.48 24.8712
6488.68 21.6277
6493.08 17.6293
6497.49 15.2973
6501.90 13.7869
6506.30 12.7355
6510.71 11.9641
6519.52 10.9112
6528.33 10.2276
6537.14 9.74797
6545.95 9.39228
6563.57 8.89760
6581.20 8.56644
6616.44 8.13925
6651.69 7.85935
6686.93 7.64260
6722.18 7.44794
6739.80 7.35641
6744.21 7.34134
6748.61 7.34820
6750.82 7.38233
6753.02 7.50231
6754.12 7.67445
6754.67 7.84271
6755.22 8.13701
6755.77 8.71887
6756.05 9.24500
6756.32 10.1037
6756.60 11.6435
6756.74 12.9061
6756.87 14.7536
6757.01 17.6321
6757.15 22.3050
6757.29 30.4627
6757.42 44.8925
6757.56 67.7406
6757.70 82.9571
6757.84 67.8698
6757.98 45.2734
6758.07 34.2273
6758.17 26.8483
6758.27 21.9214
6758.36 18.5826
6758.56 14.4813
6758.75 12.2340
6758.95 10.8732
6759.14 9.99965
6759.52 8.98073
6759.91 8.43169
6760.30 8.10313
6761.07 7.74530
6761.85 7.56279
6762.62 7.45602
6764.16 7.33891
6767.26 7.23508
6770.35 7.18093
6776.54 7.10674
6782.73 7.04154
6795.10 6.89972
6807.47 6.71526
6819.85 6.44355
6826.03 6.24665
6832.22 5.97687
6835.31 5.80027
6838.41 5.58368
6841.50 5.31355
6844.59 4.97481
6847.69 4.56752
6849.24 4.36629
6850.78 4.24198
6852.33 4.41840
6853.10 4.82482
6853.87 5.74692
6854.65 7.79637
6855.04 9.66203
6855.42 12.5434
6855.81 17.1347
6856.19 24.6332
6856.58 37.2947
6856.97 58.7361
6857.48 107.124
6858.00 153.921
6858.52 142.177
6859.03 102.679
6859.38 81.2071
6859.73 65.5028
6860.42 45.9902
6861.11 35.1979
6861.80 28.6769
6862.49 24.4261
6863.18 21.4840
6864.56 17.7422
6865.95 15.5000
6867.33 14.0265
6870.09 12.2270
6872.86 11.1795
6875.62 10.4987
6878.39 10.0217
6881.15 9.66965
6886.68 9.18481
6892.21 8.86678
6903.27 8.47485
6914.32 8.24347
6925.38 8.09343
6947.50 7.92950
6958.56 7.89935
6969.61 7.90826
6980.67 7.97519
6991.73 8.14924
6997.26 8.31246
7002.79 8.57022
7008.32 8.99623
7013.85 9.75489
7019.37 11.2767
7022.14 12.6776
7024.90 15.0053
7027.67 19.2838
7029.05 22.8964
7030.43 28.3967
7031.81 37.2994
7033.20 52.8559
7034.58 82.5767
7035.27 107.506
7035.96 143.067
7037.08 224.348
7038.20 278.017
7039.32 222.549
7040.44 140.889
7041.70 84.4368
7042.96 55.1407
7044.22 39.1967
7045.48 29.8447
7046.73 23.9646
7047.99 20.0590
7050.51 15.3877
7053.03 12.8193
7055.55 11.2635
7060.58 9.55445
7065.61 8.68247
7070.65 8.17353
7075.68 7.84581
7080.72 7.61801
7090.79 7.31700
7095.82 7.20937
7100.86 7.12162
7105.89 7.06268
7108.41 7.05899
7110.92 7.10231
7112.18 7.16242
7113.44 7.27510
7114.70 7.48841
7115.96 7.91431
7117.22 8.86227
7117.85 9.79441
7118.48 11.4166
7119.11 14.5416
7119.42 17.2680
7119.74 21.4995
7120.05 28.5298
7120.36 41.0658
7120.68 65.7036
7120.84 86.7050
7120.99 117.101
7121.25 188.208
7121.50 239.480
7121.75 197.869
7122.01 129.327
7122.23 88.5803
7122.45 63.7142
7122.67 48.2716
7122.89 38.2761
7123.34 26.7364
7123.78 20.6745
7124.22 17.0979
7124.66 14.8189
7125.55 12.1657
7126.43 10.7274
7127.32 9.85195
7128.20 9.27414
7129.09 8.86930
7130.86 8.34643
7132.63 8.02723
7134.40 7.81334
7136.17 7.66009
7139.71 7.45339
7143.25 7.31790
7150.33 7.14279
7157.41 7.02522
7164.49 6.93330
7178.64 6.78205
7206.96 6.50674
7235.28 6.18654
7263.60 5.73977
7277.76 5.42804
7291.92 5.01832
7306.07 4.46609
7313.15 4.12761
7320.23 3.77165
7327.31 3.52555
7330.85 3.58917
7334.39 4.02853
7337.93 5.42833
7339.70 6.94448
7341.47 9.58278
7343.24 14.3360
7345.01 23.3300
7345.90 30.7449
7346.78 41.3973
7347.67 56.8480
7348.55 79.1377
7350.23 144.960
7351.90 207.877
7353.58 190.693
7355.26 136.269
7356.81 98.0004
7358.37 73.5184
7359.92 57.8381
7361.47 47.3911
7364.58 34.8568
7367.68 27.8801
7370.79 23.5510
7373.90 20.6485
7380.11 17.0572
7386.32 14.9524
7392.53 13.5832
7398.74 12.6264
7404.95 11.9221
7417.37 10.9575
7429.80 10.3292
7454.64 9.56020
7479.49 9.10620
7504.33 8.80520
7554.02 8.42773
7603.71 8.19867
7628.56 8.11548
7653.40 8.04831
7665.83 8.02088
7678.25 7.99859
7690.67 7.98370
7703.09 7.98191
7709.31 7.99015
7715.52 8.00972
7721.73 8.04967
7727.94 8.13084
7731.05 8.20172
7734.15 8.31060
7737.26 8.48746
7740.36 8.79896
7743.47 9.42054
7745.02 9.99199
7746.57 10.9423
7748.13 12.6960
7748.90 14.1856
7749.68 16.4632
7750.46 20.1842
7751.23 26.7545
7752.01 39.5249
7752.40 50.4132
7752.78 66.1520
7753.39 101.184
7754.00 124.675
7754.61 101.513
7755.22 66.6534
7755.73 46.9127
7756.25 34.8938
7756.77 27.5109
7757.28 22.8244
7758.32 17.6761
7759.35 15.4282
7760.38 14.9575
7760.90 15.4487
7761.42 16.7174
7761.93 19.4278
7762.45 25.3484
7762.71 30.9757
7762.97 40.2460
7763.22 56.4109
7763.48 85.3259
7763.74 130.659
7764.00 160.904
7764.26 130.595
7764.52 85.1191
7764.70 63.2405
7764.88 48.5463
7765.06 38.6826
7765.23 31.9076
7765.59 23.6319
7765.95 19.0463
7766.31 16.2506
7766.66 14.4331
7767.38 12.2765
7768.09 11.0863
7768.81 10.3518
7770.24 9.51348
7771.67 9.05797
7773.10 8.77537
7775.96 8.44674
7778.82 8.26324
7781.68 8.14708
7787.40 8.00928
7793.12 7.93057
7798.84 7.87941
7810.28 7.81543
7821.72 7.77499
7833.16 7.74536
7856.05 7.70118
7878.93 7.66668
7901.81 7.63708
7947.57 7.58600
7993.34 7.54133
8039.10 7.50055
8130.63 7.42522
8222.16 7.35049
8267.92 7.30942
8313.68 7.26165
8359.45 7.19944
8382.33 7.15741
8405.21 7.10103
8428.09 7.01681
8439.53 6.95453
8450.97 6.86640
8462.41 6.72895
8468.14 6.62511
8473.86 6.47735
8479.58 6.24891
8482.44 6.08063
8485.30 5.85076
8488.16 5.52476
8489.59 5.31265
8491.02 5.06988
8492.45 4.84506
8493.16 4.80448
8493.88 4.93289
8494.59 5.52481
8494.95 6.23214
8495.31 7.51739
8495.66 9.92444
8496.02 14.6121
8496.20 18.5709
8496.38 24.3496
8496.56 32.8706
8496.74 45.3073
8497.07 82.1447
8497.40 118.605
8497.73 110.730
8498.06 81.0662
8498.33 62.1202
8498.60 49.0950
8498.86 40.2426
8499.13 34.0794
8499.66 26.3677
8500.19 21.9164
8500.72 19.1051
8501.26 17.2086
8502.32 14.8832
8503.38 13.5844
8504.45 12.8308
8506.58 12.2844
8508.70 12.8199
8509.77 13.6787
8510.83 15.2836
8511.90 18.3624
8512.43 20.9689
8512.96 24.8868
8513.49 31.0641
8514.02 41.3901
8514.56 59.7777
8515.09 93.5752
8515.59 144.707
8516.10 178.995
8516.61 145.088
8517.11 94.0049
8517.53 65.7455
8517.95 48.2151
8518.36 37.1816
8518.78 30.0100
8519.61 21.7016
8520.45 17.3283
8521.28 14.7642
8522.11 13.1349
8523.78 11.2540
8525.44 10.2419
8527.11 9.62813
8530.44 8.93827
8533.77 8.56710
8537.11 8.33678
8540.44 8.17969
8543.77 8.06526
8550.43 7.90836
8557.10 7.80457
8563.76 7.72987
8570.42 7.67297
8583.75 7.59082
8597.08 7.53325
8623.73 7.45524
8650.38 7.40222
8677.04 7.36169
8730.34 7.29824
8783.65 7.24262
8836.95 7.17947
8863.61 7.13518
8876.94 7.10482
8890.26 7.06339
8903.59 6.99990
8910.25 6.95179
8916.91 6.88225
8923.58 6.77082
8926.91 6.68465
8930.24 6.55947
8931.91 6.47271
8933.57 6.36026
8935.24 6.20874
8936.90 5.99395
8938.57 5.66703
8939.40 5.43212
8940.24 5.12151
8941.07 4.70663
8941.90 4.21079
8942.32 4.07734
8942.74 4.58176
8942.94 5.73337
8943.05 6.91217
8943.15 8.88136
8943.26 12.2616
8943.36 18.2846
8943.46 29.4673
8943.52 38.4026
8943.57 50.7488
8943.68 93.2103
8943.80 134.753
8943.92 125.528
8944.03 91.2210
8944.12 70.7801
8944.21 56.3511
8944.29 46.1711
8944.38 39.0229
8944.55 29.8262
8944.72 24.4025
8944.90 20.9181
8945.07 18.5281
8945.42 15.5170
8945.76 13.7166
8946.11 12.5352
8946.45 11.7057
8946.80 11.0953
8947.49 10.2559
8948.18 9.71068
8948.87 9.32822
8949.56 9.04630
8950.95 8.65827
8952.33 8.40435
8953.71 8.22539
8955.10 8.09250
8957.86 7.90831
8960.63 7.78664
8966.16 7.63556
8971.69 7.54519
8977.22 7.48502
8988.29 7.41056
8999.35 7.36989
9010.41 7.35844
9015.94 7.37547
9021.47 7.44741
9024.24 7.55407
9025.62 7.66010
9027.01 7.84984
9028.39 8.23866
9029.08 8.60723
9029.77 9.24002
9030.46 10.4685
9030.81 11.5675
9031.16 13.3380
9031.50 16.4689
9031.85 22.6860
9032.02 28.3382
9032.19 37.4433
9032.37 52.9040
9032.54 79.5633
9032.72 122.945
9032.90 151.516
9033.08 122.282
9033.26 79.0561
9033.38 59.0154
9033.50 45.3488
9033.74 29.6469
9033.98 21.6759
9034.22 17.2412
9034.46 14.5363
9034.70 12.7899
9035.18 10.7444
9035.66 9.64621
9036.14 8.99137
9037.09 8.28490
9038.05 7.93205
9039.01 7.73124
9040.93 7.52300
9042.84 7.42227
9044.76 7.36561
9048.59 7.30640
9056.25 7.25893
9063.91 7.23945
9071.57 7.23342
9079.23 7.25239
9083.06 7.29458
9084.98 7.34160
9086.89 7.43192
9088.81 7.63060
9089.77 7.82894
9090.72 8.18485
9091.20 8.47830
9091.68 8.91459
9092.16 9.60104
9092.64 10.7631
9093.12 12.9609
9093.36 14.8694
9093.60 17.8314
9093.84 22.7956
9094.08 31.8038
9094.20 39.2621
9094.31 50.0694
9094.43 66.3598
9094.55 90.4839
9094.73 141.436
9094.90 175.833
9095.07 142.807
9095.25 92.5916
9095.37 67.2276
9095.50 50.5028
9095.63 39.4646
9095.75 31.9885
9096.00 22.9970
9096.25 18.1041
9096.51 15.1589
9096.76 13.2651
9097.26 11.0682
9097.77 9.88766
9098.27 9.18322
9098.77 8.72726
9099.28 8.41592
9100.28 8.02775
9101.29 7.80329
9103.30 7.56513
9105.32 7.44621
9107.33 7.37735
9111.36 7.30300
9115.39 7.26427
9119.41 7.24052
9127.47 7.21224
9143.58 7.18316
9159.69 7.16724
9175.80 7.16054
9183.85 7.16314
9191.91 7.17493
9199.96 7.20975
9203.99 7.24868
9208.02 7.32307
9210.03 7.38702
9212.04 7.48530
9214.06 7.64623
9216.07 7.93401
9217.08 8.17067
9218.09 8.52229
9219.09 9.07569
9220.10 10.0159
9221.11 11.8031
9221.61 13.3647
9222.11 15.8152
9222.62 19.9685
9223.12 27.6872
9223.37 34.2108
9223.62 43.9227
9223.87 58.9185
9224.13 81.9598
9224.46 127.373
9224.80 157.854
9225.14 127.958
9225.48 82.8771
9225.76 57.4958
9226.04 41.8656
9226.32 32.1361
9226.61 25.8406
9227.17 18.6146
9227.74 14.8516
9228.30 12.6600
9228.87 11.2823
9230.00 9.71304
9231.13 8.88903
9232.26 8.40340
9233.39 8.09309
9234.52 7.88256
9236.79 7.62276
9239.05 7.47392
9241.31 7.38021
9243.57 7.31702
9248.10 7.23877
9252.62 7.19298
9261.67 7.14170
9270.72 7.11233
9279.77 7.09138
9288.81 7.07616
9293.34 7.09277
9294.47 7.12360
9295.60 7.22410
9296.17 7.37020
9296.73 7.77441
9297.01 8.29724
9297.30 9.57702
9297.44 11.0327
9297.58 14.0222
9297.65 16.8489
9297.72 21.4787
9297.79 29.7900
9297.86 44.9488
9297.93 68.3283
9298.00 84.7315
9298.07 69.8369
9298.14 46.8296
9298.20 32.5016
9298.27 24.1883
9298.33 19.2085
9298.39 16.0741
9298.52 12.5470
9298.65 10.7638
9298.91 9.08936
9299.16 8.35902
9299.68 7.74284
9300.19 7.49388
9301.22 7.29258
9302.25 7.21205
9304.30 7.14561
9306.35 7.11735
9314.57 7.07770
9331.00 7.04995
9363.86 7.01518
9429.59 6.95201
9495.32 6.87988
9561.04 6.78752
9626.77 6.65709
9659.63 6.56687
9692.49 6.44871
9725.36 6.28632
9741.79 6.18004
9758.22 6.05030
9774.65 5.89179
9791.08 5.71162
9799.30 5.64053
9803.41 5.63325
9807.51 5.67985
9811.62 5.86560
9813.68 6.08452
9815.73 6.49858
9817.78 7.35210
9818.81 8.13581
9819.84 9.41494
9820.87 11.6754
9821.89 16.1408
9822.41 20.1363
9822.92 26.4425
9823.43 36.8638
9823.95 54.3600
9824.52 84.3275
9825.10 104.434
9825.68 84.6585
9826.26 54.7787
9826.88 34.5046
9827.50 23.6154
9828.13 17.5294
9828.75 13.8878
9829.37 11.5564
9829.99 9.98577
9831.24 8.06366
9832.48 6.97242
9833.73 6.28610
9836.22 5.48278
9838.71 5.02653
9841.20 4.73038
9846.18 4.40520
9851.16 4.47421
9853.65 4.81312
9856.14 5.60134
9858.63 7.31175
9861.12 11.0755
9862.37 14.5164
9863.61 19.8591
9864.86 28.2813
9866.10 41.5501
9868.10 76.8104
9870.10 112.563
9872.10 106.206
9874.10 78.3002
9875.85 58.8628
9877.60 45.8769
9879.34 37.2720
9881.09 31.3928
9884.59 24.1485
9888.08 20.0090
9891.58 17.3945
9895.07 15.6191
9902.06 13.3931
9909.05 12.0724
9916.04 11.2080
9930.02 10.1628
9944.00 9.58585
9950.99 9.41104
9957.98 9.31680
9964.98 9.35618
9968.47 9.47977
9971.97 9.76009
9975.46 10.4047
9977.21 11.0401
9978.96 12.1433
9980.70 14.2710
9981.58 16.1432
9982.45 19.0981
9983.32 24.1269
9984.20 33.5495
9984.64 41.5418
9985.07 53.5527
9985.51 72.1448
9985.95 100.958
9986.52 157.073
9987.10 194.891
9987.68 158.104
9988.26 102.382
9988.62 77.2856
9988.99 59.8509
9989.72 39.3238
9990.46 28.6879
9991.19 22.6530
9991.92 18.9349
9992.66 16.5013
9994.12 13.6179
9995.59 12.0427
9997.06 11.0873
9999.99 10.0295
10000.0 10.2034
12500.0 10.1288
15000.0 10.0969
17000.0 10.0895
20000.0 10.0965
25000.0 10.1353
30000.0 10.1904
35000.0 10.2519
40000.0 10.3152
50000.0 10.4393
60000.0 10.5544
70000.0 10.6584
80000.0 10.7515
90000.0 10.8342
93000.0 10.8562
97000.0 10.8854
99999.9 10.9074
100000 9.84538
105000 9.80338
110000 9.70848
115000 9.56014
120000 9.41180
125000 9.36614
130000 9.37166
135000 9.42850
140000 9.58912
145000 9.85321
150000 10.1173
155000 10.2761
160000 10.4348
165000 10.4883
170000 10.5417
175000 10.2290
180000 9.96780
185000 9.60209
190000 9.34047
195000 8.92180
200000 8.65949
210000 8.91663
220000 9.48467
230000 10.0527
240000 9.89049
250000 9.46732
260000 8.62808
270000 8.56885
280000 8.92437
290000 9.01896
300000 8.33733
310000 7.76065
320000 7.85663
330000 8.26279
340000 8.71951
350000 9.07232
360000 9.11557
370000 8.95542
380000 8.63913
390000 8.93995
400000 9.49709
410000 9.69603
420000 9.68860
430000 9.37407
440000 9.31592
450000 9.30934
460000 9.20100
470000 8.99058
480000 8.47441
490000 8.01009
500000 7.85241
520000 8.62546
530000 8.85799
540000 8.85354
550000 8.44240
560000 8.28289
570000 8.07598
580000 7.92020
600000 7.83260
620000 7.89750
640000 8.00364
660000 8.07976
680000 8.13583
700000 8.12115
720000 7.99342
740000 7.66709
760000 7.27859
770000 7.10079
771466 7.07473
780000 6.92299
800000 6.64886
820000 6.90313
840000 7.35737
860000 7.33677
880000 7.17504
930600 6.81771
930601 6.81771
940000 6.75133
960000 6.62021
980000 6.54449
1.00000E+06 6.46877
1.05000E+06 6.37800
1.10000E+06 6.33807
1.15000E+06 6.24726
1.20000E+06 6.13613
1.21815E+06 6.07792
1.21815E+06 6.07792
1.21830E+06 6.07744
1.25000E+06 5.97576
1.30000E+06 5.81539
1.31400E+06 5.77049
1.33321E+06 5.71043
1.35000E+06 5.65794
1.39500E+06 5.52821
1.39800E+06 5.51956
1.40000E+06 5.51379
1.43173E+06 5.46350
1.45000E+06 5.43454
1.47610E+06 5.39317
1.48277E+06 5.38260
1.48277E+06 5.38259
1.50000E+06 5.35529
1.53000E+06 5.32149
1.60000E+06 5.24263
1.70748E+06 5.08611
1.80000E+06 4.95137
1.90000E+06 4.77873
1.90308E+06 4.77482
1.90309E+06 4.77480
1.97152E+06 4.68787
2.00000E+06 4.65170
2.06501E+06 4.56911
2.06501E+06 4.56911
2.07300E+06 4.55896
2.09134E+06 4.54343
2.15514E+06 4.48941
2.15514E+06 4.48941
2.19423E+06 4.45631
2.21379E+06 4.43974
2.21380E+06 4.43974
2.22492E+06 4.43032
2.22492E+06 4.43032
2.28500E+06 4.37945
2.28500E+06 4.37945
2.28600E+06 4.37860
2.30000E+06 4.36996
2.40000E+06 4.30825
2.50000E+06 4.25516
2.60000E+06 4.20207
2.90000E+06 4.05444
3.00000E+06 4.00523
3.20000E+06 3.92378
3.40000E+06 3.86144
3.60000E+06 3.77822
3.80000E+06 3.71299
4.00000E+06 3.67295
4.20000E+06 3.65259
4.40000E+06 3.64917
4.50000E+06 3.65455
4.60000E+06 3.65993
4.80000E+06 3.68168
4.99380E+06 3.71361
5.00000E+06 3.71463
5.20000E+06 3.73357
5.40000E+06 3.78796
5.49834E+06 3.81470
5.50000E+06 3.81516
5.60000E+06 3.84235
5.80000E+06 3.87612
5.89115E+06 3.89646
5.89118E+06 3.89646
6.00000E+06 3.92074
6.53977E+06 4.04116
6.80000E+06 4.09921
7.00000E+06 4.13231
7.14642E+06 4.15654
7.14643E+06 4.15654
7.22903E+06 4.17021
7.27000E+06 4.17699
7.27382E+06 4.17745
7.27382E+06 4.17744
8.00000E+06 4.26390
8.06551E+06 4.26817
8.60000E+06 4.30296
9.00000E+06 4.30611
9.50000E+06 4.29289
1.00000E+07 4.26256
1.02000E+07 4.25042
1.10000E+07 4.18555
1.16000E+07 4.12228
1.20000E+07 4.08011
1.24000E+07 4.03793
1.30000E+07 3.97467
1.35000E+07 3.92196
1.40000E+07 3.86738
1.40188E+07 3.86533
1.45000E+07 3.81284
1.50000E+07 3.75838
1.60000E+07 3.64996
1.70000E+07 3.54280
1.80000E+07 3.44934
1.90000E+07 3.37252
2.00000E+07 3.29751