Zr-94(n,tot) ENDF/B-VII.1
Energy(eV) XS(b)
1.00000E-05 11.1206
1.25000E-05 10.8558
1.50000E-05 10.6603
2.00000E-05 10.3859
2.75000E-05 10.1248
3.50000E-05 9.95301
4.25000E-05 9.82896
5.00000E-05 9.73400
6.25000E-05 9.61557
7.50000E-05 9.52814
0.000100000 9.40543
0.000125000 9.32168
0.000150000 9.25987
0.000200000 9.17310
0.000275000 9.09053
0.000350000 9.03620
0.000425000 8.99697
0.000500000 8.96694
0.000625000 8.92949
0.000750000 8.90184
0.00100000 8.86304
0.00125000 8.83655
0.00150000 8.81701
0.00200000 8.78957
0.00275000 8.76346
0.00350000 8.74627
0.00425000 8.73387
0.00500000 8.72437
0.00625000 8.71253
0.00750000 8.70378
0.0100000 8.69151
0.0125000 8.68313
0.0150000 8.67695
0.0200000 8.66827
0.0253000 8.66204
0.0314750 8.65688
0.0376500 8.65304
0.0500000 8.64763
0.0625000 8.64387
0.0750000 8.64110
0.100000 8.63720
0.125000 8.63453
0.150000 8.63255
0.200000 8.62977
0.275000 8.62709
0.350000 8.62531
0.500000 8.62300
0.750000 8.62074
1.00000 8.61930
1.50000 8.61744
2.00000 8.61616
2.75000 8.61472
3.50000 8.61356
5.00000 8.61164
7.50000 8.60894
10.0000 8.60651
15.0000 8.60197
20.0000 8.59762
27.5000 8.59127
35.0000 8.58502
50.0000 8.57270
75.0000 8.55248
100.000 8.53253
150.000 8.49328
200.000 8.45479
275.000 8.39834
350.000 8.34329
500.000 8.23698
750.000 8.06894
1000.00 7.90865
1250.00 7.75070
1500.00 7.58556
1625.00 7.49396
1750.00 7.38831
1875.00 7.25279
1937.50 7.16197
2000.00 7.03993
2030.29 6.96143
2060.59 6.86195
2090.88 6.72928
2121.17 6.53952
2136.32 6.40869
2151.46 6.23880
2166.61 6.00809
2181.75 5.67498
2189.33 5.44548
2196.90 5.14958
2204.47 4.75370
2212.05 4.19822
2215.83 3.82856
2219.62 3.36994
2223.41 2.79132
2227.19 2.05754
2229.09 1.62762
2230.98 1.17175
2232.87 0.747254
2233.82 0.595469
2234.29 0.553067
2234.76 0.545365
2235.24 0.586422
2235.71 0.695673
2236.19 0.901645
2236.66 1.24409
2237.13 1.78477
2237.61 2.61248
2238.08 3.86964
2238.55 5.78357
2239.03 8.74134
2239.50 13.3950
2239.97 20.9768
2240.44 33.9185
2240.92 57.5411
2241.16 76.7688
2241.39 104.395
2241.63 145.632
2241.86 208.585
2242.10 308.137
2242.34 464.987
2242.67 809.056
2243.00 1094.89
2243.33 946.358
2243.66 637.274
2243.99 424.038
2244.32 296.826
2244.65 219.645
2244.97 170.461
2245.30 137.244
2245.63 113.858
2246.28 83.8810
2246.93 65.9276
2247.59 54.2575
2248.89 40.2854
2250.20 32.3918
2251.51 27.4060
2252.81 24.0052
2254.12 21.5543
2256.73 18.2759
2259.35 16.2005
2261.96 14.7751
2264.57 13.7394
2269.80 12.3386
2275.03 11.4377
2280.25 10.8106
2285.48 10.3494
2295.93 9.71633
2306.39 9.30207
2316.84 9.00950
2327.29 8.79153
2348.20 8.48736
2369.11 8.28402
2390.02 8.13740
2410.92 8.02586
2452.74 7.86528
2494.55 7.75289
2536.37 7.66781
2578.18 7.59972
2661.81 7.49394
2745.44 7.41170
2912.70 7.28212
3247.22 7.07867
3581.74 6.89654
3916.26 6.71084
4250.78 6.50343
4418.04 6.38415
4585.30 6.24823
4668.93 6.17186
4710.74 6.13113
4752.55 6.08858
4794.37 6.04435
4836.18 5.99952
4857.09 5.97852
4878.00 5.96321
4888.45 5.96347
4893.68 5.96963
4898.91 5.98551
4904.13 6.02522
4906.75 6.06679
4909.36 6.14351
4910.67 6.20822
4911.97 6.30672
4913.28 6.46716
4914.59 6.75470
4915.24 6.99358
4915.89 7.35264
4916.55 7.93018
4917.20 8.94909
4917.53 9.78198
4917.85 11.0163
4918.18 12.9590
4918.51 16.2640
4918.83 22.6239
4919.00 28.2344
4919.16 37.1951
4919.32 52.8574
4919.49 83.1195
4919.57 110.011
4919.65 151.557
4919.73 220.214
4919.81 332.343
4919.91 527.558
4920.00 654.703
4920.09 523.323
4920.19 328.096
4920.27 220.003
4920.34 153.385
4920.42 111.882
4920.50 85.0202
4920.66 54.2040
4920.81 38.1649
4920.97 28.8689
4921.12 23.0355
4921.44 16.4328
4921.75 12.9939
4922.06 10.9844
4922.37 9.71179
4922.68 8.85863
4923.31 7.81649
4923.93 7.23262
4924.55 6.87264
4925.18 6.63616
4926.42 6.35436
4927.67 6.19967
4930.17 6.04452
4932.66 5.97178
4935.15 5.93141
4940.14 5.88898
4950.12 5.85142
4960.09 5.82991
4980.05 5.79629
5000.00 5.76472
5023.40 5.72703
5046.79 5.68777
5093.58 5.60330
5140.37 5.50928
5187.16 5.40360
5280.74 5.14495
5374.32 4.78928
5467.89 4.25543
5514.68 3.86749
5561.47 3.33739
5608.26 2.56991
5631.66 2.04745
5655.05 1.40038
5678.45 0.648065
5690.14 0.307650
5695.99 0.196660
5698.92 0.171605
5701.84 0.177152
5704.77 0.224614
5707.69 0.329530
5710.62 0.513721
5713.54 0.807869
5716.46 1.25658
5719.39 1.92472
5722.31 2.91027
5725.24 4.36394
5728.16 6.52570
5731.09 9.78669
5734.01 14.8178
5736.93 22.8164
5739.86 36.0363
5742.78 58.9046
5745.71 100.434
5748.63 177.766
5751.82 322.825
5755.00 454.657
5758.19 407.336
5761.37 283.650
5764.57 193.212
5767.77 138.505
5770.97 105.015
5774.17 83.4817
5780.58 58.7273
5786.98 45.9336
5793.38 39.3487
5796.58 37.9725
5799.78 38.3062
5802.98 41.7686
5804.58 45.8979
5806.18 53.3610
5807.78 67.6721
5808.58 79.8873
5809.38 98.4488
5810.18 128.177
5810.98 179.008
5811.78 272.558
5812.58 452.737
5813.29 710.416
5814.00 881.773
5814.71 708.085
5815.42 449.800
5816.02 303.200
5816.63 214.077
5817.23 158.978
5817.84 123.594
5819.04 83.1232
5820.25 62.0593
5821.46 49.7564
5822.67 41.9502
5825.09 32.8870
5827.50 27.9305
5829.92 24.8462
5832.34 22.7420
5834.75 21.2050
5839.59 19.0753
5844.42 17.6304
5849.26 16.5557
5854.09 15.7075
5863.76 14.4223
5873.43 13.4709
5883.10 12.7253
5892.76 12.1195
5912.10 11.1859
5931.44 10.4937
5950.77 9.95628
5970.11 9.52470
6008.78 8.86911
6047.46 8.38815
6086.13 8.01388
6124.80 7.70887
6202.15 7.22466
6279.50 6.83302
6434.19 6.13984
6588.88 5.36804
6666.23 4.86861
6743.58 4.21433
6782.25 3.79508
6820.92 3.28524
6859.60 2.65236
6898.27 1.85711
6917.61 1.39055
6936.94 0.887813
6956.28 0.391892
6965.95 0.183471
6970.78 0.102859
6975.61 0.0471611
6980.45 0.0264806
6985.28 0.0547943
6987.70 0.0931415
6990.12 0.151613
6992.53 0.233933
6994.95 0.344565
6999.79 0.673347
7004.62 1.19598
7009.45 1.99895
7014.29 3.21417
7019.12 5.04857
7023.96 7.83448
7028.79 12.1278
7033.62 18.8905
7038.46 29.8560
7043.29 48.2577
7048.13 80.2009
7052.96 136.368
7058.98 255.713
7065.00 370.047
7071.02 339.200
7077.04 240.889
7081.94 178.391
7086.85 136.070
7091.75 107.628
7096.65 87.9963
7106.46 63.6256
7116.26 49.6427
7126.07 40.8159
7135.87 34.8332
7155.48 27.3628
7175.09 22.9552
7194.70 20.0786
7214.31 18.0655
7233.92 16.5830
7273.14 14.5523
7312.36 13.2304
7351.58 12.3023
7390.80 11.6149
7469.24 10.6638
7508.46 10.3209
7547.68 10.0368
7586.90 9.79919
7606.51 9.69597
7626.12 9.60398
7635.92 9.56329
7645.73 9.52771
7655.53 9.50012
7665.34 9.48743
7670.24 9.49174
7675.14 9.50951
7680.04 9.55183
7684.95 9.64480
7687.40 9.72931
7689.85 9.86258
7692.30 10.0854
7694.75 10.4921
7695.98 10.8322
7697.20 11.3451
7698.43 12.1710
7699.65 13.6216
7700.27 14.7992
7700.88 16.5315
7701.49 19.2278
7702.10 23.7453
7702.72 32.1924
7703.02 39.4645
7703.33 50.6933
7703.64 69.3746
7703.94 103.067
7704.10 130.673
7704.25 170.839
7704.40 230.577
7704.55 319.291
7704.78 504.692
7705.00 627.828
7705.22 502.916
7705.45 317.515
7705.59 234.838
7705.73 177.748
7706.01 110.240
7706.29 75.2235
7706.57 55.3189
7706.85 43.0858
7707.13 35.0850
7707.69 25.6560
7708.25 20.5422
7708.81 17.4812
7709.93 14.1563
7711.05 12.4867
7712.17 11.5337
7713.29 10.9379
7714.41 10.5411
7716.65 10.0603
7718.89 9.78999
7721.13 9.62172
7723.37 9.50889
7727.86 9.36882
7732.34 9.28539
7736.82 9.22903
7741.30 9.18726
7750.26 9.12625
7759.23 9.08029
7777.15 9.00752
7795.08 8.94636
7813.01 8.89112
7848.86 8.79145
7884.71 8.70184
7920.56 8.61998
7992.27 8.47479
8135.68 8.23923
8279.09 8.05437
8565.91 7.77818
8852.72 7.57702
9139.54 7.42046
9426.36 7.29338
9569.77 7.23856
9713.18 7.18969
9784.89 7.16824
9856.59 7.15020
9892.44 7.14340
9928.30 7.13928
9964.15 7.14000
10000.0 7.15090
10016.1 7.16255
10032.2 7.18235
10048.3 7.21698
10064.4 7.28191
10072.5 7.33692
10080.5 7.42069
10088.6 7.55698
10096.6 7.80073
10100.6 8.00262
10104.7 8.30495
10108.7 8.79107
10112.7 9.64348
10114.7 10.3406
10116.7 11.3659
10118.7 12.9726
10120.8 15.7014
10122.8 20.9378
10123.8 25.5559
10124.8 32.8210
10125.8 45.4589
10126.8 69.4629
10127.3 90.8433
10127.8 123.326
10128.3 175.442
10128.8 259.981
10129.4 411.585
10130.0 512.050
10130.6 409.173
10131.2 257.024
10131.6 183.610
10132.0 134.797
10132.5 102.324
10132.9 80.1967
10133.7 53.4426
10134.6 38.9222
10135.4 30.0944
10136.2 24.4857
10137.9 17.9402
10139.6 14.4403
10141.2 12.3820
10142.9 11.0656
10144.6 10.1745
10147.9 9.08022
10151.3 8.46466
10154.6 8.08429
10158.0 7.83342
10164.6 7.53391
10171.3 7.36971
10178.0 7.26999
10184.7 7.20513
10198.1 7.12828
10211.4 7.08594
10224.8 7.05970
10238.2 7.04193
10264.9 7.01906
10291.7 7.00433
10318.4 6.99343
10345.2 6.98472
10398.7 6.97189
10425.4 6.96817
10452.1 6.96788
10478.9 6.97543
10492.3 6.98621
10505.6 7.00826
10512.3 7.02771
10519.0 7.05796
10525.7 7.10801
10532.4 7.19864
10535.7 7.27449
10539.1 7.38876
10542.4 7.57315
10545.8 7.89957
10547.4 8.16865
10549.1 8.56638
10550.8 9.19438
10552.4 10.2720
10554.1 12.3572
10555.0 14.2332
10555.8 17.2256
10556.6 22.5642
10557.5 33.0567
10557.9 42.6697
10558.3 58.1773
10558.7 84.5497
10559.1 129.000
10559.6 202.062
10560.0 250.512
10560.4 201.260
10560.9 128.016
10561.2 87.8642
10561.6 62.9337
10562.0 47.3065
10562.3 37.1448
10563.0 25.4336
10563.8 19.3748
10564.5 15.7919
10565.2 13.5413
10566.6 11.0042
10568.1 9.66981
10569.5 8.89446
10570.9 8.40208
10572.4 8.07042
10575.2 7.66480
10578.1 7.43759
10581.0 7.29698
10583.8 7.20460
10589.6 7.09388
10595.3 7.03284
10601.0 6.99546
10606.7 6.97078
10618.2 6.94082
10629.7 6.92352
10652.6 6.90388
10675.5 6.89206
10698.5 6.88325
10744.3 6.86913
10836.0 6.84532
10927.8 6.82331
11111.2 6.78158
11294.6 6.74244
11478.1 6.70656
11569.8 6.69048
11661.5 6.67649
11753.2 6.66626
11799.1 6.66385
11845.0 6.66518
11890.8 6.67476
11913.7 6.68664
11936.7 6.70968
11948.1 6.72947
11959.6 6.75980
11971.1 6.80948
11982.5 6.89881
11988.3 6.97320
11994.0 7.08518
11999.7 7.26563
12005.5 7.58469
12008.3 7.84606
12011.2 8.23237
12014.1 8.84320
12016.9 9.88400
12019.8 11.8932
12021.2 13.6694
12022.7 16.5129
12024.1 21.5050
12025.5 31.1937
12026.2 39.8583
12027.0 53.2951
12027.7 75.7081
12028.4 112.613
12029.2 176.290
12030.0 218.668
12030.8 175.828
12031.6 112.060
12032.6 67.1046
12033.5 44.1938
12034.4 31.6472
12035.3 24.3879
12036.3 19.7864
12037.2 16.7673
12039.0 13.1503
12040.9 11.1521
12042.7 9.94394
12046.4 8.62566
12050.1 7.95865
12053.8 7.57787
12057.5 7.33952
12061.2 7.18150
12068.6 6.99129
12076.0 6.88621
12083.4 6.82258
12090.7 6.78156
12105.5 6.73457
12120.3 6.71119
12149.8 6.69463
12179.4 6.69724
12209.0 6.71185
12268.1 6.77945
12297.6 6.84289
12327.2 6.94261
12356.7 7.10792
12386.3 7.40633
12401.1 7.65382
12415.8 8.02511
12430.6 8.61869
12445.4 9.65435
12452.8 10.4907
12460.2 11.7162
12467.6 13.6153
12475.0 16.7885
12482.3 22.6804
12486.0 27.7258
12489.7 35.4866
12493.4 48.3193
12497.1 71.3062
12499.0 90.0771
12500.8 117.084
12502.7 157.207
12504.5 216.081
12507.3 342.253
12510.0 425.923
12512.8 339.846
12515.5 213.245
12517.2 158.008
12518.9 119.575
12522.3 74.2373
12525.8 50.6389
12529.2 37.2651
12532.6 29.0240
12536.0 23.6536
12542.8 17.3277
12549.6 13.9023
12556.5 11.8548
12570.1 9.63655
12583.8 8.52924
12597.4 7.89983
12611.1 7.50876
12624.7 7.24944
12652.0 6.93758
12679.3 6.76398
12706.6 6.65683
12733.9 6.58543
12788.5 6.49734
12843.1 6.44487
12897.7 6.40905
12952.3 6.38199
13061.5 6.34096
13116.2 6.32407
13170.8 6.30890
13225.4 6.29592
13280.0 6.28895
13307.3 6.29382
13320.9 6.30303
13334.6 6.32383
13341.4 6.34323
13348.2 6.37444
13355.0 6.42796
13361.9 6.52825
13365.3 6.61425
13368.7 6.74611
13372.1 6.96273
13375.5 7.35349
13377.2 7.67891
13378.9 8.16792
13380.6 8.94989
13382.3 10.3008
13384.1 12.9714
13384.9 15.3752
13385.8 19.2976
13386.6 26.4171
13387.0 32.2924
13387.5 40.7734
13387.9 54.2641
13388.3 75.9281
13388.7 114.700
13389.2 182.819
13389.6 289.242
13390.0 360.637
13390.4 290.471
13390.8 184.372
13391.3 117.354
13391.7 79.9286
13392.1 57.4007
13392.5 43.7964
13392.9 34.6839
13393.3 28.6051
13394.1 20.9981
13394.9 16.6896
13395.7 14.0247
13397.3 11.0565
13398.9 9.51135
13400.6 8.61141
13402.2 8.04141
13403.8 7.65945
13407.0 7.18880
13410.3 6.92282
13413.5 6.75657
13416.7 6.64606
13423.2 6.51153
13429.7 6.43534
13436.1 6.38753
13442.6 6.35528
13455.5 6.31488
13468.5 6.29072
13494.3 6.26252
13520.2 6.24544
13546.1 6.23298
13597.8 6.21387
13649.6 6.19806
13701.3 6.18370
13804.8 6.15707
13908.3 6.13253
13960.0 6.12155
14011.8 6.11261
14063.5 6.10880
14089.4 6.11173
14115.3 6.12275
14128.2 6.13443
14141.2 6.15416
14154.1 6.18890
14167.0 6.25496
14173.5 6.31175
14180.0 6.39920
14186.4 6.54313
14192.9 6.80293
14196.1 7.01994
14199.4 7.34593
14202.6 7.87149
14205.8 8.79157
14207.5 9.53946
14209.1 10.6389
14210.7 12.3483
14212.3 15.1896
14213.9 20.4973
14214.7 25.0343
14215.5 31.9154
14216.3 43.3295
14217.2 63.6846
14218.0 103.725
14218.4 137.703
14218.8 186.938
14219.4 295.134
14220.0 367.125
14220.6 295.220
14221.2 187.072
14221.8 121.818
14222.4 83.9960
14222.9 60.8521
14223.5 46.5334
14224.6 30.3596
14225.8 22.1989
14226.9 17.4872
14228.0 14.5607
14230.3 11.2873
14232.5 9.58466
14234.8 8.59663
14237.0 7.96829
14239.3 7.54748
14243.8 7.03266
14248.3 6.74225
14252.8 6.56228
14257.3 6.44291
14266.3 6.29889
14275.4 6.21808
14284.4 6.16775
14293.4 6.13392
14311.4 6.09175
14329.5 6.06639
14347.5 6.04908
14365.6 6.03609
14401.6 6.01674
14437.7 6.00173
14509.9 5.97694
14582.0 5.95490
14654.2 5.93398
14798.5 5.89403
14942.8 5.85783
15015.0 5.84334
15087.2 5.83508
15159.3 5.84249
15195.4 5.86062
15231.5 5.90210
15249.5 5.94024
15267.6 6.00054
15285.6 6.10111
15303.6 6.28342
15312.7 6.43454
15321.7 6.66071
15330.7 7.02044
15339.7 7.64288
15348.7 8.86116
15353.3 9.96222
15357.8 11.7630
15362.3 14.9981
15364.5 17.6764
15366.8 21.6457
15369.0 27.9023
15371.3 38.3098
15373.5 56.8952
15375.8 91.3696
15377.9 142.648
15380.0 176.287
15382.1 141.452
15384.2 90.2398
15386.1 59.6888
15388.1 41.7527
15390.0 31.0175
15391.9 24.3043
15395.7 16.7967
15399.5 12.9948
15403.4 10.8299
15407.2 9.48789
15414.9 7.98656
15422.5 7.21231
15430.2 6.76353
15437.9 6.48025
15445.5 6.29004
15460.8 6.05786
15476.2 5.92635
15491.5 5.84380
15506.8 5.78796
15537.5 5.71741
15568.1 5.67390
15629.4 5.61906
15690.7 5.58085
15752.0 5.54871
15874.6 5.49037
16119.8 5.37532
16365.0 5.25235
16610.2 5.11947
16855.4 4.98205
16978.0 4.91957
17100.6 4.87969
17161.9 4.88741
17192.5 4.91059
17223.2 4.96349
17253.8 5.08655
17269.2 5.21019
17284.5 5.43121
17299.8 5.88237
17307.5 6.30714
17315.1 7.03357
17322.8 8.43128
17326.6 9.67204
17330.4 11.6627
17334.3 15.1378
17338.1 21.9528
17340.0 28.0513
17341.9 37.6533
17343.9 53.6624
17345.8 80.5351
17347.9 125.812
17350.0 155.766
17352.1 125.183
17354.2 79.7814
17356.3 51.8190
17358.3 35.7707
17360.3 26.3397
17362.3 20.5192
17366.4 14.0834
17370.4 10.8738
17374.4 9.05638
17378.5 7.93920
17386.5 6.69578
17394.6 6.06102
17402.7 5.69662
17418.8 5.32181
17434.9 5.14974
17451.1 5.06452
17483.3 5.01079
17547.9 5.11979
17612.4 5.48321
17644.7 5.82264
17677.0 6.35343
17709.2 7.22054
17741.5 8.73883
17773.8 11.6978
17789.9 14.3296
17806.1 18.5336
17822.2 25.8072
17838.3 39.7951
17846.4 52.0087
17854.5 70.8998
17862.5 101.265
17870.6 150.539
17880.3 239.410
17890.0 298.652
17899.7 238.811
17909.4 150.042
17919.2 93.1517
17929.0 61.5622
17938.7 43.4338
17948.5 32.3812
17958.3 25.2412
17968.0 20.3949
17987.6 14.4583
18007.1 11.1085
18026.7 9.03319
18065.7 6.68548
18104.8 5.43227
18143.9 4.65994
18183.0 4.12927
18222.1 3.73145
18300.2 3.13752
18378.4 2.66484
18456.5 2.23308
18534.7 1.80607
18691.0 0.917489
18769.2 0.483107
18808.3 0.296462
18847.4 0.159644
18866.9 0.122471
18886.4 0.116387
18906.0 0.152421
18925.5 0.245622
18945.1 0.416665
18964.6 0.694267
18984.1 1.11880
19003.7 1.74774
19023.2 2.66412
19042.8 3.98962
19062.3 5.90513
19081.8 8.68302
19101.4 12.7367
19120.9 18.6921
19140.5 27.4719
19160.0 40.3281
19180.0 59.0919
19200.0 83.8106
19240.0 131.819
19260.0 137.850
19280.0 129.524
19320.0 97.5880
19368.7 66.8327
19417.4 48.7853
19466.1 37.9977
19514.7 31.0901
19563.4 26.3568
19612.1 22.9083
19636.4 21.5019
19660.8 20.2556
19672.9 19.6929
19679.0 19.4326
19685.1 19.1964
19691.2 19.0064
19694.2 18.9480
19697.3 18.9425
19700.3 19.0550
19701.9 19.2093
19703.4 19.5085
19704.9 20.1289
19705.7 20.7016
19706.4 21.6486
19707.2 23.3764
19707.6 24.8308
19707.9 27.0472
19708.3 30.6581
19708.7 37.0740
19708.9 42.2685
19709.1 49.7674
19709.3 60.8400
19709.5 78.0985
19709.7 111.143
19710.0 130.425
19710.3 104.789
19710.5 70.1318
19710.8 47.7302
19711.1 35.9665
19711.4 29.5541
19711.7 25.9076
19712.0 23.5364
19712.3 22.0245
19712.8 20.1981
19713.4 19.2141
19714.0 18.6299
19715.1 18.0031
19716.3 17.6867
19717.4 17.5016
19719.7 17.2833
19724.3 17.0247
19728.8 16.8166
19737.9 16.4096
19747.1 15.9857
19756.2 15.5362
19765.3 15.0547
19783.6 13.9439
19801.9 12.4755
19811.0 11.4897
19820.1 10.2025
19829.3 8.40468
19833.8 7.20247
19838.4 5.71318
19843.0 3.88177
19845.3 2.87972
19847.5 1.94887
19848.7 1.60087
19849.8 1.44573
19851.0 1.64114
19851.5 1.95342
19852.1 2.47753
19852.7 3.28883
19853.2 4.49073
19853.8 6.22573
19854.4 8.69049
19855.0 12.1555
19855.5 16.9883
19856.1 23.6750
19856.7 32.8225
19857.5 52.1861
19858.3 79.2384
19860.0 140.605
19860.8 154.780
19861.7 152.206
19863.3 123.991
19864.4 105.418
19865.5 90.3873
19867.6 69.7119
19869.8 57.0774
19871.9 48.9090
19874.0 43.2517
19876.2 39.1748
19880.4 33.6987
19884.7 30.2227
19889.0 27.8277
19897.5 24.7418
19906.1 22.8311
19914.6 21.5231
19931.7 19.8296
19965.8 18.0389
20000.0 17.1417
20049.9 16.7249
20074.8 16.9538
20099.7 17.6827
20124.6 19.3917
20137.1 20.9684
20149.6 23.4616
20162.0 27.6020
20174.5 34.9379
20186.9 49.0355
20193.2 60.8587
20199.4 77.7011
20209.7 117.189
20220.0 143.871
20230.3 117.658
20240.6 78.2627
20248.2 58.3573
20255.8 45.3548
20263.3 36.8161
20270.9 31.0467
20286.0 24.1042
20301.2 20.2894
20316.3 17.9726
20331.5 16.4547
20361.7 14.6226
20392.0 13.5678
20422.3 12.8789
20482.9 12.0092
20543.4 11.4537
20604.0 11.0468
20725.1 10.4532
20846.3 10.0136
20967.4 9.65921
21209.7 9.09353
21451.9 8.62132
21694.2 8.14624
21815.3 7.85697
21875.9 7.67884
21936.4 7.46023
21997.0 7.17353
22027.3 6.98939
22057.6 6.76429
22087.9 6.48289
22103.0 6.31647
22118.1 6.13422
22133.3 5.95205
22140.8 5.88034
22148.4 5.85654
22152.2 5.88558
22156.0 5.96996
22159.8 6.15852
22163.6 6.55916
22165.5 6.91687
22167.3 7.46499
22169.2 8.34798
22171.1 9.86926
22173.0 12.7883
22174.0 15.3346
22174.9 19.2727
22175.9 25.9449
22176.8 38.0612
22177.3 48.3682
22177.8 63.2886
22178.2 85.8177
22178.7 119.840
22179.4 188.693
22180.0 232.935
22180.7 185.921
22181.3 117.738
22181.9 78.1796
22182.5 54.3447
22183.0 39.7751
22183.6 30.4788
22184.7 19.9569
22185.9 14.5743
22187.0 11.4301
22188.1 9.46606
22190.4 7.19428
22192.7 5.95882
22194.9 5.18421
22197.2 4.64218
22199.5 4.22776
22204.0 3.58945
22208.6 3.06393
22217.7 2.07719
22226.7 1.04559
22231.3 0.550030
22233.6 0.341153
22235.8 0.191316
22238.1 0.147213
22240.4 0.289056
22241.5 0.471227
22242.6 0.757877
22243.8 1.19011
22244.9 1.80896
22246.0 2.69305
22247.2 3.91969
22248.3 5.64171
22249.4 8.01053
22250.6 11.3253
22251.7 15.8793
22252.9 22.2307
22254.0 30.8587
22255.5 47.0787
22257.0 69.0029
22260.0 114.962
22261.5 123.169
22263.0 118.237
22266.0 92.3862
22269.1 69.3861
22272.1 54.0786
22275.1 44.0649
22278.1 37.2912
22284.2 28.9343
22290.2 24.1378
22296.3 21.0709
22302.4 18.9657
22314.5 16.2773
22326.6 14.6453
22338.7 13.5533
22362.9 12.1871
22387.1 11.3659
22411.3 10.8168
22459.8 10.1249
22508.2 9.70226
22556.6 9.41382
22653.5 9.03824
22847.2 8.62757
23041.0 8.40013
23234.7 8.27301
23331.6 8.25084
23428.4 8.27791
23476.9 8.32512
23525.3 8.41380
23573.7 8.57688
23622.2 8.88958
23646.4 9.15517
23670.6 9.55664
23694.8 10.1981
23719.0 11.3055
23743.3 13.4490
23755.4 15.3538
23767.5 18.4014
23779.6 23.6992
23791.7 33.9839
23797.8 43.0554
23803.8 57.2007
23809.9 80.2239
23815.9 118.208
23823.0 185.011
23830.0 229.759
23837.1 185.225
23844.1 118.586
23851.9 72.5762
23859.8 48.4231
23867.6 35.1614
23875.5 27.3327
23883.3 22.3807
23891.1 19.0801
23906.8 15.1067
23922.5 12.9090
23938.1 11.5732
23969.5 10.1041
24000.8 9.36197
24032.2 8.94339
24094.9 8.55078
24157.5 8.49267
24188.9 8.59643
24220.2 8.86180
24251.6 9.47671
24267.3 10.0715
24282.9 11.0784
24298.6 12.9401
24306.4 14.5072
24314.3 16.8672
24322.1 20.6252
24329.9 26.9908
24337.8 38.5937
24345.6 60.6074
24352.8 93.4379
24360.0 116.121
24367.2 95.1123
24374.4 62.7389
24380.1 45.3171
24385.8 34.2709
24391.5 27.2047
24397.1 22.5313
24408.5 17.0398
24419.9 14.1037
24431.2 12.3632
24442.6 11.2510
24465.3 9.96027
24488.0 9.26401
24510.8 8.84279
24556.2 8.37247
24601.6 8.12234
24647.1 7.96842
24738.0 7.78700
24828.9 7.67961
24919.8 7.60499
25101.6 7.50046
25283.3 7.42389
25465.1 7.36097
25556.0 7.33293
25646.9 7.30792
25692.4 7.29871
25737.8 7.29963
25760.5 7.31523
25771.9 7.33544
25783.3 7.37682
25794.6 7.47223
25800.3 7.57043
25806.0 7.75130
25808.8 7.90354
25811.7 8.13427
25814.5 8.50641
25817.3 9.16014
25820.2 10.4609
25821.6 11.6509
25823.0 13.6154
25824.4 17.1796
25825.1 20.1449
25825.9 24.5849
25826.6 31.5962
25827.3 43.3969
25828.0 64.6791
25828.7 104.608
25829.4 163.933
25830.0 203.166
25830.7 164.446
25831.3 106.452
25831.8 76.7597
25832.3 57.2449
25832.8 44.4064
25833.2 35.7348
25834.2 25.3384
25835.1 19.7281
25836.1 16.3332
25837.1 14.1744
25839.0 11.6528
25840.9 10.2981
25842.8 9.49483
25844.7 8.97682
25846.6 8.62301
25850.4 8.18265
25854.3 7.92975
25858.1 7.76981
25861.9 7.66235
25869.6 7.52991
25877.2 7.45375
25892.5 7.37218
25907.8 7.33002
25923.1 7.30425
25953.7 7.27338
25984.3 7.25419
26014.9 7.23996
26076.0 7.21802
26198.4 7.18381
26320.8 7.15426
26565.5 7.10066
26810.2 7.05096
27299.7 6.95767
27789.1 6.86745
28278.6 6.77364
28768.0 6.66149
29012.8 6.58414
29257.5 6.46228
29379.9 6.35651
29441.1 6.27688
29502.2 6.16205
29563.4 5.97819
29594.0 5.83581
29624.6 5.62840
29655.2 5.29681
29670.5 5.04295
29685.8 4.68028
29693.4 4.43359
29701.1 4.12018
29708.7 3.70982
29716.4 3.15352
29724.0 2.36670
29727.8 1.84966
29731.7 1.23839
29735.5 0.571721
29737.4 0.287843
29739.3 0.161525
29740.3 0.232222
29741.2 0.468206
29742.2 0.982425
29743.1 1.94434
29744.1 3.69029
29745.0 6.73155
29746.0 12.1038
29747.0 21.2697
29747.7 32.9090
29748.5 48.6986
29750.0 82.2806
29750.8 88.7500
29751.5 85.6375
29753.1 67.6077
29754.1 55.3622
29755.2 45.9941
29756.3 39.0689
29757.4 33.9183
29759.6 26.9938
29761.8 22.6975
29763.9 19.8060
29766.1 17.7654
29770.5 15.0852
29774.8 13.4238
29779.2 12.3004
29787.9 10.8860
29796.6 10.0358
29805.3 9.46986
29814.0 9.06662
29822.7 8.76491
29840.1 8.34379
29857.5 8.06394
29892.3 7.71506
29927.1 7.50603
29961.9 7.36678
30031.5 7.19277
30170.7 7.02104
30309.9 6.94424
30449.1 6.92135
30518.7 6.93340
30588.3 6.97400
30657.9 7.07780
30692.7 7.18475
30727.5 7.37793
30762.3 7.77330
30779.7 8.14416
30797.1 8.77160
30814.5 9.95058
30823.2 10.9660
30831.9 12.5388
30840.6 15.1390
30849.3 19.8088
30858.0 29.0706
30862.4 37.1076
30866.7 48.8900
30873.4 74.7799
30880.0 92.6046
30886.7 76.1706
30893.3 50.6656
30898.3 37.4305
30903.3 28.8070
30908.3 23.1752
30913.3 19.3918
30923.2 14.8787
30933.2 12.4346
30943.2 10.9784
30953.2 10.0461
30973.1 8.97114
30993.1 8.40333
31013.0 8.07298
31053.0 7.73951
31092.9 7.60876
31132.8 7.57894
31212.6 7.71642
31292.4 8.16034
31332.3 8.59789
31372.3 9.34168
31412.2 10.7507
31432.1 11.9884
31452.1 13.9674
31472.0 17.4444
31482.0 20.2704
31492.0 24.4286
31502.0 30.8969
31512.0 41.6215
31521.9 60.7000
31531.9 95.9581
31541.0 145.628
31550.0 175.117
31559.1 136.642
31568.1 84.8377
31576.7 54.0396
31585.3 36.7804
31594.0 26.8410
31602.6 20.8021
31619.8 14.3217
31637.0 11.1944
31654.3 9.48965
31671.5 8.47626
31706.0 7.40748
31740.4 6.90371
31774.9 6.63925
31843.8 6.40634
31912.7 6.33442
31981.7 6.33183
32119.5 6.45680
32257.4 6.82154
32326.3 7.20099
32395.2 7.88334
32464.1 9.25228
32498.6 10.4980
32533.1 12.5276
32567.5 16.1191
32602.0 23.2351
32619.2 29.6144
32636.4 39.7291
32653.7 56.5035
32670.9 84.8044
32690.5 134.201
32710.0 168.497
32729.6 137.176
32749.1 88.6674
32765.3 61.5617
32781.4 44.7024
32797.6 34.1029
32813.8 27.1838
32846.1 19.1536
32878.4 14.9092
32910.7 12.4092
32943.1 10.8149
33007.7 8.96360
33072.4 7.95835
33137.0 7.34048
33266.3 6.62223
33395.6 6.20012
33524.9 5.89506
33783.5 5.38493
34042.1 4.80595
34171.4 4.41898
34300.7 3.90302
34430.0 3.16193
34494.7 2.65396
34559.3 2.01019
34624.0 1.19883
34656.3 0.740865
34688.6 0.301041
34704.8 0.128862
34712.9 0.0698762
34720.9 0.0389108
34729.0 0.0468486
34737.1 0.108564
34745.2 0.244538
34753.3 0.483191
34761.3 0.864872
34769.4 1.44480
34777.5 2.30306
34785.6 3.55337
34793.7 5.35797
34801.7 7.94615
34809.8 11.6333
34817.9 16.8271
34828.4 26.6002
34839.0 40.2352
34860.0 70.2591
34870.5 76.6740
34881.1 74.7917
34902.1 60.0157
34915.4 50.7243
34928.7 43.2520
34955.2 33.0108
34981.8 26.7689
35008.3 22.7285
35034.9 19.9535
35061.4 17.9518
35114.5 15.2871
35167.6 13.6177
35194.2 13.0074
35220.7 12.5107
35247.3 12.1290
35260.5 11.9977
35273.8 11.9394
35280.5 11.9596
35287.1 12.0398
35293.7 12.2261
35300.4 12.6211
35307.0 13.4962
35310.3 14.3341
35313.6 15.7471
35317.0 18.3496
35318.6 20.5313
35320.3 23.8107
35321.9 29.0039
35323.6 37.7599
35325.3 53.5613
35326.9 82.9635
35328.5 127.227
35330.0 157.256
35331.6 128.775
35333.1 85.2636
35334.5 58.7616
35335.9 43.1202
35337.4 33.7153
35338.8 27.8140
35341.6 21.1367
35344.4 17.7261
35347.3 15.7484
35350.1 14.5061
35355.8 13.0736
35361.4 12.2989
35367.1 11.8218
35372.8 11.4993
35378.5 11.2653
35389.8 10.9421
35401.1 10.7210
35423.8 10.4158
35446.5 10.1956
35469.2 10.0180
35514.5 9.73568
35559.9 9.52176
35582.5 9.44140
35605.2 9.38880
35627.9 9.39215
35639.2 9.44059
35650.6 9.56064
35661.9 9.84708
35667.6 10.1320
35673.2 10.6265
35678.9 11.5724
35681.8 12.3975
35684.6 13.6811
35687.4 15.8326
35690.3 19.7401
35691.7 22.9733
35693.1 27.6655
35694.5 34.7309
35695.9 45.2093
35698.0 67.1622
35700.0 81.8080
35702.1 67.2946
35704.1 45.5147
35705.4 35.5091
35706.7 28.6655
35709.4 20.6411
35712.0 16.5315
35714.7 14.2116
35717.3 12.7900
35720.0 11.8605
35725.3 10.7625
35730.6 10.1600
35735.9 9.79289
35746.5 9.37941
35757.1 9.15687
35767.6 9.01737
35788.8 8.84614
35810.0 8.73701
35831.2 8.65508
35873.6 8.52866
35915.9 8.42717
35958.3 8.33976
36043.0 8.19284
36127.7 8.07729
36170.1 8.03465
36212.5 8.01119
36254.8 8.03233
36276.0 8.08347
36297.2 8.20031
36318.4 8.47514
36329.0 8.75026
36339.6 9.23204
36350.1 10.1625
36355.4 10.9778
36360.7 12.2509
36366.0 14.3790
36371.3 18.2267
36376.6 25.9393
36379.3 32.6788
36381.9 42.5695
36386.0 64.5683
36390.0 80.0937
36394.1 66.6744
36398.1 45.2809
36400.9 34.9115
36403.6 27.8701
36406.4 23.0811
36409.1 19.7558
36414.6 15.6382
36420.1 13.3271
36425.6 11.9080
36431.1 10.9794
36442.1 9.87445
36453.1 9.26341
36464.1 8.88749
36486.2 8.46148
36508.2 8.23164
36530.2 8.08907
36574.2 7.91981
36618.2 7.81927
36662.3 7.74960
36750.3 7.65390
36838.4 7.58794
36926.4 7.53975
37102.6 7.48648
37278.7 7.50966
37366.7 7.57782
37454.8 7.73055
37542.8 8.08015
37586.9 8.42535
37630.9 9.02908
37674.9 10.2119
37696.9 11.2744
37719.0 12.9942
37741.0 16.0331
37763.0 22.0929
37774.0 27.5973
37785.0 36.4608
37796.0 51.5381
37807.0 77.7384
37818.5 119.860
37830.0 147.598
37841.5 119.052
37853.0 76.7963
37860.2 58.0811
37867.5 45.0873
37881.9 29.7507
37896.3 21.8093
37910.8 17.3069
37925.2 14.5417
37939.7 12.7364
37968.6 10.6095
37997.5 9.45735
38026.3 8.76500
38084.1 8.00883
38141.9 7.62359
38199.7 7.39804
38315.2 7.15020
38430.8 7.01543
38488.5 6.96721
38546.3 6.92662
38604.1 6.89264
38661.9 6.87139
38690.8 6.87869
38705.2 6.89784
38719.6 6.94443
38726.9 6.98940
38734.1 7.06300
38741.3 7.19023
38748.5 7.42878
38752.1 7.63064
38755.8 7.93605
38759.4 8.42463
38763.0 9.26733
38766.6 10.8842
38768.4 12.3054
38770.2 14.5261
38772.0 18.2863
38773.8 25.1673
38774.7 30.9554
38775.6 39.3920
38776.5 52.0960
38777.4 71.2323
38778.7 111.593
38780.0 139.520
38781.3 114.398
38782.6 75.1550
38783.5 55.5034
38784.4 42.4786
38785.3 33.7401
38786.2 27.7396
38788.1 20.3813
38789.9 16.3245
38791.7 13.8506
38793.5 12.2521
38797.2 10.3657
38800.8 9.33899
38804.5 8.71689
38808.1 8.31004
38811.8 8.02837
38819.1 7.67187
38826.4 7.46109
38833.7 7.32469
38841.0 7.23042
38855.6 7.11016
38870.2 7.03738
38899.4 6.95365
38928.6 6.90587
38957.8 6.87387
39016.2 6.83110
39074.6 6.80137
39133.0 6.77786
39249.8 6.74016
39366.5 6.70911
39483.3 6.68224
39541.7 6.67128
39600.1 6.66787
39629.3 6.67860
39643.9 6.69473
39658.5 6.72972
39673.1 6.81334
39680.4 6.90045
39687.7 7.06060
39695.0 7.39389
39698.7 7.70889
39702.3 8.24239
39706.0 9.23975
39707.8 10.0938
39709.6 11.3941
39711.5 13.5175
39713.3 17.2038
39715.1 24.1813
39716.9 38.1413
39718.5 57.9129
39720.0 71.6543
39721.6 59.4039
39723.1 40.1773
39724.7 27.4502
39726.2 20.3390
39727.8 16.1958
39729.4 13.6676
39730.9 12.0126
39732.5 10.8897
39735.6 9.49819
39738.7 8.70608
39741.9 8.21246
39748.1 7.65317
39754.4 7.35834
39760.7 7.18275
39766.9 7.06897
39773.2 6.99054
39785.7 6.89138
39798.2 6.83248
39823.2 6.76722
39848.3 6.73238
39873.3 6.71081
39923.4 6.68541
39973.5 6.67097
40023.5 6.66197
40123.7 6.65349
40324.0 6.66524
40524.3 6.72782
40724.5 6.89983
40824.7 7.07892
40924.8 7.39902
41025.0 8.03867
41075.1 8.62481
41125.1 9.59789
41175.2 11.3929
41200.2 12.9230
41225.3 15.2821
41250.3 19.1874
41275.3 26.2697
41287.9 32.1159
41300.4 40.6976
41312.9 53.6179
41325.4 73.0520
41342.7 111.369
41360.0 135.164
41377.3 107.025
41394.6 67.7193
41407.4 48.2169
41420.2 35.6861
41433.0 27.5886
41445.8 22.2028
41471.4 15.8657
41496.9 12.5023
41522.5 10.5357
41548.1 9.29964
41599.3 7.90539
41650.4 7.18678
41701.6 6.77283
41803.9 6.34462
41906.3 6.14568
42008.6 6.04743
42213.3 6.01926
42417.9 6.24737
42520.3 6.56194
42622.6 7.18472
42724.9 8.49842
42776.1 9.70638
42827.2 11.6530
42878.4 14.9898
42929.6 21.1838
42980.7 33.8744
43006.3 45.1472
43031.9 61.9847
43071.0 100.055
43110.0 128.398
43149.1 106.848
43188.1 70.4831
43217.4 51.1922
43246.7 38.4201
43276.0 29.9319
43305.3 24.1103
43363.9 16.8827
43422.5 12.6001
43481.1 9.59439
43539.7 7.02789
43569.0 5.75041
43598.3 4.55481
43613.0 4.20017
43627.6 4.49738
43634.9 5.24432
43642.3 6.82251
43649.6 9.90256
43656.9 15.6183
43662.7 23.0367
43668.5 33.5909
43680.0 57.6823
43685.8 63.3738
43691.6 62.5295
43703.1 51.6342
43714.3 41.1723
43725.4 33.7558
43736.6 28.6739
43747.8 25.1007
43770.1 20.5269
43792.4 17.7701
43814.7 15.9363
43837.0 14.6277
43881.7 12.8724
43926.3 11.7347
43971.0 10.9264
44060.3 9.83202
44149.6 9.10555
44238.8 8.57390
44283.5 8.35646
44328.1 8.17074
44350.5 8.09996
44361.6 8.07876
44372.8 8.08007
44383.9 8.13656
44389.5 8.21466
44395.1 8.37141
44400.7 8.71084
44403.5 9.03423
44406.3 9.57963
44409.0 10.5861
44410.4 11.4354
44411.8 12.7053
44413.2 14.7361
44414.6 18.1449
44416.0 24.3643
44417.4 35.9995
44418.7 53.5409
44420.0 65.5828
44421.3 54.5255
44422.6 37.4046
44423.6 27.8935
44424.7 21.9020
44425.7 18.1000
44426.8 15.6208
44428.9 12.6927
44431.0 11.1413
44433.1 10.2192
44435.2 9.63190
44439.4 8.94615
44443.5 8.57313
44447.7 8.34421
44456.1 8.08120
44464.5 7.93321
44472.9 7.83526
44489.6 7.70483
44506.4 7.61238
44523.1 7.53666
44556.7 7.40806
44623.7 7.18635
44690.7 6.98107
44824.8 6.57197
44958.8 6.11124
45092.9 5.50788
45159.9 5.09776
45226.9 4.55456
45293.9 3.78229
45327.4 3.25665
45361.0 2.59194
45394.5 1.74951
45428.0 0.775866
45436.4 0.560780
45444.7 0.403277
45453.1 0.360984
45457.3 0.413162
45461.5 0.538966
45465.7 0.766667
45469.9 1.13426
45474.1 1.69460
45478.3 2.52086
45482.4 3.71403
45486.6 5.41190
45490.8 7.79766
45495.0 11.0932
45501.3 18.2863
45507.5 28.6877
45520.0 53.1460
45526.3 59.4499
45532.5 59.2890
45545.0 49.3754
45553.1 42.4119
45561.1 36.6844
45577.2 28.6915
45593.3 23.7427
45609.3 20.5065
45625.4 18.2627
45641.5 16.6325
45673.7 14.4392
45705.8 13.0408
45738.0 12.0749
45802.3 10.8272
45866.7 10.0523
45931.0 9.51789
45963.2 9.30470
45995.3 9.11343
46027.5 8.92473
46043.6 8.80592
46051.6 8.73192
46055.6 8.82213
46056.6 9.00445
46057.6 9.57440
46058.2 10.3603
46058.7 12.2324
46058.9 14.2543
46059.2 18.1241
46059.4 26.4690
46059.5 34.6835
46059.7 47.6665
46059.8 73.9219
46060.0 93.6853
46060.2 79.6726
46060.3 54.8667
46060.5 42.3794
46060.6 34.3800
46060.8 24.7907
46061.0 19.5396
46061.2 16.6504
46061.7 13.5577
46062.1 12.0607
46063.0 10.6890
46063.9 10.0828
46065.7 9.55074
46067.5 9.31700
46071.1 9.10410
46074.7 9.00216
46081.9 8.89483
46089.1 8.83121
46103.5 8.74446
46117.9 8.67802
46146.7 8.56824
46175.5 8.47398
46233.1 8.31173
46290.6 8.17324
46520.9 7.75622
46751.1 7.45499
46981.4 7.20305
47211.7 6.96291
47326.8 6.83694
47441.9 6.70055
47557.1 6.54807
47672.2 6.37918
47729.8 6.30322
47758.5 6.28273
47787.3 6.29932
47801.7 6.33858
47816.1 6.41985
47830.5 6.58019
47844.9 6.90358
47859.3 7.61122
47866.5 8.28985
47873.7 9.43299
47880.9 11.5326
47888.1 15.8652
47891.7 19.8973
47895.3 26.5063
47898.9 37.9330
47902.4 58.1203
47906.2 91.7971
47910.0 116.217
47913.8 96.4932
47917.6 63.9866
47921.2 43.1918
47924.8 31.0749
47928.4 23.8222
47932.1 19.2737
47935.7 16.2507
47939.3 14.1590
47946.6 11.5220
47953.8 9.98315
47961.1 9.00067
47975.6 7.84551
47990.1 7.19722
48004.6 6.77939
48033.6 6.24912
48062.6 5.88841
48091.5 5.58704
48149.5 4.99257
48207.5 4.24086
48236.5 3.73557
48265.5 3.08458
48294.5 2.21871
48309.0 1.68351
48323.5 1.08653
48338.0 0.494308
48345.3 0.271538
48352.5 0.200379
48356.1 0.272773
48359.8 0.463105
48363.4 0.827733
48367.0 1.44558
48370.6 2.43948
48374.3 3.97758
48377.9 6.30907
48381.5 9.76759
48386.1 16.4655
48390.8 26.2319
48400.0 49.6528
48404.6 55.9742
48409.3 56.1759
48418.5 47.2431
48426.8 38.5267
48435.1 32.0034
48443.4 27.3598
48451.6 24.0135
48468.2 19.6484
48484.8 16.9940
48501.3 15.2355
48517.9 13.9938
48551.0 12.3659
48584.1 11.3501
48617.2 10.6570
48683.5 9.77096
48749.7 9.22587
48816.0 8.85423
48948.5 8.37403
49080.9 8.07362
49147.2 7.96516
49213.4 7.88541
49246.6 7.86156
49279.7 7.85660
49312.8 7.88615
49345.9 7.98819
49379.0 8.27077
49395.6 8.57463
49412.2 9.12995
49428.7 10.2478
49437.0 11.2569
49445.3 12.8755
49453.6 15.6582
49461.8 20.8982
49466.0 25.3347
49470.1 31.9653
49474.3 42.1356
49478.4 57.7773
49484.2 90.4333
49490.0 114.346
49495.8 95.5437
49501.6 64.1766
49505.5 49.0135
49509.4 38.5885
49513.3 31.4144
49517.2 26.4068
49525.0 20.1474
49532.8 16.5916
49540.5 14.3885
49548.3 12.9328
49563.9 11.1858
49579.5 10.2088
49595.1 9.60247
49626.2 8.90813
49657.4 8.53066
49688.5 8.29600
49719.7 8.13603
49750.8 8.01943
49813.1 7.85869
49875.4 7.75040
49937.7 7.67025
50000.0 7.60707
50059.9 7.55702
50089.9 7.53544
50104.9 7.52692
50112.4 7.52818
50116.1 7.54709
50118.0 7.61832
50118.9 7.85237
50119.4 8.50749
50119.6 9.84954
50119.9 17.0137
50120.0 26.3358
50120.1 16.8354
50120.3 10.8501
50120.5 9.14493
50120.8 8.12303
50121.4 7.69432
50122.6 7.55795
50125.0 7.51983
50129.9 7.50807
50139.6 7.50017
50159.1 7.48783
50198.1 7.46489
50276.1 7.42357
50432.0 7.35507
50587.9 7.30073
50743.8 7.25875
50899.7 7.23260
50977.7 7.23002
51055.6 7.24222
51133.6 7.28813
51172.5 7.34036
51211.5 7.43785
51250.5 7.64029
51270.0 7.83087
51289.5 8.15376
51309.0 8.76428
51318.7 9.29565
51328.4 10.1290
51338.2 11.5404
51347.9 14.1750
51352.8 16.4094
51357.7 19.7723
51362.5 24.9934
51367.4 33.1364
51373.7 48.5196
51380.0 58.5099
51386.3 47.9006
51392.6 32.4043
51399.9 21.3849
51407.3 15.8095
51414.6 12.8292
51422.0 11.1025
51429.3 10.0270
51436.7 9.31916
51451.3 8.47903
51466.0 8.02112
51480.7 7.74574
51510.1 7.44544
51539.4 7.29365
51568.8 7.20581
51627.6 7.11156
51686.3 7.06283
51745.0 7.03321
51862.5 7.00096
51980.0 6.99657
52038.7 7.01230
52097.5 7.05617
52156.2 7.16958
52185.6 7.28906
52214.9 7.50652
52244.3 7.94669
52259.0 8.34896
52273.7 9.00406
52288.4 10.1602
52303.0 12.4295
52310.4 14.4391
52317.7 17.5812
52325.1 22.6905
52332.4 31.1024
52341.2 46.5125
52350.0 57.5123
52358.8 48.2282
52367.6 33.2575
52377.5 22.5650
52387.4 16.9002
52397.3 13.7610
52407.2 11.8884
52417.1 10.6930
52427.0 9.88824
52446.8 8.90584
52466.6 8.35070
52486.4 8.00553
52526.0 7.61277
52565.6 7.40285
52605.2 7.27529
52684.5 7.13023
52763.7 7.05006
52842.9 6.99836
53001.3 6.93278
53159.7 6.88974
53318.2 6.85696
53635.0 6.80598
53951.9 6.76523
54110.3 6.74790
54268.7 6.73374
54427.1 6.72724
54506.3 6.73157
54585.6 6.74931
54664.8 6.80236
54704.4 6.86232
54744.0 6.97686
54783.6 7.22208
54803.4 7.45717
54823.2 7.85818
54843.0 8.61124
54852.9 9.25363
54862.8 10.2346
54872.7 11.8184
54882.6 14.5550
54892.5 19.6547
54902.4 29.6287
54911.2 44.2999
54920.0 54.8462
54928.8 46.1507
54937.6 31.9557
54946.7 22.3667
54955.8 17.0139
54965.0 13.9265
54974.1 12.0368
54983.2 10.8072
54992.3 9.96824
55010.5 8.93040
55028.8 8.33808
55047.0 7.96817
55083.4 7.54916
55119.9 7.33065
55156.4 7.20525
55229.3 7.09029
55302.2 7.08782
55338.6 7.13532
55375.1 7.24367
55411.6 7.48584
55429.8 7.72021
55448.0 8.12479
55466.2 8.90868
55475.4 9.60934
55484.5 10.7406
55493.6 12.7427
55498.2 14.3713
55502.7 16.7559
55507.3 20.4370
55511.8 26.4228
55516.4 36.7896
55520.9 55.1738
55525.5 83.5321
55530.0 101.837
55534.5 82.0774
55539.1 53.3670
55543.2 36.4614
55547.3 26.5487
55551.4 20.5972
55555.5 16.8700
55563.7 12.7201
55571.9 10.6281
55580.1 9.44270
55588.3 8.71158
55604.8 7.89949
55621.2 7.48530
55637.6 7.24716
55670.4 6.99918
55703.3 6.87983
55736.1 6.81341
55801.8 6.74575
55867.5 6.71374
55933.1 6.69672
56064.5 6.68517
56195.9 6.69898
56261.5 6.72175
56327.2 6.76767
56392.9 6.86778
56425.7 6.96556
56458.6 7.13773
56491.4 7.48371
56507.8 7.80562
56524.2 8.34991
56540.7 9.38078
56548.9 10.2818
56557.1 11.7050
56565.3 14.1356
56573.5 18.7458
56577.6 22.7240
56581.7 28.7911
56585.8 38.3963
56589.9 53.7230
56595.0 81.5915
56600.0 99.8100
56605.1 80.7356
56610.1 52.6665
56614.0 37.9953
56617.9 28.6475
56621.8 22.6587
56625.7 18.6994
56633.5 14.0622
56641.3 11.6023
56649.1 10.1605
56656.9 9.24943
56672.5 8.21266
56688.1 7.67085
56703.7 7.35411
56734.9 7.01929
56766.1 6.85628
56797.3 6.76537
56859.7 6.67358
56922.1 6.63116
56984.5 6.60882
57109.3 6.58962
57234.1 6.58645
57358.9 6.59340
57608.5 6.64043
57858.1 6.77160
57982.9 6.91067
58107.7 7.16437
58232.5 7.68304
58294.9 8.16523
58357.3 8.97072
58419.7 10.4538
58450.9 11.7050
58482.1 13.6038
58513.3 16.6580
58544.5 21.9355
58575.7 31.8277
58606.9 51.3933
58633.5 78.6864
58660.0 97.0033
58686.6 78.9103
58713.2 51.7201
58737.7 35.3604
58762.1 25.7652
58786.6 20.0236
58811.1 16.4166
58860.0 12.3899
58908.9 10.3430
58957.9 9.17081
59006.8 8.43896
59104.7 7.60978
59202.5 7.17249
59300.4 6.91080
59496.1 6.61869
59691.8 6.46284
59887.6 6.39205
59985.4 6.42359
60034.4 6.49026
60083.3 6.64210
60132.2 7.00348
60156.7 7.36891
60181.1 8.01186
60205.6 9.25440
60217.8 10.3359
60230.1 12.0123
60242.3 14.7672
60254.5 19.6190
60266.8 28.8885
60279.0 47.5974
60289.5 74.7473
60300.0 94.8255
60310.5 79.5338
60321.0 53.6033
60330.8 37.2211
60340.6 27.4716
60350.4 21.5572
60360.2 17.7991
60379.8 13.5306
60399.4 11.3078
60419.1 10.0043
60438.7 9.17123
60477.9 8.19702
60517.1 7.66023
60556.3 7.32517
60634.7 6.92606
60713.2 6.67589
60791.6 6.45384
60830.8 6.31242
60870.0 6.08785
60889.7 5.89026
60899.5 5.74132
60909.3 5.52822
60919.1 5.19283
60924.0 4.93979
60928.9 4.58230
60933.8 4.03946
60936.2 3.64840
60938.7 3.12645
60941.1 2.40673
60943.6 1.40865
60946.0 0.382753
60947.3 0.952864
60947.9 2.61120
60948.5 6.75250
60948.9 11.7689
60949.2 19.0908
60950.0 37.2386
60950.4 42.6271
60950.8 43.2224
60951.5 37.0772
60952.2 30.4639
60952.9 25.5395
60953.7 21.9816
60954.4 19.4548
60955.8 16.1319
60957.2 14.1222
60958.6 12.7791
60960.0 11.8365
60962.8 10.5950
60965.6 9.81868
60968.4 9.29208
60974.0 8.62191
60979.7 8.21295
60985.3 7.93801
60996.5 7.59018
61007.8 7.37801
61019.0 7.23430
61041.5 7.05019
61086.5 6.85540
61131.5 6.74882
61311.4 6.55414
61671.4 6.40278
61851.3 6.36038
61941.3 6.34549
62031.3 6.33769
62121.2 6.34595
62166.2 6.36486
62211.2 6.40827
62233.7 6.44861
62256.2 6.51295
62278.7 6.62128
62301.2 6.81875
62323.7 7.22648
62334.9 7.61024
62346.2 8.25886
62357.4 9.47539
62363.1 10.5181
62368.7 12.1254
62374.3 14.7705
62379.9 19.4674
62385.5 28.6443
62388.4 36.4935
62391.2 47.8655
62395.6 73.4191
62400.0 90.9344
62404.4 74.5667
62408.8 49.3086
62412.3 35.7458
62415.8 27.1161
62419.2 21.5763
62422.7 17.9043
62429.6 13.5826
62436.5 11.2711
62443.5 9.90207
62450.4 9.02984
62464.2 8.02240
62478.1 7.48391
62491.9 7.16214
62519.6 6.81037
62547.3 6.63027
62575.0 6.52428
62630.4 6.40794
62685.7 6.34614
62741.1 6.30751
62851.9 6.26063
62962.6 6.23353
63018.0 6.22593
63073.4 6.22473
63128.8 6.23804
63156.5 6.25801
63184.2 6.29995
63211.9 6.39660
63225.7 6.49487
63239.5 6.67258
63253.4 7.03831
63260.3 7.38240
63267.2 7.96610
63274.2 9.06657
63277.6 10.0178
63281.1 11.4968
63284.5 13.9566
63288.0 18.4167
63289.7 22.0762
63291.5 27.4036
63293.2 35.3286
63294.9 47.1031
63297.5 72.1372
63300.0 89.0840
63302.6 72.8650
63305.1 48.1481
63307.6 32.2803
63310.1 23.3023
63312.7 18.0842
63315.2 14.8835
63317.7 12.7917
63320.2 11.3696
63325.2 9.61367
63330.3 8.61720
63335.3 8.00124
63345.4 7.30937
63355.4 6.94906
63365.5 6.73744
63375.6 6.60184
63385.6 6.50953
63405.7 6.39437
63425.9 6.32708
63466.1 6.25348
63506.4 6.21420
63546.6 6.18933
63627.1 6.15790
63788.2 6.12033
63949.2 6.09299
64271.2 6.04543
64593.3 5.99591
64915.3 5.92949
65237.4 5.79840
65398.4 5.65284
65559.4 5.33145
65639.9 4.99696
65720.4 4.35189
65760.7 3.77414
65780.8 3.36712
65800.9 2.84514
65821.1 2.18002
65841.2 1.41324
65851.3 1.11128
65856.3 1.05774
65861.3 1.14512
65866.4 1.48418
65871.4 2.26819
65876.4 3.83102
65881.4 6.72151
65886.1 11.2315
65890.7 18.0559
65900.0 35.3704
65904.6 40.6207
65909.3 41.5055
65918.6 36.0744
65927.5 29.8196
65936.4 25.1275
65945.4 21.8248
65954.3 19.4740
65972.1 16.4486
65990.0 14.6484
66007.8 13.4857
66025.7 12.6928
66061.4 11.7274
66132.8 10.9885
66204.2 11.0574
66275.7 11.8306
66311.4 12.6179
66347.1 13.8929
66382.8 16.0881
66400.6 17.8285
66418.5 20.3375
66436.4 24.1546
66454.2 30.3470
66472.1 41.1509
66489.9 60.6659
66505.0 84.1460
66520.0 92.9152
66535.1 67.6372
66550.1 40.1027
66564.8 24.8581
66579.5 17.0286
66594.2 12.8787
66608.8 10.5661
66638.2 8.40500
66667.6 7.60685
66696.9 7.33315
66726.3 7.29392
66785.0 7.52123
66902.5 8.48842
67020.0 10.0086
67137.4 12.4475
67254.9 16.6942
67372.3 24.7549
67489.8 40.9431
67594.9 65.8586
67700.0 85.4166
67805.1 72.7813
67910.2 49.7919
67984.8 37.9649
68059.4 29.9100
68134.0 24.4404
68208.7 20.6423
68357.9 15.9349
68507.1 13.2764
68656.3 11.6470
68805.6 10.5919
69104.0 9.42815
69402.5 9.04765
69700.9 9.49168
69850.1 10.3024
69999.4 12.0163
70148.6 15.8080
70223.2 19.3303
70297.8 24.7492
70403.9 36.2185
70510.0 44.3783
70616.1 37.2715
70722.2 26.0113
70836.5 18.2341
70950.7 13.9582
71064.9 11.4910
71179.2 9.94479
71293.4 8.88867
71407.7 8.10898
71464.8 7.80414
71493.4 7.69062
71521.9 7.63945
71550.5 7.74856
71564.8 7.95066
71579.0 8.38154
71593.3 9.31417
71600.5 10.1677
71607.6 11.5187
71614.7 13.7564
71621.9 17.6774
71629.0 24.9889
71636.2 39.1416
71643.1 62.5336
71650.0 81.8219
71656.9 71.3635
71663.8 50.1544
71668.3 39.8353
71672.7 32.4411
71681.6 23.4190
71690.5 18.5306
71699.4 15.6363
71708.3 13.7789
71717.2 12.5127
71735.0 10.9249
71752.8 9.98503
71770.6 9.36742
71806.2 8.60107
71841.7 8.13311
71877.3 7.80603
71948.5 7.35065
72090.8 6.73928
72233.1 6.22796
72375.4 5.65951
72446.6 5.30092
72517.8 4.84078
72588.9 4.19696
72624.5 3.75779
72660.1 3.19415
72695.7 2.45197
72713.5 1.99669
72731.2 1.48847
72749.0 0.971494
72757.9 0.754787
72766.8 0.627786
72775.7 0.692627
72780.2 0.853932
72784.6 1.14987
72789.1 1.63767
72793.5 2.39426
72798.0 3.52448
72802.4 5.15994
72809.3 9.08845
72816.2 15.1465
72830.0 30.9408
72836.9 35.9632
72843.8 37.0585
72857.6 32.5341
72872.2 26.5130
72886.9 22.0884
72901.5 19.0433
72916.2 16.9049
72930.8 15.3468
72945.4 14.1728
72974.7 12.5351
73004.0 11.4530
73033.3 10.6870
73091.8 9.67214
73150.4 9.02575
73208.9 8.57350
73326.0 7.97526
73443.1 7.61119
73501.7 7.50625
73560.2 7.48314
73618.8 7.63061
73648.0 7.84182
73677.3 8.24258
73706.6 9.01070
73735.9 10.5571
73765.1 13.9306
73779.8 17.0424
73794.4 21.8133
73817.2 33.4381
73840.0 43.6366
73862.8 39.2434
73885.6 29.0393
73901.3 23.6627
73916.9 19.8562
73948.2 15.2742
73979.5 12.8222
74010.8 11.3714
74042.1 10.4372
74073.5 9.79471
74136.1 8.97844
74198.7 8.48474
74261.3 8.15394
74386.5 7.73668
74511.7 7.48967
74574.4 7.41039
74637.0 7.36624
74699.6 7.38581
74730.9 7.44733
74762.2 7.58793
74793.5 7.91201
74809.2 8.22984
74824.8 8.77665
74840.5 9.81175
74848.3 10.7024
74856.1 12.0732
74864.0 14.3220
74871.8 18.2951
74879.6 25.9974
74883.5 32.5166
74887.4 41.8865
74893.7 63.3569
74900.0 78.1148
74906.3 64.4209
74912.6 43.2184
74918.0 31.0078
74923.4 23.5434
74928.7 18.9152
74934.1 15.9270
74944.9 12.4992
74955.6 10.7074
74966.4 9.66073
74977.2 8.99703
74998.7 8.23182
75020.2 7.82019
75041.7 7.57012
75084.8 7.28722
75127.8 7.13242
75170.8 7.03379
75256.9 6.91216
75343.0 6.83859
75429.1 6.79171
75601.2 6.76344
75773.4 6.86724
75859.5 7.02630
75945.6 7.34795
76031.7 8.03287
76074.7 8.66654
76117.7 9.69573
76160.8 11.4826
76203.8 14.8749
76225.3 17.7625
76246.9 22.0947
76268.4 28.7664
76289.9 39.0727
76320.0 60.6238
76350.0 76.5429
76380.1 64.2942
76410.1 43.6836
76434.2 32.1712
76458.3 24.7928
76482.3 20.0400
76506.4 16.8748
76554.6 13.1160
76602.7 11.0733
76650.9 9.84172
76699.1 9.03892
76795.4 8.08006
76891.7 7.53921
76988.0 7.19520
77180.6 6.77948
77373.3 6.52876
77565.9 6.35341
77662.2 6.28617
77710.4 6.26067
77758.5 6.24751
77806.7 6.26656
77830.8 6.30739
77854.9 6.40105
77878.9 6.62563
77891.0 6.85454
77903.0 7.26167
77915.1 8.06226
77921.1 8.77339
77927.1 9.89976
77933.1 11.8074
77939.1 15.3300
77942.1 18.2590
77945.2 22.5652
77948.2 29.0393
77951.2 38.7345
77955.6 59.7327
77960.0 74.9447
77964.4 62.6422
77968.8 42.3745
77972.6 30.6642
77976.3 23.3552
77980.0 18.7537
77983.7 15.7514
77991.1 12.2488
77998.6 10.3853
78006.0 9.27992
78013.4 8.57170
78028.3 7.74400
78043.2 7.29226
78058.0 7.01584
78087.8 6.70260
78117.5 6.53320
78147.2 6.42793
78206.7 6.30357
78325.6 6.18422
78444.5 6.12839
78682.3 6.11272
78920.1 6.24472
79157.9 6.68631
79276.8 7.16098
79395.7 7.98788
79514.6 9.49834
79633.5 12.4636
79752.4 18.8705
79811.9 24.7867
79871.3 33.8932
79960.7 55.0190
80050.0 72.5485
80139.4 63.1417
80228.7 44.0665
80311.9 31.5245
80395.2 23.8236
80478.4 19.0227
80561.6 15.8784
80728.1 12.1320
80894.6 9.98101
81061.0 8.48128
81227.5 7.12974
81310.7 6.33124
81393.9 5.24329
81435.6 4.47706
81456.4 4.00606
81477.2 3.46778
81498.0 2.88200
81518.8 2.37651
81529.2 2.29282
81539.6 2.53155
81550.0 3.47450
81555.2 4.43041
81560.4 5.89636
81567.8 9.22827
81575.2 14.4434
81590.0 28.3231
81597.4 32.8898
81604.8 34.0424
81619.6 30.3508
81633.5 25.7249
81647.4 22.1081
81661.3 19.4860
81675.2 17.5736
81702.9 15.0376
81730.7 13.4629
81758.5 12.3967
81786.3 11.6274
81841.8 10.5855
81897.4 9.90421
81952.9 9.41645
82064.0 8.74807
82286.2 7.95782
82508.4 7.46430
82952.8 6.80430
83397.2 6.31542
83841.6 5.89307
84063.8 5.70516
84286.0 5.55871
84508.2 5.53849
84619.3 5.65460
84730.4 5.97335
84841.5 6.73916
84952.6 8.61738
85008.2 10.5141
85063.7 13.7586
85119.3 19.5473
85174.8 30.0782
85237.4 50.1900
85300.0 67.9979
85362.6 60.5929
85425.2 43.0262
85480.5 31.5956
85535.8 24.2663
85591.1 19.5391
85646.4 16.3635
85757.0 12.4942
85867.6 10.2658
85978.2 8.80527
86088.8 7.74157
86310.0 6.16217
86531.2 4.81446
86641.8 4.11658
86752.4 3.35897
86863.0 2.52623
86973.6 1.68316
87028.9 1.36587
87084.2 1.31561
87111.9 1.50483
87139.5 1.95105
87167.2 2.79641
87194.8 4.24646
87228.6 7.23184
87262.4 11.9650
87330.0 24.6520
87363.8 28.7967
87397.6 29.7605
87465.2 26.0617
87504.8 23.1266
87544.4 20.6372
87564.2 19.8173
87584.1 19.8125
87594.0 20.5878
87603.9 22.6470
87613.8 27.6654
87623.7 39.8293
87631.8 59.4524
87640.0 78.0023
87648.2 72.1769
87656.3 55.2683
87665.7 41.1848
87675.1 33.0369
87684.5 28.1450
87693.9 24.9788
87712.7 21.1609
87731.5 18.9093
87750.3 17.3729
87769.1 16.2193
87806.6 14.5139
87881.7 12.1530
87956.9 10.2915
88032.0 8.47437
88069.6 7.47272
88107.1 6.33886
88144.7 5.00952
88182.3 3.46495
88201.1 2.68479
88219.8 2.09936
88229.2 2.01611
88238.6 2.22468
88248.0 2.93312
88257.4 4.46828
88268.1 7.80163
88278.7 13.5238
88300.0 30.6228
88310.7 37.2618
88321.3 39.9545
88342.6 37.3579
88357.6 33.7096
88372.6 30.3561
88387.6 27.5829
88402.6 25.3490
88432.6 22.0731
88462.6 19.8370
88492.6 18.2255
88522.6 17.0096
88582.6 15.2841
88642.5 14.0996
88702.5 13.2181
88822.5 11.9511
88942.5 11.0531
89002.5 10.7106
89062.5 10.4731
89122.4 10.4624
89152.4 10.6494
89182.4 11.1134
89212.4 12.1313
89242.4 14.3565
89272.4 19.4835
89287.4 24.3531
89302.4 31.9595
89326.2 51.5472
89350.0 70.4112
89373.8 65.3897
89397.6 49.1909
89416.4 39.1087
89435.3 32.1835
89454.1 27.4636
89472.9 24.1678
89510.6 20.0141
89548.2 17.5835
89585.9 16.0186
89623.5 14.9356
89698.8 13.5385
89774.1 12.6718
89849.4 12.0749
90000.0 11.2889
90000.0 9.07398
99999.9 9.15135
100000 10.1154
105000 10.0923
110000 10.0140
115000 9.87915
120000 9.74429
125000 9.71433
130000 9.73713
135000 9.81295
140000 9.99658
141585 10.0892
150000 10.5807
160000 10.9456
170000 11.0887
175000 10.7741
180000 10.5125
185000 10.1393
190000 9.87483
195000 9.44321
200000 9.17591
210000 9.46829
220291 10.1093
230000 10.7141
240000 10.5584
250000 10.1216
260000 9.23677
270000 9.18463
280000 9.57717
290000 9.68718
300000 8.96354
310000 8.34957
320000 8.45894
330000 8.89959
340000 9.39650
350000 9.78187
360000 9.83328
370000 9.66406
380000 9.32517
390000 9.65267
400000 10.2567
410000 10.4667
420000 10.4597
430000 10.1207
440000 10.0584
450000 10.0514
460000 9.93330
470000 9.70549
480000 9.14733
490000 8.64497
500000 8.47351
520000 9.30422
530000 9.55308
540000 9.54615
550000 9.10057
560000 8.94470
570000 8.71984
580000 8.55021
600000 8.45257
620000 8.51933
640000 8.63018
645752 8.65265
660000 8.70830
680000 8.76457
700000 8.74678
720000 8.56313
740000 8.20533
760000 7.80167
770000 7.59984
780000 7.40591
800000 7.10524
820000 7.35275
840000 7.82597
851400 7.80719
860000 7.79303
880000 7.60988
928619 7.21679
928619 7.21679
940000 7.12477
960000 6.97554
980000 6.88583
1.00000E+06 6.79612
1.05000E+06 6.67908
1.10000E+06 6.61604
1.10909E+06 6.59542
1.15000E+06 6.50259
1.20000E+06 6.37027
1.21830E+06 6.30541
1.25000E+06 6.19305
1.29921E+06 6.01863
1.30000E+06 6.01583
1.31400E+06 5.96621
1.31416E+06 5.96569
1.31416E+06 5.96568
1.35000E+06 5.84648
1.36013E+06 5.81620
1.39129E+06 5.72307
1.39500E+06 5.71198
1.39800E+06 5.70301
1.40000E+06 5.69703
1.44291E+06 5.62890
1.45000E+06 5.61765
1.47610E+06 5.57621
1.48541E+06 5.56143
1.48541E+06 5.56143
1.50000E+06 5.53826
1.53000E+06 5.50667
1.57372E+06 5.46063
1.60000E+06 5.43296
1.64226E+06 5.37522
1.68935E+06 5.31089
1.68935E+06 5.31087
1.69221E+06 5.30697
1.73625E+06 5.24680
1.77650E+06 5.19182
1.80000E+06 5.15971
1.83154E+06 5.10579
1.83995E+06 5.09141
1.90000E+06 4.98874
1.94004E+06 4.93894
1.94800E+06 4.92904
2.00000E+06 4.86437
2.04607E+06 4.80707
2.07300E+06 4.77358
2.07974E+06 4.76706
2.07974E+06 4.76706
2.08142E+06 4.76543
2.16152E+06 4.68793
2.17442E+06 4.67545
2.17442E+06 4.67545
2.19370E+06 4.65679
2.24496E+06 4.60719
2.25405E+06 4.59840
2.25880E+06 4.59380
2.27063E+06 4.58235
2.28337E+06 4.57003
2.28600E+06 4.56748
2.30000E+06 4.55482
2.33353E+06 4.52451
2.35523E+06 4.50489
2.39153E+06 4.47207
2.39154E+06 4.47206
2.40000E+06 4.46441
2.42679E+06 4.44330
2.42679E+06 4.44330
2.50000E+06 4.38562
2.53464E+06 4.35833
2.53464E+06 4.35833
2.60000E+06 4.30683
2.63248E+06 4.28536
2.63248E+06 4.28536
2.72749E+06 4.22254
2.72749E+06 4.22254
2.90000E+06 4.10847
3.00000E+06 4.04235
3.20000E+06 3.93547
3.40000E+06 3.85137
3.60000E+06 3.75099
3.78927E+06 3.67778
3.80000E+06 3.67363
4.00000E+06 3.62578
4.17840E+06 3.60376
4.20000E+06 3.60109
4.40000E+06 3.59608
4.50000E+06 3.60160
4.60000E+06 3.60712
4.62313E+06 3.60983
4.80000E+06 3.63054
4.80678E+06 3.63175
4.90998E+06 3.65013
5.00000E+06 3.66616
5.09506E+06 3.67689
5.20000E+06 3.68873
5.36097E+06 3.73569
5.40000E+06 3.74707
5.50000E+06 3.77624
5.58333E+06 3.80055
5.60000E+06 3.80541
5.62145E+06 3.80955
5.63085E+06 3.81136
5.72484E+06 3.82950
5.80000E+06 3.84400
6.00000E+06 3.89349
6.80000E+06 4.09144
7.00000E+06 4.12909
7.27000E+06 4.17991
8.00000E+06 4.28211
8.19408E+06 4.29867
8.30829E+06 4.30841
8.30829E+06 4.30841
8.60000E+06 4.33329
9.00000E+06 4.34454
9.43021E+06 4.34206
9.50000E+06 4.34166
9.65662E+06 4.33562
9.65662E+06 4.33562
9.76467E+06 4.33145
9.76477E+06 4.33145
1.00000E+07 4.32238
1.02000E+07 4.31466
1.10000E+07 4.26921
1.16000E+07 4.22179
1.16791E+07 4.21554
1.20000E+07 4.19018
1.24000E+07 4.15857
1.30000E+07 4.11115
1.35000E+07 4.06413
1.40000E+07 4.01712
1.45000E+07 3.97010
1.50000E+07 3.92308
1.51136E+07 3.91069
1.51136E+07 3.91068
1.60000E+07 3.81398
1.70000E+07 3.70487
1.80000E+07 3.59577
1.90000E+07 3.50150
2.00000E+07 3.40724