Zr-92(n,tot) ENDF/B-VII.1
Energy(eV) XS(b)
1.00000E-05 18.6373
1.25000E-05 17.4204
1.50000E-05 16.5221
2.00000E-05 15.2611
2.75000E-05 14.0613
3.50000E-05 13.2717
4.25000E-05 12.7017
5.00000E-05 12.2653
6.25000E-05 11.7211
7.50000E-05 11.3193
0.000100000 10.7554
0.000125000 10.3706
0.000150000 10.0865
0.000200000 9.68774
0.000275000 9.30834
0.000350000 9.05864
0.000425000 8.87838
0.000500000 8.74038
0.000625000 8.56828
0.000750000 8.44124
0.00100000 8.26291
0.00125000 8.14122
0.00150000 8.05138
0.00200000 7.92529
0.00275000 7.80531
0.00350000 7.72634
0.00425000 7.66934
0.00500000 7.62570
0.00625000 7.57127
0.00750000 7.53109
0.0100000 7.47470
0.0125000 7.43621
0.0150000 7.40780
0.0200000 7.36791
0.0253000 7.33931
0.0314750 7.31559
0.0376500 7.29797
0.0500000 7.27310
0.0625000 7.25586
0.0750000 7.24313
0.100000 7.22523
0.125000 7.21301
0.150000 7.20396
0.200000 7.19124
0.275000 7.17906
0.350000 7.17099
0.500000 7.16057
0.750000 7.15053
1.00000 7.14430
1.50000 7.13645
2.00000 7.13129
2.75000 7.12575
3.50000 7.12151
5.00000 7.11485
7.50000 7.10607
10.0000 7.09853
15.0000 7.08494
20.0000 7.07228
27.5000 7.05412
35.0000 7.03652
50.0000 7.00234
75.0000 6.94740
100.000 6.89434
150.000 6.79283
200.000 6.69656
275.000 6.56039
350.000 6.43245
500.000 6.19550
750.000 5.83585
1000.00 5.49227
1250.00 5.13561
1500.00 4.73128
1750.00 4.22445
1875.00 3.90233
1906.25 3.81137
1937.50 3.71560
1953.13 3.66601
1968.75 3.61583
1976.56 3.59111
1984.38 3.56783
1992.19 3.54985
1996.09 3.54756
1998.05 3.55104
2000.00 3.56116
2002.46 3.59551
2003.69 3.63383
2004.92 3.70674
2005.54 3.76918
2006.15 3.86491
2006.77 4.02144
2007.38 4.30183
2007.69 4.53352
2008.00 4.87826
2008.30 5.42704
2008.61 6.37016
2008.92 8.21059
2009.07 9.86216
2009.23 12.5172
2009.38 17.2381
2009.53 26.5930
2009.61 35.1367
2009.69 48.9216
2009.76 72.3640
2009.84 112.436
2009.92 177.928
2010.00 220.730
2010.08 177.028
2010.16 111.717
2010.24 69.9910
2010.32 46.6725
2010.41 33.2485
2010.49 25.0506
2010.57 19.7518
2010.65 16.1564
2010.81 11.7600
2010.97 9.29172
2011.13 7.77493
2011.46 6.09011
2011.78 5.22663
2012.11 4.72645
2012.43 4.41107
2012.75 4.19997
2013.40 3.94185
2014.05 3.79630
2014.70 3.70556
2015.34 3.64503
2016.64 3.57068
2017.93 3.52754
2020.52 3.47929
2023.12 3.45150
2025.71 3.43186
2030.89 3.40231
2041.25 3.35521
2051.61 3.31181
2072.33 3.22532
2093.06 3.13590
2175.95 2.73195
2258.84 2.22976
2341.73 1.59282
2383.18 1.21372
2424.62 0.798166
2466.07 0.376587
2486.79 0.192729
2497.16 0.119073
2502.34 0.0893505
2507.52 0.0657056
2512.70 0.0493714
2517.88 0.0418357
2523.06 0.0448738
2528.24 0.0606145
2533.42 0.0916364
2538.60 0.141055
2543.78 0.212662
2548.96 0.311077
2554.14 0.442042
2559.32 0.612597
2569.69 1.10981
2580.05 1.90419
2590.41 3.16091
2600.77 5.16090
2611.13 8.40412
2621.49 13.8390
2631.85 23.4014
2642.22 41.4562
2647.40 56.6184
2652.58 79.1257
2657.76 113.789
2662.94 169.359
2668.12 261.896
2673.30 418.070
2679.65 724.750
2686.00 976.923
2692.35 839.616
2698.70 562.919
2704.24 390.354
2709.78 281.326
2715.31 211.985
2720.85 166.171
2731.93 111.954
2743.00 82.4160
2754.07 64.4876
2765.15 52.7156
2787.30 38.5348
2809.45 30.4981
2831.60 25.4156
2853.75 21.9480
2875.89 19.4474
2920.19 16.1045
2964.49 13.9843
3008.79 12.5236
3053.09 11.4559
3141.69 9.99391
3230.28 9.02937
3318.88 8.33338
3407.48 7.79639
3584.67 6.98680
3673.27 6.65680
3761.86 6.35473
3850.46 6.07369
3894.76 5.94348
3939.06 5.82865
3961.21 5.78341
3983.36 5.75474
4005.51 5.75784
4027.65 5.82910
4038.73 5.91707
4049.80 6.07327
4060.88 6.35605
4071.95 6.90150
4077.49 7.37109
4083.03 8.09189
4088.56 9.26924
4094.10 11.3696
4096.87 13.0929
4099.64 15.6503
4102.41 19.6732
4105.18 26.5182
4107.95 39.5628
4109.33 50.9949
4110.71 69.0717
4112.10 99.9567
4113.48 158.324
4114.17 208.380
4114.87 284.488
4115.56 404.139
4116.25 593.524
4117.13 947.486
4118.00 1183.43
4118.88 944.721
4119.76 589.815
4120.76 342.526
4121.76 214.807
4122.75 145.421
4123.75 104.720
4124.75 79.1292
4125.74 62.1411
4127.74 41.7925
4129.73 30.5872
4131.73 23.7935
4135.72 16.3303
4139.71 12.5411
4143.69 10.3553
4147.68 8.97824
4151.67 8.05240
4159.65 6.91640
4167.63 6.26371
4175.61 5.84649
4183.58 5.55738
4199.54 5.17690
4215.49 4.92577
4231.45 4.73438
4247.41 4.57284
4279.32 4.28666
4311.23 4.00923
4375.05 3.38651
4438.87 2.55469
4470.78 2.00568
4502.70 1.33420
4534.61 0.558944
4550.56 0.208790
4554.55 0.143425
4558.54 0.0947958
4562.53 0.0692786
4566.52 0.0755183
4568.51 0.0940986
4570.51 0.125369
4572.50 0.171568
4574.50 0.235261
4578.49 0.428264
4582.47 0.737281
4586.46 1.21008
4590.45 1.91742
4594.44 2.96670
4598.43 4.52494
4602.42 6.86271
4606.41 10.4312
4610.40 16.0202
4614.39 25.0857
4618.37 40.4781
4622.36 68.1480
4626.35 121.161
4628.35 165.014
4630.34 226.860
4634.17 405.589
4638.00 562.888
4641.83 497.223
4645.66 341.651
4648.43 255.774
4651.20 196.065
4653.97 154.873
4656.73 125.891
4662.27 89.2982
4667.81 68.0677
4673.34 54.6286
4678.88 45.5382
4689.95 34.2571
4701.03 27.6751
4712.10 23.4284
4734.25 18.3435
4756.39 15.4405
4778.54 13.5757
4822.83 11.3251
4867.12 10.0118
4911.42 9.14575
4933.56 8.81444
4955.71 8.53393
4977.85 8.30234
4988.93 8.21048
5000.00 8.14814
5004.80 8.13836
5009.59 8.14835
5014.39 8.19394
5019.19 8.31219
5021.59 8.42547
5023.98 8.60777
5026.38 8.91584
5028.78 9.47962
5029.98 9.94970
5031.18 10.6543
5032.38 11.7757
5033.58 13.7131
5034.78 17.4838
5035.38 20.8675
5035.97 26.3357
5036.57 36.0130
5036.87 43.8642
5037.17 55.2970
5037.47 72.8405
5037.77 101.136
5038.07 149.253
5038.37 232.635
5038.69 367.504
5039.00 457.268
5039.32 366.660
5039.63 231.835
5039.82 172.610
5040.02 131.201
5040.41 82.0929
5040.80 56.4110
5041.19 41.7968
5041.58 32.7676
5041.97 26.8657
5042.74 19.8905
5043.52 16.0967
5044.30 13.8158
5045.86 11.3319
5047.42 10.0779
5048.97 9.35682
5050.53 8.90242
5052.09 8.59620
5055.20 8.21781
5058.32 7.99719
5061.43 7.85336
5064.55 7.75141
5070.78 7.61264
5077.01 7.51750
5083.24 7.44368
5089.46 7.38172
5101.92 7.27718
5114.38 7.18687
5139.30 7.02808
5164.22 6.88629
5189.13 6.75571
5238.97 6.51833
5338.64 6.10502
5438.31 5.73816
5637.65 5.04969
5836.99 4.32106
6036.33 3.44210
6136.00 2.90356
6235.67 2.26990
6335.34 1.52234
6435.01 0.686327
6484.84 0.299337
6509.76 0.151210
6522.22 0.0992321
6528.45 0.0809046
6534.68 0.0687552
6540.91 0.0637523
6547.14 0.0670328
6553.37 0.0799408
6559.60 0.104080
6565.83 0.141414
6572.06 0.194367
6578.28 0.266077
6584.51 0.360759
6596.97 0.646763
6603.20 0.864590
6609.43 1.17386
6615.66 1.67008
6618.78 2.07226
6621.89 2.71030
6625.00 3.90628
6626.56 4.99493
6628.12 6.84453
6629.68 10.4481
6630.46 13.7216
6631.23 19.1198
6632.01 28.9951
6632.40 37.2884
6632.79 49.8585
6633.18 70.1413
6633.57 105.175
6633.96 171.087
6634.35 302.220
6634.67 483.096
6635.00 603.497
6635.33 483.336
6635.65 302.867
6635.92 203.789
6636.19 142.097
6636.46 103.338
6636.72 78.0873
6637.26 48.9270
6637.79 33.6518
6638.32 24.7640
6638.86 19.1751
6639.93 12.8529
6640.99 9.57275
6642.06 7.68120
6644.20 5.74455
6646.33 4.88368
6648.47 4.48512
6652.74 4.29342
6657.01 4.47017
6661.28 4.83472
6669.82 5.92942
6686.90 9.44667
6703.98 15.4027
6721.06 25.6119
6738.14 43.8148
6755.22 77.8106
6772.30 142.913
6790.65 266.495
6809.00 383.344
6827.35 349.446
6845.70 247.166
6861.20 180.624
6876.69 136.361
6892.18 107.056
6907.68 87.0503
6938.67 62.4893
6969.65 48.5390
7000.64 39.7870
7031.63 33.8786
7093.61 26.5254
7155.58 22.1969
7217.56 19.3733
7279.53 17.3960
7341.51 15.9376
7465.46 13.9329
7589.41 12.6183
7713.37 11.6855
7837.32 10.9845
8085.22 9.98168
8333.13 9.26097
8457.08 8.94953
8581.03 8.64731
8643.01 8.49728
8674.00 8.42528
8704.98 8.36157
8735.97 8.32408
8751.47 8.33228
8766.96 8.38678
8774.71 8.44944
8782.45 8.55790
8790.20 8.75029
8797.95 9.11391
8801.82 9.42156
8805.69 9.88635
8809.57 10.6302
8813.44 11.9188
8817.32 14.4293
8819.25 16.6777
8821.19 20.3091
8823.13 26.7084
8825.06 39.4196
8826.03 50.9115
8827.00 69.3173
8827.97 100.359
8828.94 153.847
8829.97 241.463
8831.00 299.613
8832.03 240.763
8833.07 153.067
8834.18 93.9019
8835.29 62.2770
8836.40 44.6672
8837.52 34.1634
8838.63 27.4827
8839.74 23.0101
8841.96 17.6079
8844.19 14.6083
8846.41 12.7784
8850.86 10.7534
8855.31 9.71393
8859.76 9.10576
8864.21 8.71523
8868.66 8.44598
8877.56 8.09882
8886.45 7.87931
8895.35 7.72012
8904.25 7.59186
8922.05 7.37598
8939.84 7.17409
8975.43 6.71912
9011.03 6.06915
9028.82 5.59680
9046.62 4.94450
9055.52 4.51398
9064.41 3.98134
9073.31 3.30905
9082.21 2.44765
9091.11 1.36100
9095.56 0.767144
9097.78 0.491003
9100.01 0.266835
9102.23 0.154828
9103.34 0.173794
9104.45 0.271380
9105.57 0.480999
9106.68 0.850445
9107.79 1.45093
9108.90 2.38948
9110.02 3.83246
9111.13 6.03770
9112.24 9.42874
9113.35 14.7120
9114.46 23.1035
9115.58 36.7427
9116.69 59.3844
9117.80 97.1089
9119.40 189.418
9121.00 283.573
9121.80 290.333
9122.60 267.512
9124.20 194.689
9125.53 146.021
9126.85 112.777
9128.18 90.2947
9129.51 74.7099
9132.16 55.2292
9134.81 43.9573
9137.46 36.7815
9140.12 31.8845
9145.42 25.7137
9150.73 22.0340
9156.03 19.6128
9161.34 17.9067
9166.64 16.6433
9177.25 14.9017
9187.86 13.7605
9198.47 12.9553
9209.08 12.3568
9230.31 11.5252
9251.53 10.9730
9293.97 10.2795
9336.41 9.85578
9378.85 9.56523
9463.74 9.18298
9548.62 8.93424
9591.06 8.83813
9633.50 8.75580
9675.95 8.68675
9697.17 8.65864
9718.39 8.63801
9729.00 8.63271
9739.61 8.63355
9750.22 8.64556
9760.83 8.68061
9766.14 8.71554
9771.44 8.77298
9776.75 8.87205
9782.05 9.05759
9784.70 9.21531
9787.36 9.45612
9790.01 9.84882
9792.66 10.5501
9793.99 11.1277
9795.31 11.9879
9796.64 13.3495
9797.97 15.6895
9799.29 20.2209
9799.96 24.2579
9800.62 30.7555
9801.28 42.1376
9801.94 64.5498
9802.28 84.6463
9802.61 116.452
9802.94 169.547
9803.27 259.245
9803.64 409.930
9804.00 510.498
9804.37 410.101
9804.73 259.489
9805.11 159.691
9805.49 105.375
9805.88 74.6004
9806.26 56.1046
9806.64 44.2310
9807.02 36.2519
9807.78 26.5487
9808.55 21.1378
9809.31 17.8275
9810.83 14.1668
9812.36 12.2957
9813.88 11.2148
9815.41 10.5336
9816.94 10.0773
9819.99 9.52169
9823.04 9.20850
9826.09 9.01400
9829.14 8.88442
9835.24 8.72645
9841.34 8.63589
9847.45 8.57780
9853.55 8.53730
9865.75 8.48352
9877.96 8.44787
9890.16 8.42100
9902.37 8.39898
9926.77 8.36274
9951.18 8.33206
10000.0 8.27883
10060.5 8.22092
10121.0 8.16846
10241.9 8.07474
10483.8 7.91770
10725.7 7.78808
10967.6 7.67786
11209.5 7.58329
11330.4 7.54178
11451.4 7.50512
11572.3 7.47621
11632.8 7.46718
11693.2 7.46538
11753.7 7.47849
11784.0 7.49644
11814.2 7.52970
11844.4 7.59327
11859.6 7.64734
11874.7 7.73051
11889.8 7.87203
11897.3 7.98781
11904.9 8.16787
11912.5 8.49200
11916.2 8.77794
11920.0 9.25634
11923.8 10.1895
11925.7 11.0544
11927.6 12.5320
11929.5 15.4053
11930.4 18.0166
11931.4 22.2482
11932.3 29.9626
11932.8 36.2952
11933.3 45.7387
11933.7 60.5887
11934.2 85.4708
11934.7 130.116
11935.1 213.361
11935.6 337.131
11936.0 416.824
11936.4 334.081
11936.9 213.332
11937.4 128.873
11937.8 84.8533
11938.3 59.9079
11938.8 45.3953
11939.3 35.9970
11939.7 29.8476
11940.7 22.4130
11941.6 18.2603
11942.6 15.7724
11944.4 13.0535
11946.3 11.7164
11948.2 11.0011
11952.0 10.3875
11955.8 10.2781
11959.6 10.4374
11967.1 11.3924
11974.7 13.5619
11978.5 15.5324
11982.3 18.6900
11986.1 24.1584
11989.8 34.6114
11991.7 43.6861
11993.6 57.6483
11995.5 79.9381
11997.4 115.864
11999.7 181.006
12002.0 224.315
12004.3 180.515
12006.6 115.314
12008.7 77.1205
12010.7 54.4787
12012.7 40.7449
12014.8 32.0311
12018.9 22.2090
12022.9 17.2025
12027.0 14.3255
12031.1 12.5370
12039.3 10.5211
12047.5 9.47488
12055.6 8.86376
12063.8 8.47603
12072.0 8.21480
12088.3 7.89417
12104.6 7.71179
12121.0 7.59748
12137.3 7.52057
12170.0 7.42510
12202.7 7.36864
12235.3 7.33099
12268.0 7.30357
12333.4 7.26454
12398.7 7.23609
12529.4 7.19249
12660.1 7.15682
12790.8 7.12577
12856.2 7.11260
12888.8 7.10742
12921.5 7.10443
12954.2 7.10694
12970.5 7.11339
12986.9 7.12850
12995.0 7.14271
13003.2 7.16563
13011.4 7.20480
13019.5 7.27798
13023.6 7.34054
13027.7 7.43636
13031.8 7.59417
13035.9 7.87866
13037.9 8.11678
13040.0 8.47403
13042.0 9.04777
13044.0 10.0543
13046.1 12.0641
13047.1 13.9170
13048.1 17.0087
13049.1 22.7241
13049.6 27.5797
13050.2 35.0129
13050.7 47.1280
13051.2 68.4940
13051.7 109.844
13051.9 145.773
13052.2 195.511
13052.6 311.162
13053.0 386.279
13053.4 308.570
13053.8 196.055
13054.1 133.754
13054.5 94.9897
13054.8 70.6387
13055.1 54.7728
13055.8 36.4412
13056.5 26.8272
13057.1 21.2233
13057.8 17.6904
13059.1 13.6911
13060.4 11.5736
13061.7 10.3299
13063.0 9.53825
13064.4 9.00692
13067.0 8.35019
13069.6 7.97946
13072.3 7.74817
13074.9 7.59512
13080.2 7.41004
13085.4 7.30653
13090.7 7.24254
13096.0 7.20002
13106.5 7.14830
13117.1 7.11867
13138.1 7.08642
13159.2 7.06882
13180.3 7.05713
13222.5 7.04103
13264.6 7.02897
13306.8 7.01863
13391.1 7.00029
13559.7 6.96804
13728.4 6.94033
13897.0 6.92047
13981.3 6.91731
14065.6 6.92528
14107.8 6.93776
14150.0 6.96135
14192.1 7.00564
14234.3 7.09318
14255.4 7.16953
14276.4 7.28766
14297.5 7.48193
14318.6 7.83051
14329.1 8.11736
14339.7 8.54368
14350.2 9.21467
14360.8 10.3559
14371.3 12.5222
14376.6 14.4116
14381.8 17.3807
14387.1 22.3986
14392.4 31.7326
14395.0 39.6165
14397.6 51.3508
14400.3 69.3731
14402.9 97.1465
14406.5 152.099
14410.0 189.135
14413.6 152.758
14417.1 98.0458
14419.5 72.6966
14421.8 55.4623
14426.5 35.5404
14431.2 25.4218
14435.8 19.7640
14440.5 16.3099
14445.2 14.0683
14454.6 11.4346
14464.0 10.0115
14473.3 9.15757
14492.1 8.22754
14510.8 7.75708
14529.5 7.48557
14548.3 7.31395
14567.0 7.19802
14604.5 7.05433
14642.0 6.97044
14679.4 6.91583
14716.9 6.87723
14791.8 6.82491
14866.8 6.78843
14941.7 6.75615
14979.2 6.73561
14998.0 6.72565
15002.6 6.73147
15007.3 6.76777
15009.7 6.83415
15012.0 7.04786
15013.2 7.35666
15013.8 7.66632
15014.3 8.20650
15014.9 9.30580
15015.2 10.2929
15015.5 11.9024
15015.8 14.8925
15016.1 20.7385
15016.3 26.2737
15016.4 34.5686
15016.5 49.6275
15016.7 75.7240
15016.8 117.455
15017.0 148.574
15017.2 120.771
15017.3 79.5860
15017.4 56.2270
15017.6 41.2458
15017.7 31.8368
15017.8 26.0936
15018.1 18.7967
15018.3 15.0791
15018.6 12.7972
15018.8 11.4000
15019.4 9.74757
15019.9 8.86365
15020.4 8.33384
15021.4 7.75318
15022.4 7.45533
15023.4 7.28048
15025.5 7.09094
15029.6 6.93607
15033.6 6.87238
15041.8 6.81750
15049.9 6.79293
15066.2 6.76907
15082.5 6.75627
15115.1 6.74057
15147.7 6.72956
15212.9 6.71231
15278.1 6.69772
15408.6 6.67194
15539.0 6.64849
15799.8 6.60530
16060.6 6.56564
16321.4 6.53080
16451.9 6.51728
16582.3 6.51014
16647.5 6.51146
16712.7 6.51917
16777.9 6.53885
16843.1 6.58364
16875.7 6.62512
16908.3 6.69125
16940.9 6.80292
16973.5 7.00859
16989.8 7.18163
17006.1 7.44363
17022.4 7.86654
17038.7 8.61210
17046.9 9.21789
17055.0 10.1095
17063.2 11.4973
17071.3 13.8257
17079.5 18.1650
17083.5 21.8879
17087.6 27.6214
17091.7 37.1016
17095.8 54.0694
17099.8 87.8625
17101.9 117.286
17103.9 160.260
17107.0 252.237
17110.0 313.367
17113.1 252.327
17116.1 160.468
17118.0 120.001
17119.9 91.6239
17123.7 57.8745
17127.4 40.1746
17131.2 30.0853
17135.0 23.8431
17138.8 19.7592
17146.3 14.9228
17153.9 12.2935
17161.4 10.7114
17176.5 8.98681
17191.6 8.11735
17206.7 7.61828
17221.8 7.30514
17236.9 7.09547
17267.1 6.83985
17297.3 6.69468
17327.5 6.60334
17357.7 6.54135
17418.1 6.46299
17478.5 6.41490
17538.9 6.38132
17599.3 6.35555
17720.1 6.31589
17840.9 6.28383
18082.5 6.22794
18324.1 6.17473
18565.7 6.12029
18807.3 6.06336
18867.7 6.04996
18928.1 6.04146
18958.3 6.04539
18973.4 6.05436
18988.5 6.07551
19003.6 6.12837
19011.1 6.18496
19018.7 6.29182
19022.4 6.38359
19026.2 6.52438
19030.0 6.75620
19033.8 7.17212
19035.7 7.51675
19037.5 8.03174
19039.4 8.84841
19041.3 10.2423
19043.2 12.9392
19044.1 15.3125
19045.1 19.0902
19046.0 25.6856
19047.0 38.2194
19047.4 49.1027
19047.9 65.8454
19048.4 92.5597
19048.9 135.581
19049.4 214.885
19050.0 267.198
19050.6 214.993
19051.2 137.547
19051.6 94.4212
19052.1 67.9645
19052.6 50.8695
19053.0 39.9183
19053.9 27.0318
19054.9 20.2904
19055.8 16.2904
19056.7 13.7611
19058.6 10.8823
19060.4 9.35433
19062.3 8.45591
19064.1 7.87991
19066.0 7.48825
19069.7 7.00314
19073.4 6.72543
19077.1 6.55108
19080.8 6.43430
19088.2 6.29077
19095.6 6.20871
19103.1 6.15669
19110.5 6.12119
19125.3 6.07616
19140.1 6.04869
19169.8 6.01568
19199.4 5.99486
19229.1 5.97908
19288.4 5.95366
19525.6 5.86649
19644.2 5.81919
19762.8 5.76416
19881.4 5.69310
19940.7 5.64482
20000.0 5.57749
20044.8 5.49935
20067.2 5.44189
20089.6 5.36035
20100.8 5.30434
20112.0 5.23170
20123.2 5.13291
20134.4 4.98959
20140.0 4.89014
20145.6 4.76085
20151.2 4.58561
20156.8 4.33435
20159.6 4.16290
20162.4 3.94420
20165.2 3.65618
20168.0 3.26176
20170.8 2.69703
20172.2 2.32124
20173.6 1.87036
20175.0 1.37622
20176.4 1.11328
20177.1 1.48650
20177.5 2.05849
20177.8 3.16539
20178.2 5.26271
20178.5 9.27179
20178.7 12.6404
20178.9 17.1098
20179.0 23.7771
20179.2 32.5757
20179.4 46.9194
20179.6 65.7030
20180.0 101.918
20180.2 106.306
20180.4 99.5169
20180.8 75.0458
20181.1 58.4458
20181.5 46.6479
20181.8 38.4234
20182.1 32.7332
20182.7 25.1706
20183.4 20.7385
20184.0 17.8140
20184.6 15.8194
20185.9 13.2586
20187.2 11.6927
20188.4 10.6581
20189.7 9.91688
20190.9 9.36872
20193.5 8.60466
20196.0 8.10089
20198.5 7.74429
20201.1 7.47879
20206.1 7.10998
20211.2 6.86591
20216.2 6.69232
20221.3 6.56238
20231.4 6.38025
20241.6 6.25839
20251.7 6.17057
20261.8 6.10390
20282.0 6.00837
20302.3 5.94215
20342.8 5.85320
20383.3 5.79295
20423.7 5.74682
20504.7 5.67519
20585.7 5.61690
20666.7 5.56661
20707.2 5.54624
20747.6 5.53732
20767.9 5.54818
20778.0 5.56539
20788.1 5.60185
20798.2 5.68566
20803.3 5.77051
20808.4 5.92386
20810.9 6.05077
20813.4 6.24037
20816.0 6.54098
20818.5 7.05804
20821.0 8.05834
20822.3 8.95385
20823.5 10.3826
20824.8 12.9032
20826.1 17.8161
20826.7 22.2793
20827.3 29.2491
20828.0 40.7866
20828.6 60.1997
20829.3 92.8729
20830.0 114.576
20830.7 92.3614
20831.4 59.7988
20832.0 42.2253
20832.5 31.3140
20833.1 24.3370
20833.6 19.7274
20834.7 14.3254
20835.8 11.4535
20836.9 9.76477
20838.0 8.69369
20840.2 7.46777
20842.4 6.82140
20844.6 6.43995
20846.8 6.19620
20849.0 6.03094
20853.4 5.82692
20857.8 5.71050
20866.6 5.58762
20875.4 5.52570
20884.2 5.48878
20901.9 5.44549
20937.1 5.39861
20972.3 5.36608
21113.2 5.25539
21183.6 5.19922
21254.1 5.14037
21394.9 5.01204
21535.8 4.86564
21606.3 4.78410
21676.7 4.69618
21747.1 4.60158
21817.6 4.50215
21852.8 4.45452
21870.4 4.43435
21888.0 4.42124
21905.6 4.42697
21914.4 4.44770
21923.2 4.49781
21927.6 4.54505
21932.0 4.62038
21936.4 4.74683
21940.8 4.97626
21943.0 5.16567
21945.2 5.44712
21947.4 5.88912
21949.6 6.63742
21951.8 8.04678
21952.9 9.26570
21954.0 11.1647
21955.1 14.3355
21956.2 20.1288
21956.8 24.9236
21957.3 31.9651
21957.9 42.5575
21958.4 58.4927
21959.2 91.1520
21960.0 113.006
21960.8 91.3351
21961.6 58.7253
21962.1 43.4955
21962.6 33.1239
21963.6 21.1944
21964.7 15.1795
21965.7 11.8214
21966.8 9.78146
21967.8 8.45752
21969.9 6.90729
21972.0 6.07119
21974.0 5.56973
21976.1 5.24515
21978.2 5.02260
21982.4 4.74421
21986.5 4.58151
21990.7 4.47668
21994.8 4.40409
22003.2 4.30924
22011.5 4.24851
22028.1 4.16881
22044.7 4.11145
22061.4 4.06259
22094.6 3.97337
22161.2 3.79636
22227.7 3.60390
22294.2 3.38777
22360.7 3.14175
22493.8 2.53113
22626.8 1.70157
22693.4 1.18464
22759.9 0.615835
22793.2 0.338687
22826.4 0.108910
22843.1 0.0336217
22851.4 0.0122721
22859.7 0.00533835
22868.0 0.0162318
22876.3 0.0491459
22884.6 0.109391
22893.0 0.203317
22901.3 0.339272
22909.6 0.527376
22917.9 0.780514
22926.2 1.11458
22942.9 2.11616
22959.5 3.78154
22976.1 6.53144
22992.7 11.0853
23009.4 18.6624
23026.0 31.1877
23039.5 46.6168
23053.0 67.2762
23080.0 108.972
23093.5 115.409
23107.0 109.686
23134.0 84.2930
23164.4 60.3958
23194.8 45.5496
23225.2 36.3265
23255.6 30.2944
23286.0 26.1296
23316.4 23.1213
23377.2 19.1167
23438.1 16.6048
23498.9 14.8972
23620.5 12.7408
23742.1 11.4427
23863.7 10.5781
24106.9 9.49800
24350.2 8.84695
24593.4 8.40607
24836.6 8.07975
24958.2 7.94215
25019.1 7.87739
25049.5 7.84610
25064.7 7.83197
25072.3 7.82983
25076.1 7.84634
25078.0 7.91626
25078.9 8.15015
25079.4 8.81697
25079.6 10.2469
25079.7 12.3197
25079.9 16.9965
25079.9 22.8024
25080.0 26.1277
25080.1 22.7385
25080.1 16.9138
25080.3 11.5541
25080.4 9.72172
25080.7 8.53666
25081.3 8.04007
25082.4 7.87300
25084.7 7.82390
25089.3 7.80722
25098.5 7.79496
25116.9 7.77546
25153.7 7.73747
25227.3 7.66028
25374.4 7.48437
25448.0 7.36389
25484.8 7.28264
25521.6 7.17301
25558.3 7.00681
25576.7 6.88193
25595.1 6.70252
25604.3 6.57849
25613.5 6.41754
25622.7 6.19885
25631.9 5.88412
25636.5 5.66769
25641.1 5.38945
25645.7 5.01863
25650.3 4.50226
25652.6 4.15943
25654.9 3.73488
25657.2 3.19905
25659.5 2.51213
25661.8 1.63731
25664.1 0.668914
25665.2 0.416596
25665.8 0.546485
25666.4 1.06824
25667.0 2.39833
25667.3 3.60134
25667.5 5.31037
25667.8 7.90623
25668.1 11.5721
25668.4 17.1122
25668.7 24.8346
25669.0 37.9453
25669.3 55.8912
25670.0 93.8464
25670.3 100.918
25670.7 97.2179
25671.3 76.4586
25671.8 61.5206
25672.3 50.4207
25672.9 42.4322
25673.4 36.7136
25674.4 29.0791
25675.4 24.4055
25676.4 21.2848
25677.4 19.1135
25679.4 16.2870
25681.5 14.5371
25683.5 13.3641
25685.5 12.5222
25687.5 11.8897
25691.6 11.0026
25695.6 10.4139
25699.7 9.99321
25703.7 9.67905
25711.8 9.23928
25719.9 8.94621
25728.0 8.73655
25736.1 8.57883
25752.2 8.35652
25768.4 8.20639
25800.8 8.01407
25833.1 7.89361
25865.5 7.80926
25930.2 7.69539
25995.0 7.61969
26027.3 7.59072
26059.7 7.56695
26092.0 7.54962
26124.4 7.54517
26140.6 7.55624
26156.8 7.59894
26164.9 7.65874
26168.9 7.71622
26172.9 7.81603
26177.0 8.01535
26179.0 8.20022
26181.0 8.51452
26183.1 9.12412
26184.1 9.66833
26185.1 10.5546
26186.1 12.1450
26186.6 13.4769
26187.1 15.4294
26187.6 18.5821
26188.1 23.8171
26188.6 33.5872
26189.1 51.9004
26189.6 77.4247
26190.0 93.5920
26190.5 74.9743
26190.9 49.1399
26191.2 37.7059
26191.4 30.0538
26192.0 20.9502
26192.5 16.1369
26193.1 13.4587
26193.6 11.7883
26194.2 10.7217
26195.3 9.46174
26196.3 8.78882
26197.4 8.39116
26199.6 7.96872
26201.8 7.76362
26204.0 7.65030
26208.3 7.53776
26217.1 7.45985
26225.8 7.43375
26260.6 7.40402
26330.4 7.37526
26400.1 7.34985
26469.8 7.32797
26539.5 7.31153
26574.4 7.30673
26609.3 7.30612
26644.1 7.31386
26661.6 7.32426
26679.0 7.34403
26696.4 7.38454
26705.2 7.42223
26713.9 7.48604
26722.6 7.60985
26726.9 7.72302
26731.3 7.91340
26735.7 8.28096
26737.8 8.61347
26740.0 9.16496
26742.2 10.1908
26743.3 11.0775
26744.4 12.4695
26745.5 14.8376
26746.6 19.3312
26747.1 23.2640
26747.6 29.2052
26748.2 38.6666
26748.7 53.8630
26749.4 80.1554
26750.0 96.3508
26750.7 76.6518
26751.3 49.7044
26751.8 35.0764
26752.3 26.2672
26752.9 20.6889
26753.4 17.1622
26754.4 13.1001
26755.5 11.0136
26756.5 9.82221
26757.6 9.08657
26759.7 8.27386
26761.8 7.86583
26763.9 7.63649
26768.1 7.40758
26772.3 7.30494
26776.5 7.25282
26784.9 7.20744
26801.7 7.18527
26818.5 7.18329
26885.6 7.19482
26952.8 7.21532
27019.9 7.25924
27053.5 7.29992
27087.1 7.36462
27120.6 7.47284
27154.2 7.66831
27171.0 7.82921
27187.8 8.06780
27204.6 8.44186
27221.4 9.07404
27238.1 10.2659
27246.5 11.2995
27254.9 12.9129
27263.3 15.6247
27271.7 20.6195
27275.9 24.8007
27280.1 30.9881
27284.3 40.4401
27288.5 54.8432
27294.3 83.6217
27300.0 102.747
27305.8 83.2641
27311.5 54.4302
27317.5 35.5960
27323.4 25.3255
27329.4 19.5045
27335.3 15.9996
27341.3 13.7507
27347.2 12.2376
27359.1 10.3985
27371.1 9.37318
27383.0 8.74603
27406.8 8.05214
27430.6 7.69737
27454.4 7.49173
27478.2 7.36169
27502.1 7.27408
27549.7 7.16660
27597.3 7.10593
27645.0 7.06956
27692.6 7.04860
27787.9 7.04501
27835.5 7.06927
27883.1 7.12905
27930.8 7.27150
27954.6 7.41587
27978.4 7.67515
28002.2 8.20574
28014.1 8.70624
28026.1 9.56310
28038.0 11.2149
28043.9 12.6865
28049.9 15.0515
28055.8 19.2112
28061.8 27.4383
28064.8 34.8741
28067.7 46.7448
28070.7 66.8276
28073.7 101.303
28076.8 157.431
28080.0 194.359
28083.2 156.226
28086.3 99.8510
28090.1 58.9216
28093.9 38.5215
28097.7 27.7605
28101.5 21.6070
28105.3 17.8124
28109.0 15.3594
28116.6 12.5922
28124.2 11.4280
28128.0 11.3164
28131.8 11.6169
28135.5 12.6388
28137.4 13.6575
28139.3 15.3126
28141.2 18.1246
28143.1 23.1486
28145.0 32.8897
28146.0 41.1564
28146.9 52.8498
28148.5 80.4783
28150.0 99.4581
28151.6 81.9219
28153.1 54.7997
28154.9 34.9104
28156.8 24.7394
28158.6 19.1912
28160.4 15.9429
28162.2 13.8743
28164.1 12.4914
28167.7 10.7979
28171.4 9.82790
28175.0 9.21418
28182.3 8.49455
28189.6 8.08973
28196.9 7.83170
28211.5 7.52057
28226.1 7.33885
28240.7 7.21826
28255.2 7.12830
28262.5 7.08699
28266.2 7.07666
28268.0 7.15125
28268.9 7.51759
28269.4 8.66862
28269.6 11.1120
28269.7 14.2577
28269.8 22.0407
28269.9 31.8534
28270.0 38.7764
28270.1 33.3026
28270.2 23.8671
28270.3 15.4160
28270.4 11.8110
28270.7 9.25391
28271.2 7.91307
28272.2 7.38025
28274.2 7.18389
28278.3 7.10206
28286.5 7.05138
28302.8 7.00010
28335.4 6.93707
28368.0 6.89532
28400.6 6.86477
28465.9 6.82167
28531.1 6.79118
28661.6 6.74665
28792.0 6.71146
29313.9 6.58825
29574.8 6.51719
29835.8 6.41614
29966.2 6.33428
30096.7 6.18948
30161.9 6.05478
30194.5 5.95073
30227.2 5.79887
30259.8 5.55427
30276.1 5.36516
30292.4 5.09162
30300.5 4.90293
30308.7 4.66027
30316.9 4.33604
30325.0 3.88344
30329.1 3.58293
30333.2 3.21058
30337.2 2.74037
30341.3 2.13882
30345.4 1.36992
30349.5 0.514785
30351.5 0.277624
30352.5 0.371385
30353.5 0.797208
30354.6 1.88100
30355.1 2.85932
30355.6 4.30374
30356.1 6.42441
30356.6 9.52873
30357.1 14.0545
30357.6 20.4317
30358.2 31.4765
30358.8 46.6614
30360.0 78.7182
30360.6 84.9301
30361.2 82.0024
30362.4 64.8514
30363.4 50.9832
30364.5 41.0773
30365.5 34.2083
30366.6 29.3480
30368.6 23.1316
30370.7 19.4456
30372.8 17.0309
30374.9 15.3567
30379.0 13.1907
30383.2 11.8620
30387.3 10.9723
30391.5 10.3352
30395.6 9.85738
30403.9 9.18893
30412.2 8.74540
30428.8 8.19340
30445.4 7.86438
30462.1 7.64641
30495.3 7.37681
30528.5 7.21858
30561.7 7.11751
30628.1 7.00995
30661.3 6.99040
30694.6 6.99467
30727.8 7.03240
30761.0 7.12968
30777.6 7.22004
30794.2 7.36185
30810.8 7.59510
30827.4 8.00909
30835.7 8.34607
30844.0 8.84072
30852.3 9.60966
30860.6 10.8939
30868.9 13.2817
30873.1 15.3200
30877.2 18.4618
30881.4 23.6373
30885.5 32.9216
30887.6 40.4958
30889.7 51.3924
30891.8 67.5532
30893.8 91.2347
30896.9 141.469
30900.0 174.469
30903.1 140.242
30906.2 89.7278
30909.2 58.2297
30912.1 40.4033
30915.1 29.9795
30918.1 23.5836
30921.1 19.4130
30924.1 16.5828
30930.0 13.1056
30936.0 11.1501
30942.0 9.94828
30953.9 8.61571
30965.9 7.93370
30977.8 7.53953
30989.7 7.29134
31001.7 7.12490
31025.5 6.92131
31049.4 6.80521
31073.3 6.73159
31097.2 6.68111
31144.9 6.61597
31192.7 6.57461
31240.4 6.54469
31288.2 6.52101
31383.7 6.48340
31479.2 6.45232
31670.2 6.39798
31861.2 6.34758
31956.7 6.32387
32052.2 6.30351
32147.7 6.29423
32195.4 6.30143
32243.2 6.32949
32267.0 6.35971
32290.9 6.41105
32314.8 6.50149
32338.7 6.67220
32350.6 6.81703
32362.5 7.03665
32374.5 7.38979
32386.4 8.00534
32398.3 9.21741
32404.3 10.3144
32410.3 12.1024
32416.2 15.3048
32419.2 17.9389
32422.2 21.8211
32425.2 27.8744
32428.2 37.8102
32431.2 55.1861
32434.1 86.5290
32437.1 134.835
32440.0 167.034
32442.9 134.816
32445.9 86.5264
32448.3 59.4258
32450.8 42.8267
32453.2 32.4618
32455.7 25.7896
32460.6 18.1232
32465.5 14.1395
32470.4 11.8227
32475.3 10.3665
32485.1 8.71391
32494.9 7.84602
32504.8 7.33438
32514.6 7.00574
32524.4 6.78134
32544.0 6.49918
32563.6 6.33061
32583.3 6.21738
32602.9 6.13383
32642.2 6.01007
32681.4 5.91001
32720.7 5.81386
32759.9 5.71021
32838.4 5.43778
32877.7 5.23725
32916.9 4.95224
32956.2 4.50815
32975.8 4.17668
32995.5 3.71549
33015.1 3.03334
33024.9 2.55825
33034.7 1.95157
33044.5 1.18073
33054.3 0.327734
33056.8 0.167342
33059.3 0.0913930
33061.7 0.179267
33064.2 0.583370
33065.4 0.990493
33066.6 1.60981
33067.8 2.52981
33069.1 3.86555
33070.3 5.82348
33071.5 8.63413
33072.7 12.7148
33074.0 18.4802
33075.5 28.7749
33077.0 43.0130
33080.0 73.7883
33081.5 80.0033
33083.0 77.6177
33086.0 61.7372
33087.9 52.2919
33089.7 44.6619
33093.4 34.1250
33097.0 27.6172
33100.7 23.3897
33104.3 20.4678
33108.0 18.3615
33115.3 15.5479
33122.6 13.7762
33129.9 12.5668
33144.5 11.0322
33159.1 10.1038
33173.8 9.48379
33203.0 8.70920
33232.2 8.24542
33261.5 7.93682
33320.0 7.55176
33436.9 7.16763
33553.9 6.97719
33787.8 6.79744
34021.7 6.73796
34255.6 6.77366
34372.6 6.84741
34489.6 6.99622
34606.5 7.30728
34665.0 7.59531
34723.5 8.07459
34782.0 8.96234
34811.2 9.72520
34840.4 10.9173
34869.7 12.9381
34898.9 16.7729
34913.5 20.1066
34928.2 25.2764
34942.8 33.6526
34957.4 47.4001
34973.7 69.7589
34990.0 82.5424
35006.3 64.5909
35022.6 41.0111
35041.1 25.2648
35059.6 17.3914
35078.0 13.2382
35096.5 10.8732
35115.0 9.42929
35133.5 8.49842
35170.4 7.43228
35207.4 6.88744
35244.3 6.58864
35318.2 6.34519
35392.1 6.39607
35429.1 6.55845
35466.0 6.90007
35503.0 7.62877
35521.4 8.30129
35539.9 9.39096
35558.4 11.2814
35576.9 14.8647
35586.1 17.9136
35595.3 22.4837
35604.6 29.5138
35613.8 40.3526
35626.9 63.5717
35640.0 81.2839
35653.1 68.8427
35666.2 47.0232
35680.6 31.3920
35695.0 22.8869
35709.4 18.1063
35723.8 15.2531
35752.6 12.3280
35781.4 11.2257
35810.2 11.3179
35824.6 11.9233
35839.0 13.1860
35853.4 15.7176
35860.6 17.8964
35867.8 21.1980
35875.0 26.4421
35882.2 35.2796
35889.4 51.1840
35896.6 80.8978
35903.3 124.967
35910.0 154.177
35916.7 124.273
35923.4 80.0023
35929.5 53.5669
35935.7 38.0938
35941.8 28.8306
35947.9 23.0060
35960.2 16.4981
35972.5 13.1812
35984.7 11.2740
35997.0 10.0766
36021.5 8.70654
36046.0 7.97222
36070.5 7.52609
36119.6 7.02003
36168.6 6.74290
36217.7 6.56736
36315.8 6.35354
36413.9 6.22320
36511.9 6.13111
36708.1 5.99938
36904.3 5.89830
37002.4 5.85307
37100.5 5.81062
37198.6 5.77330
37247.6 5.75973
37296.7 5.75544
37345.7 5.77618
37370.2 5.81070
37394.8 5.88551
37407.0 5.95330
37419.3 6.05964
37431.5 6.23530
37443.8 6.54782
37456.1 7.16906
37462.2 7.73077
37468.3 8.64090
37474.5 10.2395
37480.6 13.3751
37483.7 16.1623
37486.7 20.5204
37489.8 27.6698
37492.8 39.4798
37496.4 60.4995
37500.0 75.0997
37503.6 61.8560
37507.2 41.2117
37509.6 31.3886
37512.0 24.7053
37514.4 20.1330
37516.8 16.9678
37521.6 13.0425
37526.4 10.8397
37531.2 9.48857
37536.0 8.60526
37545.6 7.56063
37555.3 6.98751
37564.9 6.63844
37584.1 6.24817
37603.3 6.04210
37622.5 5.91696
37661.0 5.77234
37699.5 5.68828
37737.9 5.62981
37814.8 5.54479
37891.7 5.47640
37968.6 5.41314
38122.4 5.28603
38276.3 5.14641
38430.1 4.98766
38507.0 4.90272
38583.9 4.82404
38622.3 4.79893
38660.8 4.81302
38680.0 4.86707
38689.6 4.92641
38699.2 5.03394
38708.9 5.24995
38713.7 5.44845
38718.5 5.77920
38723.3 6.40060
38725.7 6.94188
38728.1 7.80222
38730.5 9.30698
38731.7 10.5145
38732.9 12.2760
38734.1 14.9770
38735.3 19.3695
38736.5 26.9673
38737.7 40.5104
38738.9 60.4403
38740.0 72.0774
38741.2 56.5990
38742.3 35.9487
38743.7 21.4984
38745.1 14.4305
38746.4 10.7628
38747.8 8.69206
38749.2 7.43412
38750.5 6.62340
38753.3 5.69326
38756.0 5.20620
38758.7 4.92671
38764.2 4.64012
38769.7 4.50828
38775.2 4.43938
38786.1 4.37547
38808.0 4.33824
38829.9 4.34244
38851.8 4.39655
38862.7 4.46590
38873.6 4.60214
38884.6 4.89756
38890.1 5.18395
38895.5 5.68240
38901.0 6.65942
38903.7 7.54315
38906.5 8.97943
38909.2 11.5586
38910.6 13.6812
38911.9 16.8025
38913.3 21.7060
38914.7 29.8460
38916.0 44.2681
38917.4 70.4678
38918.7 109.799
38920.0 135.568
38921.3 108.703
38922.6 69.1017
38923.9 43.2931
38925.3 29.1478
38926.6 21.1317
38928.0 16.3228
38929.3 13.2152
38930.6 11.1228
38933.3 8.59335
38936.0 7.18004
38938.7 6.32062
38944.0 5.37150
38949.3 4.88680
38954.7 4.60657
38965.4 4.31029
38976.1 4.16294
38986.8 4.07831
39008.2 3.99156
39050.9 3.97026
39093.7 4.14021
39136.5 4.70286
39157.9 5.30050
39179.3 6.32205
39200.6 8.13265
39222.0 11.5234
39243.4 18.3414
39254.1 24.2152
39264.8 32.7309
39282.4 53.0895
39300.0 67.7491
39317.6 55.3384
39335.2 35.3286
39354.8 21.4327
39374.3 14.9715
39384.1 13.8314
39393.9 14.1406
39403.6 16.2876
39413.4 20.9960
39422.6 28.5981
39431.7 39.7852
39450.0 65.2463
39459.2 70.7470
39468.3 69.0421
39486.6 55.9024
39508.3 41.5854
39529.9 32.4156
39551.6 26.6081
39573.2 22.7409
39616.5 18.0325
39638.2 16.5165
39649.0 15.8907
39654.4 15.6117
39657.2 15.5023
39658.5 15.5291
39659.2 15.7819
39659.5 16.4737
39659.7 17.7171
39659.9 21.5983
39660.0 27.7299
39660.1 21.4302
39660.3 17.3415
39660.5 16.1922
39660.9 15.5884
39661.6 15.3274
39663.1 15.1890
39666.1 15.0327
39672.1 14.7618
39684.1 14.2707
39708.0 13.4342
39755.9 12.1759
39851.7 10.6047
39947.4 9.66771
40043.2 9.04737
40234.7 8.27853
40426.3 7.82309
40617.8 7.52852
40713.6 7.42320
40809.3 7.34535
40905.1 7.30640
40953.0 7.31364
41000.9 7.35853
41024.8 7.40744
41048.7 7.48879
41072.7 7.62747
41096.6 7.87921
41108.6 8.08595
41120.6 8.39149
41132.5 8.86860
41144.5 9.67253
41156.5 11.1845
41162.5 12.4976
41168.4 14.5533
41174.4 18.0361
41180.4 24.5406
41183.4 30.0907
41186.4 38.4439
41189.4 51.4618
41192.4 71.8548
41196.2 109.781
41200.0 134.174
41203.8 107.620
41207.6 69.1715
41210.1 51.7043
41212.6 39.8285
41217.6 26.1120
41222.5 19.1785
41227.5 15.3112
41232.4 12.9692
41237.4 11.4559
41247.3 9.69744
41257.2 8.76061
41267.2 8.20608
41287.0 7.61238
41306.8 7.31823
41326.7 7.15076
41346.5 7.04535
41366.4 6.97373
41406.1 6.88266
41445.7 6.82588
41525.1 6.75346
41604.5 6.70321
41683.8 6.66221
41842.6 6.59312
42160.0 6.47935
42477.5 6.38379
42795.0 6.30094
43112.4 6.22998
43271.1 6.20035
43429.9 6.17815
43509.2 6.17324
43588.6 6.18054
43628.3 6.19764
43648.1 6.21531
43668.0 6.24673
43687.8 6.30975
43697.7 6.36844
43707.7 6.46864
43717.6 6.66420
43722.5 6.84290
43727.5 7.14196
43732.5 7.70511
43734.9 8.19772
43737.4 8.98038
43739.9 10.3347
43742.4 12.9734
43743.6 15.3216
43744.9 19.0400
43746.1 25.2225
43747.3 35.6935
43748.7 52.7085
43750.0 63.2685
43751.3 50.9554
43752.7 33.6763
43753.9 23.5974
43755.1 17.6873
43756.3 14.1563
43757.5 11.9605
43759.9 9.51341
43762.2 8.28673
43764.6 7.59432
43767.0 7.17285
43771.8 6.71052
43776.6 6.47909
43781.4 6.34940
43790.9 6.21919
43800.5 6.16023
43810.1 6.12972
43829.2 6.10208
43867.5 6.08655
43905.8 6.08362
43982.3 6.08557
44058.8 6.09249
44211.9 6.12599
44365.0 6.21010
44518.1 6.41568
44594.6 6.62340
44671.2 6.98785
44747.7 7.69322
44786.0 8.31323
44824.2 9.28981
44862.5 10.9399
44900.8 13.9979
44919.9 16.5624
44939.0 20.3703
44958.2 26.1789
44977.3 35.0579
45003.7 52.9226
45030.0 64.9647
45056.4 53.1692
45082.7 35.4153
45101.7 26.5713
45120.8 20.7454
45139.8 16.9004
45158.9 14.2963
45196.9 11.1594
45235.0 9.44359
45273.1 8.41137
45311.2 7.74331
45387.3 6.95470
45463.5 6.52017
45539.6 6.29399
45577.7 6.31654
45596.7 6.42441
45615.8 6.68602
45634.8 7.29727
45653.8 8.83074
45663.4 10.4482
45672.9 13.3644
45682.4 18.9728
45691.9 30.1953
45701.0 49.0037
45710.0 65.5162
45719.1 58.5218
45728.2 42.0788
45736.1 31.5944
45744.0 24.8644
45751.9 20.5277
45759.7 17.6312
45775.5 14.1624
45791.3 12.2528
45807.0 11.0874
45822.8 10.3238
45854.3 9.41839
45917.4 8.66001
45980.4 8.44465
46106.5 8.69686
46232.7 9.66377
46358.8 11.7224
46484.9 16.1675
46547.9 20.3383
46611.0 27.1730
46674.1 38.9493
46737.1 59.6836
46803.6 93.8644
46870.0 116.981
46936.5 94.1148
47002.9 59.8810
47066.3 38.6163
47129.7 26.1842
47193.1 18.6112
47256.5 13.6274
47319.8 10.0863
47383.2 7.55965
47414.9 6.81438
47446.6 6.84943
47478.3 8.76412
47494.2 11.2328
47510.0 15.5375
47525.0 22.1068
47540.0 31.6251
47570.0 53.7348
47585.0 59.1175
47600.0 58.5058
47630.0 48.6423
47657.5 39.4292
47685.0 32.6775
47739.9 24.4921
47794.9 19.9910
47822.3 18.4275
47836.1 17.7194
47842.9 17.3139
47846.4 17.0041
47848.1 16.7507
47849.0 16.7745
47849.4 17.6914
47849.6 19.9423
47849.7 23.1212
47849.8 29.9236
47850.0 51.7121
47850.1 48.1534
47850.2 39.0340
47850.4 28.3458
47850.5 24.0245
47850.9 20.6540
47851.6 18.7788
47853.0 17.8618
47855.8 17.3624
47861.3 16.9702
47872.4 16.4829
47894.7 15.7185
47939.2 14.5104
48028.2 12.8063
48206.1 10.8030
48562.0 8.87657
48740.0 8.31870
48918.0 7.88189
49006.9 7.69122
49095.9 7.51374
49140.4 7.43468
49162.7 7.40372
49184.9 7.38948
49207.2 7.42218
49218.3 7.48454
49229.4 7.62325
49240.5 7.94498
49246.1 8.26138
49251.6 8.80241
49257.2 9.80381
49262.8 11.8797
49265.5 13.8032
49268.3 16.9337
49271.1 22.2807
49273.9 31.6107
49276.9 47.9344
49280.0 60.2633
49283.1 51.3942
49286.1 35.9329
49288.1 28.5529
49290.1 23.3833
49294.1 17.2461
49298.1 14.0219
49302.1 12.1581
49306.1 10.9876
49310.1 10.2078
49318.1 9.25813
49326.1 8.71706
49334.0 8.37548
49350.0 7.97396
49366.0 7.74636
49381.9 7.59815
49413.9 7.40986
49445.8 7.28659
49477.7 7.19243
49541.6 7.04178
49605.5 6.90826
49669.3 6.76867
49733.2 6.60751
49749.2 6.58655
49757.2 6.60240
49765.2 6.67136
49773.1 6.88773
49777.1 7.13627
49781.1 7.60985
49785.1 8.59844
49787.1 9.51319
49789.1 10.9915
49791.1 13.5701
49793.1 18.4216
49794.1 22.5441
49795.1 28.6865
49796.1 38.0532
49797.1 52.1807
49798.5 83.4738
49800.0 107.735
49801.5 91.5105
49802.9 62.3208
49804.5 41.7671
49806.0 30.1662
49807.6 23.4234
49809.1 19.2529
49810.6 16.5158
49812.2 14.6269
49815.3 12.2570
49818.3 10.8751
49821.4 9.99263
49827.6 8.95811
49833.7 8.38636
49839.9 8.03006
49846.1 7.78889
49852.2 7.61572
49864.5 7.38311
49876.8 7.23349
49889.2 7.12796
49901.5 7.04848
49926.1 6.93354
49950.7 6.85113
50000.0 6.73207
50080.1 6.59333
50160.2 6.48144
50320.3 6.28678
50640.6 5.92338
51281.3 5.05334
51601.6 4.39477
51921.9 3.35093
52082.0 2.54221
52162.1 2.02189
52242.2 1.40885
52322.3 0.726462
52362.3 0.402329
52382.3 0.266209
52402.4 0.165002
52422.4 0.120739
52432.4 0.129916
52442.4 0.167273
52452.4 0.239995
52462.4 0.357067
52472.4 0.529739
52482.4 0.772117
52502.5 1.54130
52522.5 2.86687
52542.5 5.06047
52562.5 8.57441
52584.4 14.6049
52606.3 23.4578
52650.0 44.8206
52671.9 50.6511
52693.8 50.9190
52737.5 42.9109
52784.7 33.6715
52831.9 27.2340
52879.0 22.9364
52926.2 19.9774
53020.6 16.2717
53114.9 14.0888
53209.3 12.6638
53256.5 12.1249
53303.6 11.6715
53350.8 11.2971
53374.4 11.1462
53398.0 11.0354
53421.6 11.0082
53433.4 11.0648
53445.2 11.2277
53457.0 11.6280
53462.9 12.0197
53468.8 12.6725
53474.7 13.8359
53480.6 16.0993
53483.5 18.0736
53486.5 21.0997
53489.4 25.8837
53492.4 33.4610
53496.2 48.3421
53500.0 59.0780
53503.8 50.3284
53507.7 35.9386
53511.5 26.3594
53515.4 20.9347
53519.3 17.7635
53523.2 15.7956
53527.0 14.4986
53530.9 13.6047
53538.6 12.4787
53546.4 11.8151
53554.1 11.3851
53569.6 10.8625
53585.1 10.5514
53600.6 10.3383
53631.6 10.0477
53662.5 9.84130
53693.5 9.67564
53755.5 9.40707
53817.4 9.18534
53879.4 8.99219
54003.3 8.66159
54127.2 8.38015
54251.1 8.13007
54375.0 7.89699
54436.9 7.77940
54467.9 7.72598
54483.4 7.77001
54487.2 7.85527
54491.1 8.11669
54493.0 8.46652
54495.0 9.31442
54495.9 10.2546
54496.9 12.1180
54497.4 13.8012
54497.9 16.3937
54498.4 20.6147
54498.8 27.6682
54499.4 40.5279
54500.0 49.9876
54500.6 42.4146
54501.2 30.0195
54501.7 22.2584
54502.2 17.6700
54502.8 14.8789
54503.3 13.0994
54504.4 11.0639
54505.4 10.0175
54507.5 9.01178
54509.7 8.55990
54513.9 8.16244
54518.2 7.99146
54526.7 7.83895
54535.2 7.76682
54552.2 7.68884
54569.2 7.63920
54603.2 7.56412
54637.3 7.49984
54773.3 7.26511
54909.4 7.03101
55045.5 6.78120
55181.6 6.50182
55249.7 6.34626
55317.7 6.17834
55385.8 6.00136
55419.8 5.91569
55453.8 5.84469
55487.9 5.82290
55504.9 5.86215
55521.9 5.98426
55538.9 6.30084
55547.4 6.62131
55555.9 7.16945
55564.4 8.17403
55572.9 10.2018
55577.2 12.0328
55581.4 14.9218
55585.7 19.6713
55589.9 27.5797
55595.0 42.0874
55600.0 52.6548
55605.1 44.2361
55610.1 30.2727
55614.0 22.7447
55617.8 17.8273
55621.7 14.6061
55625.6 12.4361
55633.3 9.81093
55641.0 8.35821
55648.8 7.46370
55656.5 6.86788
55672.0 6.12539
55687.4 5.67150
55702.9 5.35112
55733.8 4.88401
55764.8 4.50542
55795.7 4.14620
55857.6 3.37208
55919.4 2.41353
55950.4 1.83613
55981.3 1.19722
56012.2 0.558490
56027.7 0.302853
56035.4 0.217153
56043.1 0.178038
56050.9 0.206773
56058.6 0.333304
56066.3 0.600225
56074.1 1.06813
56081.8 1.82420
56089.5 2.98743
56097.3 4.72456
56105.0 7.25318
56116.3 12.8806
56127.5 21.3753
56150.0 42.8165
56161.3 49.2481
56172.5 50.2513
56195.0 43.3566
56214.0 36.3506
56233.1 30.8476
56252.1 26.7910
56271.1 23.7919
56309.1 19.7787
56347.2 17.2781
56385.2 15.5938
56404.2 14.9455
56423.3 14.3905
56442.3 13.9109
56461.3 13.4961
56480.3 13.1674
56485.1 13.1298
56489.8 13.1876
56492.2 13.3410
56494.6 13.8180
56495.8 14.4456
56497.0 15.9584
56497.6 17.6433
56498.2 20.9431
56498.5 23.9663
56498.8 28.6047
56499.1 36.5871
56499.3 49.6201
56499.7 72.2388
56500.0 87.7583
56500.3 73.2890
56500.7 50.9255
56500.9 41.2034
56501.1 34.3112
56501.5 25.9841
56501.9 21.5610
56502.3 19.0509
56503.1 16.3680
56503.8 15.1004
56505.4 13.9531
56507.0 13.4584
56510.2 13.0270
56513.4 12.8285
56519.7 12.6155
56526.1 12.4787
56538.8 12.2700
56551.5 12.0948
56576.9 11.7913
56602.3 11.5286
56627.8 11.2962
56653.2 11.0886
56704.0 10.7322
56805.7 10.1870
56907.4 9.78732
57110.7 9.23516
57314.0 8.86638
57517.4 8.60072
57619.1 8.49654
57720.7 8.41337
57822.4 8.36646
57873.2 8.37287
57924.1 8.42676
57974.9 8.59494
58000.3 8.77871
58025.7 9.11117
58051.2 9.76259
58063.9 10.3316
58076.6 11.2128
58089.3 12.6531
58102.0 15.1705
58114.7 19.9153
58127.4 29.3013
58138.7 43.3378
58150.0 53.7949
58161.3 45.9133
58172.6 32.5203
58180.4 25.9017
58188.1 21.3717
58195.9 18.2818
58203.7 16.1293
58219.2 13.4531
58234.8 11.9350
58250.3 10.9943
58265.8 10.3708
58296.9 9.61699
58328.0 9.18973
58359.1 8.91971
58421.2 8.60067
58483.4 8.41777
58545.5 8.29715
58607.7 8.21018
58638.7 8.17630
58654.3 8.16585
58662.0 8.17698
58665.9 8.23629
58667.9 8.44243
58668.8 9.06773
58669.3 10.6388
58669.6 13.3726
58669.8 23.4901
58670.0 38.4013
58670.2 23.0516
58670.4 14.1669
58670.6 11.1241
58671.0 9.28324
58671.8 8.48851
58673.3 8.22654
58676.5 8.15245
58682.7 8.13002
58695.2 8.11561
58720.2 8.09377
58770.1 8.05473
58870.0 7.98893
58969.9 7.93499
59019.9 7.91201
59044.9 7.90311
59057.3 7.90401
59063.6 7.91989
59066.7 7.97647
59068.3 8.15800
59069.0 8.68543
59069.4 9.92944
59069.6 12.1100
59069.8 18.9186
59070.0 29.4826
59070.2 18.4517
59070.4 11.7456
59070.6 9.72453
59071.0 8.53149
59071.7 8.06455
59073.3 7.92419
59076.4 7.88872
59082.6 7.88007
59095.0 7.87492
59119.9 7.86561
59169.5 7.84693
59268.9 7.81225
59467.6 7.75475
59666.3 7.71273
59865.0 7.68918
60063.7 7.69447
60262.4 7.75905
60361.8 7.83960
60461.1 7.99053
60560.5 8.29445
60610.1 8.57288
60635.0 8.78621
60647.4 8.95760
60653.6 9.14820
60656.7 9.46387
60658.3 10.1145
60659.0 11.5150
60659.4 14.1566
60659.6 17.7491
60659.8 26.9967
60659.9 34.7661
60660.0 37.7117
60660.2 19.6788
60660.4 11.2269
60660.7 9.30313
60661.1 8.59442
60662.1 8.56187
60664.0 8.71912
60667.8 8.88477
60675.3 9.05399
60690.5 9.30628
60720.8 9.88183
60751.0 10.7177
60781.3 12.0355
60811.6 14.2901
60841.9 18.5707
60857.0 22.2607
60872.1 27.8990
60887.3 36.8197
60902.4 51.0305
60921.2 77.1667
60940.0 94.4661
60958.8 76.8654
60977.6 50.6942
60993.7 35.7935
61009.9 26.7472
61026.0 21.1817
61042.1 17.6151
61074.4 13.5569
61106.6 11.4615
61138.9 10.2510
61171.1 9.49231
61235.6 8.63144
61300.1 8.17886
61364.6 7.91022
61493.7 7.61554
61622.7 7.46020
61751.7 7.36335
61880.7 7.29461
61945.2 7.26450
61977.4 7.24702
61993.6 7.23649
62001.6 7.24750
62005.7 7.35569
62007.7 7.82396
62008.7 9.30584
62009.2 12.5965
62009.4 17.4515
62009.7 30.3299
62009.9 45.1867
62010.0 55.2837
62010.2 46.6698
62010.3 32.2026
62010.5 22.7800
62010.6 17.6049
62010.9 12.6642
62011.5 9.46910
62012.7 8.04709
62015.2 7.52589
62020.0 7.34776
62029.7 7.28338
62049.0 7.25440
62087.8 7.23385
62165.2 7.21149
62242.7 7.19950
62320.1 7.20267
62397.6 7.24262
62436.3 7.29716
62475.0 7.40820
62513.7 7.65431
62533.1 7.89282
62552.5 8.29934
62571.8 9.05472
62591.2 10.6388
62600.9 12.1298
62610.5 14.5995
62620.2 18.9237
62629.9 26.7107
62640.0 39.7338
62650.0 49.5108
62660.1 42.3430
62670.1 29.9833
62681.2 21.1153
62692.3 16.2928
62703.4 13.5695
62714.5 11.9213
62736.6 10.1351
62758.8 9.24485
62781.0 8.73929
62803.2 8.42623
62847.5 8.08167
62936.2 7.85384
63025.0 7.91001
63113.7 8.26386
63158.0 8.65302
63202.4 9.34157
63246.7 10.6560
63268.9 11.7831
63291.1 13.5040
63313.3 16.2782
63335.5 21.0505
63357.6 29.8771
63379.8 46.9444
63399.9 72.4416
63420.0 90.7893
63440.1 75.6648
63460.2 51.0063
63481.1 34.2973
63502.1 24.9943
63523.0 19.6446
63543.9 16.3691
63564.9 14.2396
63585.8 12.7848
63627.7 10.9829
63669.5 9.94960
63711.4 9.30002
63795.1 8.55273
63878.8 8.14878
63962.6 7.90133
64046.3 7.73594
64130.0 7.61809
64297.5 7.46113
64464.9 7.36024
64632.4 7.28805
64716.1 7.25748
64758.0 7.24090
64778.9 7.22823
64789.4 7.21455
64794.6 7.20014
64797.2 7.20329
64798.5 7.30540
64799.2 7.73427
64799.5 8.88090
64799.7 10.7269
64799.8 16.1991
64800.0 26.9389
64800.2 17.9754
64800.5 10.4946
64800.7 8.74310
64801.3 7.84124
64802.4 7.47278
64804.6 7.33121
64809.1 7.27526
64818.0 7.24996
64835.8 7.23485
64871.4 7.22051
64942.6 7.20017
65085.0 7.16652
65227.4 7.13627
65298.6 7.11973
65334.2 7.10720
65352.0 7.09401
65360.9 7.08049
65365.3 7.08520
65367.6 7.19356
65368.7 7.67721
65369.2 9.11728
65369.5 11.9637
65369.8 22.6130
65370.0 40.2496
65370.2 24.7499
65370.4 17.1898
65370.5 13.2482
65370.8 10.1112
65371.4 8.32975
65372.6 7.56729
65374.9 7.28602
65379.6 7.18271
65388.9 7.14107
65407.6 7.12065
65445.0 7.10503
65482.4 7.09091
65501.1 7.07759
65510.4 7.06432
65515.1 7.06979
65517.4 7.18115
65518.6 7.67980
65519.2 9.13016
65519.5 11.9520
65519.6 15.6668
65519.8 23.2762
65520.0 41.6925
65520.2 25.5129
65520.5 14.9105
65520.7 11.2756
65521.2 8.86989
65522.1 7.76627
65524.0 7.34688
65527.8 7.19490
65535.3 7.13674
65550.3 7.11107
65580.3 7.09610
65640.4 7.08232
65760.6 7.06326
66000.9 7.03171
66481.6 6.97692
66962.2 6.92461
67082.4 6.91264
67202.6 6.90919
67262.7 6.92384
67292.7 6.94599
67322.7 6.99445
67337.8 7.03930
67352.8 7.11127
67367.8 7.23341
67382.8 7.45801
67397.8 7.92364
67405.3 8.36083
67412.9 9.09474
67420.4 10.4465
67424.1 11.5833
67427.9 13.2898
67431.6 16.0029
67435.4 20.5665
67439.1 28.8169
67442.9 44.2280
67446.5 67.8868
67450.0 84.6177
67453.6 70.2560
67457.1 47.2829
67460.4 33.1783
67463.6 24.7826
67466.9 19.6993
67470.2 16.4729
67476.7 12.8279
67483.2 10.9466
67489.7 9.85477
67496.2 9.16514
67509.3 8.37369
67522.3 7.95043
67535.3 7.69595
67548.4 7.52986
67561.4 7.41477
67587.5 7.26811
67613.6 7.18032
67639.6 7.12258
67665.7 7.08197
67717.9 7.02868
67770.0 6.99499
67874.3 6.95354
67978.6 6.92735
68082.9 6.90784
68291.5 6.87737
68500.1 6.85116
68708.7 6.82733
68813.0 6.82069
68865.1 6.82349
68917.3 6.83853
68943.3 6.85625
68969.4 6.88791
68995.5 6.94605
69021.6 7.05935
69047.6 7.30414
69060.7 7.53825
69073.7 7.93308
69086.7 8.65827
69099.8 10.1538
69106.3 11.5399
69112.8 13.7992
69119.3 17.6705
69125.8 24.4418
69132.9 36.1337
69140.0 44.8697
69147.1 38.3783
69154.2 27.2599
69159.4 21.4581
69164.5 17.5788
69169.7 14.9881
69174.9 13.2170
69185.2 11.0515
69195.6 9.84451
69205.9 9.10674
69216.3 8.62277
69237.0 8.04488
69257.7 7.72295
69278.4 7.52307
69299.1 7.38828
69309.4 7.33783
69314.6 7.33057
69317.2 7.40092
69318.5 7.70530
69319.2 8.63636
69319.5 10.6095
69319.6 13.3962
69319.8 20.3351
69320.0 34.1256
69320.2 21.0886
69320.4 13.0711
69320.6 10.2253
69321.0 8.48677
69321.9 7.70812
69323.5 7.42433
69326.8 7.32163
69333.3 7.26962
69346.5 7.22034
69372.7 7.15525
69425.2 7.07231
69477.7 7.02038
69530.2 6.98466
69635.2 6.93822
69740.2 6.90869
69950.1 6.87142
70160.1 6.84704
70580.1 6.81338
71000.0 6.78866
71000.0 8.84728
80000.0 8.95439
99999.9 9.15817
100000 8.75802
105000 8.69913
110000 8.59516
111854 8.54018
115000 8.44688
120000 8.29860
125000 8.24340
127686 8.23857
130000 8.23441
135000 8.27211
140000 8.40172
144569 8.60413
145000 8.62323
150000 8.84473
160000 9.10715
170000 9.18980
175000 8.91393
180000 8.68593
185000 8.36598
190000 8.13748
195000 7.77330
200000 7.54611
203206 7.61947
210000 7.77492
230000 8.78471
238590 8.66966
240000 8.65078
250000 8.29439
256494 7.82600
260000 7.57313
270000 7.53657
277108 7.77105
280000 7.86645
282062 7.88901
290000 7.97587
300000 7.39155
305133 7.13822
310000 6.89802
320000 7.00203
330000 7.38401
333622 7.53964
340000 7.81368
350000 8.15239
350808 8.15739
360000 8.21424
370000 8.07967
380000 7.81554
390000 8.10976
400000 8.63729
410000 8.84177
420000 8.85816
430000 8.59270
440000 8.56133
450000 8.57679
460000 8.49786
470000 8.32378
480000 7.86458
490000 7.45094
500000 7.32096
520000 7.98202
530000 8.31255
540000 8.32570
550000 7.95539
560000 7.82037
570000 7.63957
580000 7.50638
600000 7.44998
620000 7.53748
640000 7.66298
660000 7.75935
680000 7.83609
700000 7.84315
720000 7.73947
740000 7.44140
760000 7.08026
770000 6.91450
780000 6.74875
800000 6.49361
820000 6.75467
831600 7.01975
831600 7.01975
840000 7.21170
860000 7.20306
880000 7.05485
940000 6.67282
944726 6.64272
960000 6.54547
980000 6.47837
1.00000E+06 6.41126
1.05000E+06 6.33840
1.10000E+06 6.31161
1.15000E+06 6.23192
1.20000E+06 6.12877
1.21830E+06 6.07225
1.25000E+06 5.97435
1.30000E+06 5.81994
1.31400E+06 5.77670
1.35000E+06 5.66552
1.39500E+06 5.53912
1.39799E+06 5.53073
1.39799E+06 5.53073
1.39800E+06 5.53070
1.40000E+06 5.52508
1.45000E+06 5.45152
1.47610E+06 5.41312
1.50000E+06 5.37796
1.51187E+06 5.36714
1.51187E+06 5.36713
1.53000E+06 5.35061
1.60000E+06 5.28680
1.80000E+06 5.04779
1.86755E+06 4.94826
1.86756E+06 4.94825
1.90000E+06 4.90045
2.00000E+06 4.79758
2.07300E+06 4.72248
2.08936E+06 4.70928
2.08936E+06 4.70928
2.20595E+06 4.61521
2.20595E+06 4.61522
2.28600E+06 4.55063
2.30000E+06 4.54421
2.36540E+06 4.48832
2.40000E+06 4.45875
2.42463E+06 4.44020
2.42463E+06 4.44020
2.50000E+06 4.38345
2.50055E+06 4.38304
2.50055E+06 4.38304
2.60000E+06 4.30815
2.88937E+06 4.11991
2.90000E+06 4.11300
2.99249E+06 4.05284
3.00000E+06 4.04795
3.20000E+06 3.94575
3.40000E+06 3.86967
3.60000E+06 3.77856
3.80000E+06 3.70973
4.00000E+06 3.66867
4.20000E+06 3.64840
4.40000E+06 3.64518
4.50000E+06 3.65033
4.60000E+06 3.65548
4.80000E+06 3.67623
5.00000E+06 3.70762
5.20000E+06 3.72476
5.40000E+06 3.77740
5.50000E+06 3.80373
5.60000E+06 3.83005
5.80000E+06 3.86257
6.00000E+06 3.90728
6.80000E+06 4.08614
7.00000E+06 4.12069
7.25274E+06 4.16436
7.27000E+06 4.16734
7.57423E+06 4.20660
8.00000E+06 4.26155
8.60000E+06 4.30802
8.72977E+06 4.31083
8.72977E+06 4.31083
8.94309E+06 4.31546
9.00000E+06 4.31669
9.50000E+06 4.31085
1.00000E+07 4.28821
1.02000E+07 4.27915
1.10000E+07 4.22676
1.16000E+07 4.17287
1.20000E+07 4.13694
1.24000E+07 4.10101
1.30000E+07 4.04706
1.35000E+07 3.99593
1.40000E+07 3.94446
1.42275E+07 3.92083
1.45000E+07 3.89252
1.50000E+07 3.83961
1.60000E+07 3.72494
1.60027E+07 3.72462
1.60027E+07 3.72462
1.70000E+07 3.60800
1.80000E+07 3.49693
1.90000E+07 3.40256
2.00000E+07 3.30845