Nb-93(n,tot) ENDF/B-VII.1
Energy(eV) XS(b)
1.00000E-05 63.9682
1.25350E-05 57.8134
1.50700E-05 53.2859
2.00000E-05 47.0925
2.27100E-05 44.5845
2.78700E-05 40.8641
3.42100E-05 37.5023
4.20000E-05 34.4654
5.00000E-05 32.1184
5.15500E-05 31.7281
5.74150E-05 30.3971
6.32800E-05 29.2557
7.76800E-05 27.0240
9.53600E-05 25.0095
0.000100000 24.5716
0.000117100 23.1889
0.000143700 21.5509
0.000176400 20.0700
0.000200000 19.2353
0.000216500 18.7347
0.000265800 17.5276
0.000326200 16.4402
0.000400500 15.4565
0.000491600 14.5699
0.000500000 14.5006
0.000525850 14.2978
0.000551700 14.1095
0.000603400 13.7697
0.000740700 13.0473
0.000909300 12.3950
0.00100000 12.1145
0.00111600 11.8069
0.00137000 11.2756
0.00168200 10.7958
0.00200000 10.4275
0.00206400 10.3638
0.00229900 10.1534
0.00253400 9.97300
0.00311100 9.62032
0.00381900 9.30218
0.00468700 9.01538
0.00500000 8.93078
0.00575400 8.75614
0.00706300 8.52233
0.00867000 8.31128
0.0100000 8.17668
0.0106400 8.12111
0.0130600 7.94923
0.0160400 7.79366
0.0196900 7.65372
0.0200000 7.64363
0.0210400 7.61141
0.0220800 7.58150
0.0241600 7.52758
0.0253000 7.49370
0.0296600 7.37874
0.0364100 7.24534
0.0447000 7.12554
0.0500000 7.06632
0.0548700 7.01804
0.0673500 6.92172
0.0826700 6.83514
0.100000 6.76296
0.101500 6.75742
0.107275 6.73830
0.113050 6.72038
0.124600 6.68762
0.152900 6.62500
0.187700 6.56860
0.200000 6.55266
0.230400 6.51792
0.282900 6.47226
0.347200 6.43122
0.426200 6.39417
0.500000 6.36799
0.523200 6.36071
0.582700 6.34463
0.642200 6.33042
0.788300 6.30295
0.967700 6.27790
1.00000 6.27417
1.09400 6.26408
1.18800 6.25497
1.45800 6.23387
1.79000 6.21426
2.00000 6.20426
2.19700 6.19589
2.69700 6.17844
3.31100 6.16164
4.06400 6.14521
4.98900 6.12881
5.00000 6.12864
5.03513 6.12808
5.07025 6.12753
5.14050 6.12643
5.28100 6.12427
5.56200 6.12008
6.12400 6.11217
7.51700 6.09495
9.22800 6.07679
10.0000 6.06937
11.3300 6.05735
13.9000 6.03638
17.0700 6.01337
20.0000 5.99415
20.9500 5.98827
23.3350 5.97424
25.7200 5.96127
28.6450 5.94742
31.5700 5.93985
32.6264 5.94326
33.1546 5.94915
33.6828 5.96179
34.2109 5.99076
34.4750 6.01981
34.7391 6.07162
35.0032 6.17621
35.1353 6.27310
35.2673 6.43514
35.3994 6.73522
35.4654 6.99038
35.5314 7.38118
35.5974 8.01852
35.6635 9.14276
35.7295 11.3186
35.7625 13.1648
35.7955 15.8219
35.8478 21.7772
35.9000 25.7556
35.9523 21.7938
36.0046 15.8406
36.0475 12.5582
36.0904 10.5180
36.1333 9.23806
36.1762 8.40528
36.2620 7.44401
36.3478 6.94052
36.4336 6.64717
36.5194 6.46229
36.6910 6.25182
36.8625 6.14131
37.0341 6.07621
37.3773 6.00646
37.7205 5.97178
38.0637 5.95211
38.7500 5.93256
39.6098 5.92620
40.0396 5.92961
40.4695 5.94059
40.8994 5.96821
41.1143 5.99629
41.3293 6.04608
41.5442 6.14465
41.6517 6.23381
41.7591 6.37891
41.8666 6.63662
41.9741 7.15418
42.0278 7.62690
42.0815 8.39283
42.1353 9.70345
42.1890 12.0024
42.2445 15.6777
42.3000 18.1325
42.3556 15.6864
42.4111 12.0116
42.4514 10.1737
42.4917 8.96596
42.5320 8.17068
42.5723 7.63341
42.6529 6.98901
42.7335 6.63861
42.8142 6.42942
42.8948 6.29526
43.0560 6.13990
43.2172 6.05687
43.3784 6.00729
43.7008 5.95318
44.0233 5.92544
44.3457 5.90898
44.9906 5.89045
45.6354 5.87998
46.2803 5.87287
47.5700 5.86289
50.0000 5.84949
58.3900 5.81431
71.6800 5.76601
79.8350 5.73801
83.9125 5.72454
87.9900 5.71316
89.5450 5.71151
90.3224 5.71270
91.0999 5.71725
91.8774 5.73017
92.2661 5.74430
92.6549 5.77076
93.0436 5.82697
93.2380 5.88137
93.4323 5.97641
93.6267 6.16411
93.7239 6.33478
93.8211 6.61511
93.9183 7.12099
93.9669 7.54005
94.0154 8.16541
94.0640 9.14931
94.1126 10.7984
94.1612 13.7581
94.2098 19.2807
94.2549 27.4395
94.3000 32.8812
94.3452 27.4399
94.3903 19.2779
94.4341 14.1623
94.4780 11.2499
94.5218 9.54920
94.5656 8.50015
94.6094 7.81683
94.6533 7.35068
94.7409 6.77727
94.8286 6.45336
94.9162 6.25346
95.0915 6.03033
95.2668 5.91526
95.4421 5.84819
95.7927 5.77677
96.1433 5.74111
96.4939 5.72040
97.1952 5.69766
97.8964 5.68516
98.5976 5.67681
100.000 5.66520
101.429 5.65687
102.144 5.65427
102.858 5.65421
103.573 5.66122
103.930 5.67179
104.287 5.69457
104.644 5.74842
104.823 5.80390
105.002 5.90484
105.180 6.11209
105.270 6.30525
105.359 6.62800
105.448 7.21992
105.493 7.71629
105.537 8.46069
105.582 9.64241
105.627 11.6305
105.671 15.2258
105.716 21.9585
105.758 32.2082
105.800 39.4056
105.842 33.0320
105.884 22.9860
105.917 17.5523
105.950 14.0844
105.983 11.8588
106.016 10.3868
106.082 8.64790
106.149 7.71470
106.215 7.15981
106.281 6.80488
106.413 6.39252
106.545 6.17023
106.678 6.03631
106.942 5.88824
107.207 5.81124
107.471 5.76525
108.000 5.71371
108.696 5.67893
109.392 5.65829
110.784 5.63189
112.176 5.61218
113.568 5.59454
114.264 5.58654
114.960 5.58012
115.656 5.57795
116.352 5.58776
116.700 5.60362
117.048 5.63561
117.396 5.70028
117.744 5.83857
117.918 5.96612
118.092 6.17145
118.266 6.52258
118.440 7.17681
118.527 7.72891
118.614 8.56304
118.701 9.89560
118.788 12.1902
118.875 16.5814
118.919 20.4165
118.962 26.4232
119.006 36.4845
119.049 54.8552
119.071 70.0419
119.093 92.1182
119.114 125.212
119.136 174.298
119.152 223.019
119.168 279.177
119.200 352.488
119.232 288.162
119.264 185.564
119.290 128.061
119.316 91.8782
119.342 68.7901
119.368 53.6584
119.420 35.9270
119.472 26.4891
119.525 20.9132
119.577 17.3531
119.681 13.2315
119.785 11.0192
119.889 9.68936
119.993 8.82387
120.098 8.22709
120.306 7.47318
120.514 7.02886
120.723 6.74222
120.931 6.54497
121.348 6.29514
121.765 6.14630
122.181 6.04879
122.598 5.98049
123.432 5.89165
124.265 5.83655
125.099 5.79894
125.932 5.77145
127.599 5.73337
129.266 5.70750
132.600 5.67253
136.363 5.64495
140.125 5.62265
147.650 5.58337
155.175 5.54357
162.700 5.49665
170.254 5.43265
174.031 5.38818
177.808 5.32837
179.697 5.28949
181.585 5.24181
183.474 5.18213
185.362 5.10669
186.306 5.06253
187.251 5.01575
188.195 4.97280
189.139 4.95620
189.611 4.97851
190.083 5.05131
190.555 5.23354
191.028 5.67557
191.264 6.10993
191.500 6.83529
191.736 8.11604
191.972 10.5700
192.090 12.6817
192.208 15.9103
192.326 21.1331
192.444 30.2430
192.503 37.5157
192.562 47.9440
192.621 63.5702
192.680 88.2803
192.739 130.161
192.769 162.594
192.798 207.834
192.828 272.815
192.857 368.992
192.887 514.882
192.916 736.497
192.958 1201.14
193.000 1532.34
193.042 1251.80
193.084 799.811
193.110 595.792
193.137 452.574
193.189 280.485
193.242 189.709
193.294 137.404
193.346 104.725
193.399 83.0645
193.504 57.0846
193.609 42.6394
193.714 33.7705
193.924 23.8168
194.133 18.5930
194.343 15.4813
194.553 13.4602
194.763 12.0633
195.183 10.2878
195.603 9.22832
196.022 8.53501
196.442 8.05106
197.282 7.42654
198.121 7.04534
198.961 6.79051
199.800 6.60897
200.000 6.57321
200.686 6.46696
201.371 6.38060
202.742 6.24885
205.485 6.08022
208.227 5.97648
210.969 5.90571
216.454 5.81402
221.938 5.75581
227.423 5.71476
232.907 5.68520
235.649 5.67565
237.020 5.67358
238.392 5.67550
239.763 5.68698
240.448 5.70136
241.134 5.72970
241.477 5.75425
241.819 5.79198
242.162 5.85353
242.505 5.96284
242.848 6.18375
243.019 6.38935
243.191 6.73550
243.362 7.38377
243.448 7.94194
243.533 8.80817
243.619 10.2475
243.705 12.8595
243.748 15.0104
243.790 18.1431
243.833 22.8195
243.876 29.7964
243.938 44.3593
244.000 54.0961
244.062 44.3688
244.124 29.8081
244.191 19.9228
244.259 14.6623
244.326 11.7374
244.393 9.99906
244.460 8.89402
244.528 8.15526
244.662 7.26310
244.797 6.76853
244.931 6.46707
245.200 6.13449
245.418 5.98990
245.636 5.89838
246.072 5.79313
246.508 5.73681
246.944 5.70287
247.816 5.66492
248.688 5.64446
249.559 5.63147
250.431 5.62222
252.175 5.60915
253.919 5.59951
255.663 5.59146
259.150 5.57761
266.125 5.55342
273.100 5.53071
287.050 5.48453
294.025 5.45927
301.000 5.43121
305.472 5.41122
309.945 5.39004
312.181 5.38041
313.299 5.37706
314.417 5.37657
315.535 5.38368
316.094 5.39445
316.653 5.41702
317.212 5.46848
317.492 5.52001
317.771 5.61195
318.051 5.79746
318.190 5.96931
318.330 6.25637
318.470 6.78790
318.540 7.23961
318.610 7.92986
318.679 9.05581
318.749 11.0402
318.819 14.8761
318.854 18.1217
318.889 22.7870
318.945 33.2943
319.000 40.3117
319.056 33.2985
319.111 22.7915
319.175 15.3629
319.238 11.5386
319.302 9.46983
319.366 8.26002
319.430 7.50159
319.493 6.99828
319.621 6.39652
319.748 6.06514
319.875 5.86411
320.130 5.64256
320.385 5.52917
320.639 5.46289
321.149 5.39098
321.658 5.35313
322.168 5.32924
323.186 5.29826
324.205 5.27562
325.224 5.25531
327.262 5.21328
328.281 5.18933
329.300 5.16239
330.318 5.13218
331.337 5.10057
331.847 5.08691
332.356 5.07939
332.866 5.08817
333.375 5.14101
333.630 5.20632
333.884 5.32713
334.139 5.55735
334.394 6.02581
334.521 6.44320
334.649 7.09576
334.776 8.17473
334.903 10.0939
335.031 13.8995
335.094 17.3141
335.158 22.7705
335.222 32.1650
335.285 49.9101
335.317 65.0294
335.349 87.6636
335.381 122.576
335.413 176.620
335.435 227.899
335.456 287.366
335.500 367.833
335.544 303.273
335.587 196.504
335.614 148.807
335.641 114.946
335.694 73.7634
335.748 51.6971
335.801 38.8175
335.855 30.7190
335.908 25.3121
336.015 18.7682
336.122 15.0958
336.228 12.8232
336.442 10.2481
336.656 8.88035
336.869 8.05722
337.083 7.51726
337.297 7.14045
337.724 6.65576
338.151 6.36169
338.578 6.16623
339.006 6.02761
339.860 5.84446
340.715 5.72866
341.569 5.64814
342.424 5.58816
344.133 5.50255
345.842 5.44143
349.260 5.35060
352.678 5.27436
356.096 5.19756
359.514 5.11123
361.223 5.06720
361.651 5.06097
362.078 5.06744
362.292 5.08710
362.398 5.10867
362.505 5.14788
362.612 5.22576
362.665 5.29536
362.719 5.40639
362.772 5.59708
362.826 5.95894
362.852 6.26965
362.879 6.74216
362.906 7.48470
362.932 8.65889
362.966 10.8535
363.000 12.3164
363.034 10.8520
363.068 8.65542
363.097 7.39762
363.126 6.63597
363.155 6.16660
363.184 5.86515
363.242 5.52108
363.300 5.34299
363.358 5.23946
363.416 5.17432
363.532 5.09986
363.764 5.03815
363.996 5.01967
364.228 5.03133
364.345 5.05606
364.461 5.10799
364.577 5.22048
364.635 5.32570
364.693 5.49782
364.751 5.80103
364.809 6.38733
364.838 6.89675
364.867 7.67673
364.896 8.90945
364.925 10.8709
364.962 14.7122
365.000 17.5112
365.038 15.2739
365.075 11.5747
365.110 9.27928
365.145 7.90606
365.179 7.07079
365.214 6.53932
365.283 5.93243
365.352 5.61581
365.421 5.42914
365.490 5.30944
365.628 5.16793
365.767 5.08830
365.905 5.03727
366.182 4.97410
366.735 4.90394
367.288 4.85658
369.500 4.69822
370.596 4.61562
371.691 4.52932
372.787 4.44930
373.882 4.41268
374.430 4.44506
374.978 4.56107
375.525 4.85775
376.073 5.58001
376.347 6.28737
376.621 7.46161
376.895 9.51482
377.169 13.3883
377.306 16.6671
377.442 21.5995
377.579 29.4092
377.716 42.5954
377.785 52.7840
377.853 66.9894
377.922 87.4748
377.990 118.190
378.059 166.705
378.127 247.657
378.196 391.648
378.264 655.599
378.332 1079.61
378.400 1389.95
378.468 1144.16
378.536 736.204
378.591 509.047
378.645 364.297
378.700 271.217
378.754 209.556
378.863 136.613
378.972 97.2747
379.082 73.7665
379.191 58.6009
379.409 40.8160
379.627 31.0998
379.845 25.1682
380.063 21.2527
380.281 18.5159
380.718 15.0005
381.154 12.8832
381.591 11.4903
382.027 10.5149
382.900 9.25379
383.772 8.48372
384.645 7.96980
385.518 7.60498
387.263 7.12706
389.008 6.84089
389.881 6.75238
390.754 6.72435
391.190 6.77100
391.408 6.83595
391.627 6.96404
391.845 7.23532
391.954 7.48938
392.063 7.91189
392.172 8.68195
392.227 9.32365
392.281 10.2821
392.336 11.7964
392.390 14.3353
392.445 18.9000
392.499 27.4324
392.550 40.0245
392.600 48.3935
392.651 39.9953
392.701 27.4029
392.761 18.3243
392.820 13.7243
392.880 11.2639
392.939 9.83719
392.998 8.94479
393.058 8.35394
393.177 7.64784
393.296 7.25769
393.415 7.01923
393.653 6.75173
393.891 6.60965
394.128 6.52235
394.604 6.41900
395.080 6.35663
395.556 6.31205
396.507 6.24712
398.410 6.15700
400.313 6.09030
404.120 5.99170
407.926 5.92008
415.538 5.82024
423.151 5.75152
430.763 5.69870
438.375 5.65347
445.988 5.60785
449.794 5.58000
451.697 5.56262
453.600 5.54091
454.427 5.52948
455.254 5.51649
456.081 5.50192
456.908 5.48685
457.321 5.48056
457.735 5.47756
458.148 5.48309
458.562 5.51133
458.769 5.54531
458.975 5.60736
459.182 5.72430
459.389 5.95937
459.595 6.48820
459.699 7.01316
459.802 7.93151
459.906 9.70846
459.957 11.2627
460.009 13.6814
460.061 17.6962
460.112 24.8757
460.164 38.9043
460.190 50.8317
460.216 68.0474
460.237 86.9627
460.258 108.956
460.300 138.982
460.342 115.717
460.385 76.5492
460.424 52.0297
460.463 37.3949
460.502 28.5133
460.541 22.8714
460.620 16.4536
460.698 13.1143
460.776 11.1584
460.855 9.91482
461.011 8.47100
461.168 7.68779
461.325 7.21096
461.481 6.89583
461.638 6.67519
461.951 6.39061
462.264 6.21791
462.578 6.10339
462.891 6.02252
463.518 5.91659
464.144 5.85068
464.771 5.80579
465.397 5.77323
466.650 5.72888
467.904 5.69974
470.410 5.66276
472.916 5.63922
475.422 5.62215
480.435 5.59764
485.448 5.58013
487.954 5.57336
490.460 5.56831
492.967 5.56656
494.220 5.56846
495.473 5.57477
496.099 5.58123
496.726 5.59194
497.353 5.61046
497.979 5.64504
498.292 5.67431
498.606 5.71876
498.919 5.79067
499.232 5.91763
499.389 6.02094
499.546 6.17302
499.702 6.41015
499.859 6.80841
500.016 7.55315
500.094 8.19273
500.172 9.18324
500.251 10.8244
500.329 13.7900
500.368 16.2219
500.407 19.7488
500.446 25.0028
500.485 32.7777
500.543 49.1214
500.600 60.0176
500.657 49.0966
500.715 32.7610
500.770 22.6344
500.824 16.8191
500.879 13.3999
500.934 11.2832
500.989 9.89687
501.043 8.94860
501.153 7.78029
501.263 7.11824
501.372 6.70947
501.591 6.25268
501.810 6.01731
502.029 5.88044
502.248 5.79386
502.467 5.73562
502.906 5.66435
503.344 5.62387
503.782 5.59852
504.220 5.58145
505.097 5.56024
505.973 5.54766
507.725 5.53308
509.478 5.52426
511.231 5.51778
514.736 5.50774
521.747 5.49176
528.757 5.47761
542.779 5.45118
556.800 5.42555
577.964 5.38623
583.254 5.37613
588.545 5.36622
591.191 5.36175
593.836 5.35878
595.159 5.35919
596.482 5.36454
597.143 5.37353
597.804 5.39934
598.135 5.43384
598.300 5.46689
598.466 5.52435
598.631 5.63778
598.714 5.74116
598.796 5.91136
598.879 6.22087
598.920 6.47885
598.962 6.86667
599.003 7.48500
599.044 8.53499
599.086 10.4609
599.127 14.1606
599.164 19.4489
599.200 22.9601
599.237 19.4350
599.273 14.1506
599.310 10.7863
599.346 8.89426
599.382 7.80011
599.419 7.12984
599.455 6.69567
599.491 6.40063
599.564 6.03939
599.636 5.83641
599.709 5.71170
599.854 5.57352
599.999 5.50311
600.144 5.46287
600.435 5.42208
600.725 5.40448
601.015 5.39751
601.596 5.40190
602.177 5.43252
602.467 5.46692
602.757 5.53044
602.903 5.58338
603.048 5.66264
603.193 5.78846
603.338 6.00474
603.483 6.42312
603.556 6.79552
603.628 7.39276
603.701 8.43697
603.774 10.4832
603.810 12.3051
603.846 15.1819
603.883 19.9344
603.919 27.8870
603.959 41.4457
604.000 50.4593
604.041 41.4134
604.081 27.8908
604.108 21.7276
604.134 17.4833
604.186 12.5417
604.239 10.0134
604.291 8.58892
604.344 7.71853
604.396 7.15154
604.501 6.48572
604.607 6.12588
604.712 5.91054
604.922 5.67666
605.132 5.55903
605.342 5.49159
605.762 5.42080
606.182 5.38592
606.602 5.36583
607.442 5.34393
608.282 5.33195
609.123 5.32387
610.803 5.31204
612.483 5.30160
614.164 5.29011
615.004 5.28390
615.844 5.28065
616.264 5.28668
616.474 5.29715
616.684 5.32115
616.894 5.38030
616.999 5.44213
617.104 5.55435
617.209 5.77984
617.262 5.98334
617.314 6.30955
617.367 6.86924
617.419 7.91812
617.446 8.80286
617.472 10.1116
617.498 12.1096
617.524 15.1410
617.562 21.6727
617.600 26.5535
617.638 22.9235
617.676 16.7119
617.721 11.9949
617.766 9.55609
617.812 8.22545
617.857 7.43823
617.902 6.93795
617.947 6.60099
618.038 6.18893
618.128 5.95475
618.219 5.80832
618.399 5.64018
618.580 5.54934
618.761 5.49381
619.123 5.43064
619.846 5.37469
620.569 5.34903
622.016 5.32346
623.463 5.30910
626.356 5.28957
629.249 5.27275
632.142 5.25416
633.589 5.24287
635.036 5.22905
636.482 5.21116
637.206 5.20008
637.929 5.18773
638.652 5.17680
639.014 5.17584
639.376 5.18621
639.557 5.20173
639.737 5.23223
639.918 5.29243
640.099 5.41729
640.280 5.70412
640.370 5.99133
640.461 6.49605
640.551 7.47167
640.596 8.32223
640.641 9.64234
640.687 11.8122
640.732 15.6400
640.777 22.9593
640.822 37.7421
640.861 59.3744
640.900 75.5168
640.939 63.5866
640.978 43.0359
641.008 31.7999
641.039 24.4669
641.069 19.6724
641.099 16.4434
641.159 12.5674
641.220 10.4449
641.280 9.15839
641.340 8.32050
641.461 7.32744
641.582 6.77780
641.703 6.43898
641.823 6.21322
641.944 6.05403
642.186 5.84740
642.427 5.72124
642.669 5.63723
642.910 5.57773
643.393 5.49954
643.876 5.45072
644.842 5.39311
645.808 5.35991
646.774 5.33792
648.705 5.30960
650.637 5.29108
652.569 5.27720
656.432 5.25629
660.296 5.24080
662.228 5.23526
664.160 5.23255
666.091 5.23654
667.057 5.24465
668.023 5.26275
668.506 5.27931
668.989 5.30551
669.472 5.34938
669.955 5.42933
670.196 5.49598
670.438 5.59616
670.679 5.75626
670.921 6.03453
671.162 6.58222
671.283 7.07875
671.404 7.89263
671.525 9.35902
671.585 10.5715
671.645 12.3738
671.706 15.2062
671.766 19.9268
671.826 28.3662
671.887 43.9721
671.943 67.2474
672.000 82.7667
672.057 67.2544
672.113 43.9809
672.161 30.8728
672.209 22.8338
672.257 17.8476
672.305 14.6310
672.400 10.9522
672.496 9.04190
672.591 7.93574
672.687 7.24161
672.878 6.45527
673.069 6.04479
673.261 5.80422
673.452 5.65135
673.643 5.54826
674.025 5.42213
674.408 5.35108
674.790 5.30755
675.172 5.27967
675.937 5.25193
676.319 5.24972
676.702 5.25846
677.084 5.28952
677.275 5.32396
677.466 5.38756
677.658 5.51896
677.753 5.64234
677.849 5.85088
677.944 6.24249
677.992 6.58016
678.040 7.10463
678.088 7.97682
678.136 9.56100
678.160 10.8646
678.183 12.7684
678.207 15.6127
678.231 19.8359
678.266 28.6317
678.300 34.4678
678.335 28.6057
678.369 19.8156
678.409 13.5393
678.449 10.3323
678.489 8.60717
678.529 7.60221
678.570 6.97393
678.610 6.55782
678.690 6.06150
678.770 5.78862
678.850 5.62326
679.010 5.44162
679.171 5.34896
679.331 5.29515
679.652 5.23753
679.973 5.20820
680.293 5.19065
680.935 5.17032
682.217 5.14960
683.500 5.13671
685.861 5.11835
688.221 5.10192
692.942 5.06901
697.663 5.03300
702.384 4.99187
707.105 4.94408
709.465 4.91764
711.825 4.89046
714.186 4.86628
715.366 4.85921
716.546 4.86224
717.727 4.89247
718.317 4.93337
718.907 5.01647
719.202 5.08944
719.497 5.20208
719.792 5.38599
720.087 5.71100
720.382 6.35925
720.530 6.95211
720.677 7.93041
720.825 9.70739
720.899 11.1879
720.972 13.4056
721.046 16.9237
721.120 22.8690
721.194 33.7030
721.267 54.2642
721.334 84.0439
721.400 103.860
721.467 84.0022
721.533 54.2326
721.611 32.9608
721.688 22.1123
721.765 16.2705
721.843 12.8724
721.920 10.7452
721.997 9.33812
722.152 7.65723
722.307 6.73300
722.461 6.17217
722.771 5.55400
723.080 5.23633
723.389 5.04946
724.008 4.84346
724.627 4.73118
725.245 4.65685
726.482 4.55228
727.720 4.46702
728.957 4.38362
731.432 4.19502
732.669 4.08133
733.906 3.95083
735.144 3.80482
736.381 3.66077
737.000 3.61035
737.618 3.60821
738.237 3.72469
738.856 4.14499
739.165 4.61383
739.474 5.44082
739.784 6.95364
740.093 9.90515
740.248 12.4459
740.402 16.3038
740.557 22.4400
740.712 32.8084
740.866 51.8730
740.944 67.7085
741.021 91.1957
741.098 127.622
741.176 186.796
741.253 287.821
741.330 464.049
741.415 771.866
741.500 1004.20
741.585 836.783
741.670 545.400
741.731 395.933
741.792 294.713
741.852 226.365
741.913 179.211
742.034 121.026
742.155 88.2907
742.276 68.1396
742.397 54.8736
742.639 38.9650
742.882 30.0754
743.124 24.5594
743.366 20.8685
743.608 18.2605
744.093 14.8686
744.577 12.7953
745.062 11.4155
745.546 10.4395
746.515 9.16277
747.484 8.37251
748.453 7.83913
749.422 7.45667
751.360 6.94785
753.298 6.63055
754.267 6.51935
755.236 6.44507
755.721 6.43694
755.963 6.45102
756.205 6.49171
756.448 6.59132
756.569 6.68886
756.690 6.85312
756.811 7.15127
756.932 7.75738
756.993 8.31369
757.053 9.21414
757.114 10.7556
757.174 13.4473
757.237 17.7773
757.300 20.6562
757.363 17.7624
757.426 13.4252
757.466 11.4852
757.506 10.1403
757.585 8.55125
757.665 7.72767
757.745 7.25885
757.824 6.96870
757.904 6.77753
758.063 6.54798
758.223 6.41901
758.382 6.33778
758.701 6.24088
759.019 6.18320
759.338 6.14286
759.975 6.08540
761.250 6.00619
762.524 5.94570
765.074 5.85053
767.623 5.77591
772.721 5.66327
777.820 5.58034
788.016 5.46156
798.213 5.37498
818.607 5.23989
839.000 5.11604
857.350 4.99095
875.699 4.82789
884.874 4.71799
894.049 4.57283
903.223 4.36220
905.517 4.29125
907.811 4.20776
908.958 4.15989
910.105 4.10967
910.678 4.08997
910.965 4.08746
911.251 4.09956
911.538 4.15164
911.681 4.21551
911.825 4.33960
911.968 4.60150
912.040 4.84417
912.111 5.23880
912.183 5.92682
912.255 7.23568
912.291 8.35159
912.327 10.0187
912.362 12.5779
912.398 16.5161
912.449 24.9797
912.500 31.4318
912.551 26.9450
912.602 18.9779
912.645 14.2954
912.688 11.3411
912.731 9.45595
912.774 8.21416
912.860 6.74835
912.945 5.95602
913.031 5.47928
913.117 5.16868
913.288 4.79770
913.459 4.58865
913.631 4.45605
913.974 4.29713
914.316 4.20294
914.659 4.13787
915.345 4.04663
916.716 3.91801
918.087 3.80655
920.829 3.57240
923.572 3.28981
924.943 3.12439
926.314 2.94567
927.685 2.77044
929.056 2.66135
929.742 2.69001
930.427 2.85866
931.113 3.33024
931.799 4.50977
932.141 5.66733
932.484 7.57626
932.827 10.8668
933.170 16.9208
933.341 21.9051
933.512 29.2050
933.684 40.3307
933.855 58.1645
934.027 88.6642
934.198 145.357
934.284 192.588
934.369 261.989
934.455 366.113
934.541 522.103
934.671 874.243
934.800 1143.50
934.930 957.516
935.060 626.406
935.198 392.440
935.337 261.941
935.475 186.747
935.614 140.547
935.752 110.387
935.890 89.6669
936.167 63.8081
936.444 48.8232
936.721 39.3146
937.274 28.2545
937.828 22.2100
938.382 18.4893
938.935 16.0042
939.489 14.2435
940.596 11.9385
941.704 10.5124
942.811 9.55083
943.918 8.86222
946.133 7.94885
948.347 7.38932
949.454 7.20808
950.008 7.15003
950.562 7.13080
951.115 7.19403
951.392 7.29513
951.669 7.50178
951.946 7.94813
952.084 8.37026
952.223 9.07750
952.361 10.3746
952.430 11.4609
952.499 13.0955
952.569 15.6924
952.638 20.0997
952.707 28.1457
952.776 43.4958
952.838 65.6108
952.900 80.3517
952.962 65.5654
953.024 43.4464
953.070 32.2071
953.116 24.8823
953.162 20.0958
953.208 16.8856
953.300 13.0477
953.391 10.9726
953.483 9.73461
953.575 8.94135
953.758 8.01886
953.942 7.52091
954.125 7.21867
954.492 6.87768
954.859 6.69099
955.226 6.57072
955.960 6.41625
956.694 6.31191
957.428 6.23011
958.896 6.09930
961.832 5.89800
964.768 5.73650
970.640 5.47266
976.512 5.24618
982.384 5.03129
988.256 4.82032
991.192 4.72565
994.128 4.66350
997.064 4.70375
998.532 4.82250
1000.00 5.09098
1001.04 5.45112
1002.07 6.07474
1003.11 7.19276
1004.15 9.32168
1005.18 13.7931
1005.70 17.9456
1006.22 24.7495
1006.74 36.7115
1007.00 46.2348
1007.25 59.8013
1007.51 79.7432
1007.77 110.039
1008.03 157.394
1008.29 231.827
1008.65 387.595
1009.00 507.847
1009.36 425.901
1009.71 279.639
1010.10 175.274
1010.48 117.758
1010.86 84.7690
1011.25 64.6518
1011.63 51.5299
1012.02 42.5657
1012.79 31.4338
1013.55 25.0955
1014.32 21.4003
1014.71 20.4262
1015.09 20.5264
1015.28 21.5756
1015.48 24.5859
1015.57 27.8963
1015.67 34.0900
1015.76 46.7980
1015.81 58.0885
1015.86 74.9099
1015.93 110.162
1016.00 133.587
1016.07 109.879
1016.14 74.3351
1016.20 55.3345
1016.25 43.4109
1016.30 35.7040
1016.36 30.5562
1016.47 24.3785
1016.57 21.0348
1016.79 17.6224
1017.01 15.9377
1017.44 14.1994
1017.87 13.2222
1018.74 11.9977
1019.61 11.1713
1021.34 10.0413
1023.07 9.28170
1026.54 8.31263
1030.00 7.71920
1034.87 7.18953
1039.74 6.84361
1044.60 6.59731
1049.47 6.41068
1059.20 6.13967
1068.94 5.94290
1078.67 5.78308
1088.41 5.64022
1093.27 5.57110
1098.14 5.50324
1100.57 5.47205
1101.79 5.45914
1103.01 5.45108
1104.22 5.45555
1104.83 5.46951
1105.44 5.50252
1106.05 5.58205
1106.35 5.66309
1106.66 5.80853
1106.96 6.10239
1107.11 6.37392
1107.27 6.82606
1107.42 7.65691
1107.49 8.35752
1107.57 9.42136
1107.65 11.1351
1107.72 14.1053
1107.80 19.7023
1107.87 30.8558
1107.94 46.2610
1108.00 56.3038
1108.06 46.0078
1108.13 30.8583
1108.20 19.9067
1108.27 14.3665
1108.35 11.3654
1108.42 9.60834
1108.49 8.49364
1108.57 7.76513
1108.71 6.89199
1108.86 6.40801
1109.01 6.11597
1109.30 5.79221
1109.59 5.62567
1109.89 5.52760
1110.47 5.41956
1111.06 5.36105
1111.64 5.32288
1112.82 5.27124
1113.99 5.23224
1115.16 5.19731
1117.50 5.12823
1119.85 5.05108
1121.02 5.00657
1122.19 4.95631
1123.36 4.89966
1123.95 4.87070
1124.53 4.84702
1125.12 4.84831
1125.41 4.87924
1125.71 4.96716
1126.00 5.20520
1126.15 5.46339
1126.29 5.93321
1126.44 6.88157
1126.51 7.72259
1126.58 9.04727
1126.66 11.2571
1126.73 15.2171
1126.80 22.9231
1126.84 29.5518
1126.88 38.8106
1126.91 49.4774
1126.94 62.0879
1127.00 80.1014
1127.06 68.1463
1127.12 46.3889
1127.17 35.7849
1127.21 28.4987
1127.29 19.6507
1127.37 14.9777
1127.45 12.2653
1127.53 10.5596
1127.61 9.41697
1127.77 8.02224
1127.93 7.22773
1128.10 6.72646
1128.42 6.14214
1128.74 5.81791
1129.07 5.61305
1129.72 5.36711
1130.36 5.21965
1131.01 5.11662
1132.31 4.96868
1134.90 4.74491
1137.49 4.51882
1140.08 4.23300
1141.37 4.04922
1142.67 3.82792
1143.31 3.70402
1143.96 3.57902
1144.61 3.47477
1145.26 3.46124
1145.58 3.54875
1145.90 3.78232
1146.23 4.31651
1146.55 5.51762
1146.71 6.63906
1146.87 8.42805
1147.04 11.4100
1147.20 16.6965
1147.28 20.9140
1147.36 26.9283
1147.44 35.8018
1147.52 49.4504
1147.60 71.5424
1147.68 109.554
1147.77 179.427
1147.81 234.754
1147.85 310.754
1147.92 524.045
1148.00 687.183
1148.08 576.869
1148.16 380.244
1148.21 282.882
1148.26 215.076
1148.31 168.135
1148.36 135.033
1148.47 93.3200
1148.57 69.3090
1148.68 54.2944
1148.78 44.2762
1148.99 32.1428
1149.19 25.2245
1149.40 20.8995
1149.82 15.8812
1150.23 13.1369
1150.65 11.4375
1151.06 10.2930
1151.48 9.47413
1152.31 8.38405
1153.14 7.69334
1154.80 6.85838
1156.46 6.35621
1158.12 6.00385
1161.44 5.48813
1163.10 5.26707
1164.76 5.05067
1166.42 4.83237
1168.08 4.62143
1168.91 4.53458
1169.74 4.48808
1170.57 4.54040
1171.40 4.84617
1171.82 5.21423
1172.23 5.87887
1172.65 7.10644
1173.06 9.49840
1173.48 14.6122
1173.68 19.4367
1173.89 27.3713
1174.10 41.5209
1174.20 52.8815
1174.31 68.9877
1174.41 93.0311
1174.51 129.876
1174.62 188.044
1174.72 279.341
1174.86 469.478
1175.00 616.023
1175.14 518.363
1175.28 342.191
1175.43 218.327
1175.57 148.535
1175.72 107.520
1175.86 82.2603
1176.01 65.5346
1176.15 54.0580
1176.44 39.5851
1176.73 31.1406
1177.03 25.7490
1177.61 19.4434
1178.19 15.9617
1178.77 13.8025
1179.35 12.3501
1179.93 11.3152
1181.10 9.94301
1182.26 9.07963
1183.42 8.48403
1184.59 8.04530
1186.91 7.42345
1188.08 7.18241
1189.24 6.96332
1190.41 6.75180
1190.99 6.64700
1191.57 6.54864
1192.15 6.48507
1192.44 6.50054
1192.73 6.61173
1193.02 6.98966
1193.17 7.43682
1193.31 8.29273
1193.46 10.1102
1193.53 11.8019
1193.61 14.5216
1193.68 19.3295
1193.75 28.3423
1193.79 36.2312
1193.82 47.7374
1193.86 65.3101
1193.90 92.2032
1193.92 120.163
1193.95 152.040
1194.00 197.532
1194.05 166.734
1194.11 112.011
1194.14 85.5703
1194.17 66.8919
1194.24 44.4612
1194.31 32.5673
1194.38 25.6441
1194.45 21.2820
1194.51 18.3556
1194.65 14.7790
1194.79 12.7399
1194.92 11.4537
1195.19 9.95735
1195.47 9.13206
1195.74 8.61592
1196.01 8.26436
1196.28 8.01045
1196.82 7.66449
1197.37 7.43830
1198.46 7.15325
1199.54 6.97312
1200.63 6.84371
1202.81 6.66005
1207.16 6.42248
1211.50 6.25395
1215.85 6.10870
1218.03 6.03514
1220.20 5.95376
1222.38 5.85402
1223.47 5.79093
1224.55 5.71296
1225.10 5.66623
1225.64 5.61335
1226.19 5.55497
1226.73 5.49757
1227.00 5.47655
1227.27 5.47256
1227.55 5.50997
1227.82 5.65121
1227.95 5.80956
1228.09 6.08756
1228.22 6.59086
1228.36 7.55599
1228.50 9.58832
1228.56 11.4776
1228.63 14.5678
1228.70 19.9772
1228.77 30.3276
1228.80 39.1749
1228.84 52.4687
1228.87 72.9390
1228.90 103.381
1228.95 171.417
1229.00 222.967
1229.05 188.262
1229.10 126.261
1229.15 80.0891
1229.21 54.7786
1229.26 40.3966
1229.31 31.6387
1229.37 25.9526
1229.42 22.0586
1229.53 17.2421
1229.64 14.4206
1229.74 12.6417
1229.96 10.5516
1230.17 9.39764
1230.39 8.68631
1230.60 8.20790
1230.82 7.86670
1231.25 7.41519
1231.68 7.13321
1232.11 6.94080
1232.54 6.80132
1233.40 6.61237
1234.26 6.49023
1235.98 6.34193
1237.71 6.26029
1238.57 6.23822
1239.43 6.23281
1240.29 6.25973
1240.72 6.30002
1241.15 6.38169
1241.58 6.56085
1241.79 6.73399
1242.01 7.03293
1242.22 7.60879
1242.33 8.12019
1242.44 8.92580
1242.55 10.3241
1242.65 12.9684
1242.71 15.2787
1242.76 18.8326
1242.82 24.5024
1242.87 33.4172
1242.93 49.9061
1243.00 60.9325
1243.07 49.9096
1243.13 33.4196
1243.17 26.1791
1243.21 21.1210
1243.30 15.1170
1243.38 11.9898
1243.46 10.2234
1243.54 9.11852
1243.62 8.40196
1243.79 7.54694
1243.95 7.08069
1244.11 6.79899
1244.44 6.48939
1244.76 6.33064
1245.09 6.23728
1245.74 6.13470
1246.39 6.07965
1247.05 6.04449
1248.35 5.99947
1249.65 5.96899
1250.96 5.94503
1253.57 5.90648
1258.78 5.84624
1264.00 5.79686
1268.97 5.75602
1273.94 5.72120
1276.42 5.70820
1278.91 5.70551
1280.15 5.71754
1280.77 5.73368
1281.39 5.76616
1282.02 5.83828
1282.33 5.90984
1282.64 6.03639
1282.95 6.29180
1283.10 6.52735
1283.26 6.92076
1283.41 7.65486
1283.49 8.28110
1283.57 9.22805
1283.65 10.7937
1283.72 13.5219
1283.80 18.8818
1283.84 23.4503
1283.88 29.8416
1283.94 44.2919
1284.00 53.8980
1284.06 44.2967
1284.12 29.8472
1284.19 20.1139
1284.25 14.9114
1284.32 11.9708
1284.38 10.1981
1284.44 9.04830
1284.51 8.28738
1284.64 7.36225
1284.77 6.84239
1284.89 6.52684
1285.15 6.17568
1285.41 5.99578
1285.66 5.89123
1286.18 5.78005
1286.69 5.72410
1287.20 5.69132
1288.23 5.65443
1290.29 5.61871
1292.34 5.59728
1296.45 5.56477
1300.56 5.53617
1308.77 5.48145
1316.99 5.42656
1325.21 5.36991
1333.42 5.31189
1337.53 5.28499
1339.59 5.27434
1341.64 5.26896
1343.70 5.27744
1344.72 5.29468
1345.75 5.33318
1346.26 5.36840
1346.78 5.42385
1347.29 5.51642
1347.80 5.68367
1348.06 5.82234
1348.32 6.02949
1348.57 6.35790
1348.83 6.91975
1349.09 8.00932
1349.22 8.98445
1349.34 10.5403
1349.47 13.2849
1349.60 18.6361
1349.67 23.4050
1349.73 30.9432
1349.79 43.4183
1349.86 64.4225
1349.93 100.399
1350.00 124.011
1350.07 99.8812
1350.14 64.4447
1350.20 44.7202
1350.26 32.6769
1350.32 25.0924
1350.38 20.1405
1350.49 14.3731
1350.61 11.3768
1350.73 9.61655
1350.84 8.51836
1351.08 7.26731
1351.31 6.61884
1351.54 6.24673
1352.01 5.88479
1352.47 5.79022
1352.71 5.83065
1352.94 5.96315
1353.17 6.27888
1353.29 6.58107
1353.41 7.07515
1353.52 7.96050
1353.64 9.69836
1353.70 11.2498
1353.75 13.7007
1353.81 17.7474
1353.87 24.5311
1353.94 36.0297
1354.00 43.6712
1354.07 36.0231
1354.13 24.5143
1354.21 16.2294
1354.28 11.9997
1354.36 9.72568
1354.43 8.41435
1354.51 7.58045
1354.58 7.03360
1354.74 6.37191
1354.89 6.00350
1355.04 5.77954
1355.34 5.52846
1355.64 5.39560
1355.95 5.31545
1356.55 5.22363
1357.15 5.17151
1357.76 5.13669
1358.97 5.08958
1360.18 5.05553
1361.39 5.02691
1363.80 4.97544
1368.64 4.87091
1373.48 4.74295
1378.31 4.56494
1380.73 4.44181
1383.15 4.27934
1384.36 4.17642
1385.57 4.05368
1386.77 3.90660
1387.98 3.73451
1388.59 3.64431
1389.19 3.56387
1389.80 3.52271
1390.40 3.60577
1390.70 3.76383
1391.01 4.09066
1391.31 4.75119
1391.61 6.12759
1391.91 9.25791
1392.06 12.3123
1392.22 17.5159
1392.37 27.0844
1392.44 35.0601
1392.52 46.6411
1392.59 64.5853
1392.67 92.8112
1392.74 140.280
1392.82 219.089
1392.91 369.874
1393.00 486.762
1393.09 411.428
1393.18 273.203
1393.24 207.863
1393.30 161.106
1393.41 104.085
1393.52 73.3691
1393.64 55.4258
1393.75 43.9173
1393.86 36.1602
1394.09 26.6678
1394.32 21.2053
1394.55 17.7669
1395.00 13.7543
1395.46 11.5480
1395.91 10.1774
1396.37 9.25281
1396.82 8.59100
1397.73 7.71168
1398.64 7.15608
1399.55 6.77329
1400.46 6.49302
1402.28 6.10599
1404.10 5.84686
1407.74 5.50618
1411.38 5.27240
1415.02 5.08296
1422.30 4.73911
1425.94 4.55812
1429.58 4.35820
1433.21 4.13188
1436.85 3.88080
1438.67 3.75654
1440.49 3.65520
1442.31 3.62737
1444.13 3.81342
1445.04 4.09944
1445.95 4.66124
1446.86 5.75942
1447.77 7.98847
1448.23 9.94188
1448.68 12.9259
1449.14 17.6737
1449.59 25.6468
1450.05 40.0415
1450.27 51.7777
1450.50 68.7111
1450.73 94.2168
1450.96 133.716
1451.18 197.158
1451.41 300.009
1451.71 508.248
1452.00 673.106
1452.30 569.492
1452.59 376.465
1452.81 271.215
1453.04 201.151
1453.26 154.557
1453.48 122.725
1453.93 83.8804
1454.37 62.1755
1454.82 48.8428
1455.27 40.0438
1456.16 29.4501
1457.05 23.4709
1457.94 19.7267
1458.83 17.1960
1459.72 15.3947
1461.51 13.0366
1463.29 11.6352
1464.18 11.2012
1464.63 11.0725
1465.07 11.0479
1465.52 11.2395
1465.74 11.5129
1465.97 12.0470
1466.19 13.1470
1466.30 14.1485
1466.41 15.7390
1466.52 18.4997
1466.63 23.6783
1466.69 28.1439
1466.75 34.7645
1466.80 45.2606
1466.86 61.3674
1466.93 92.2544
1467.00 112.817
1467.07 92.2191
1467.14 61.2876
1467.21 43.7713
1467.27 33.1770
1467.33 26.4739
1467.39 22.2091
1467.51 17.2593
1467.63 14.6846
1467.75 13.1621
1467.87 12.2004
1468.11 11.0746
1468.35 10.4531
1468.59 10.0649
1469.07 9.59674
1469.56 9.31031
1470.04 9.10534
1471.00 8.80718
1471.97 8.58215
1472.93 8.39670
1474.86 8.09695
1478.72 7.66113
1482.58 7.35127
1490.30 6.93183
1498.01 6.65559
1505.73 6.45496
1513.45 6.29873
1517.31 6.23247
1521.17 6.17512
1523.10 6.15330
1525.03 6.14731
1525.99 6.16454
1526.47 6.18827
1526.96 6.23618
1527.44 6.34236
1527.68 6.44652
1527.92 6.62939
1528.16 6.99092
1528.28 7.32077
1528.40 7.85634
1528.52 8.82589
1528.58 9.61819
1528.64 10.7915
1528.70 12.6567
1528.76 15.7011
1528.82 21.0595
1528.88 30.8004
1528.94 45.5779
1529.00 55.4009
1529.06 45.5829
1529.12 30.8058
1529.16 23.4071
1529.20 18.5322
1529.24 15.3179
1529.28 13.1434
1529.37 10.5334
1529.45 9.11346
1529.54 8.26581
1529.62 7.72245
1529.79 7.09394
1529.96 6.75890
1530.12 6.55950
1530.46 6.34342
1530.80 6.23415
1531.13 6.17056
1531.80 6.10168
1532.48 6.06589
1533.15 6.04458
1534.49 6.02489
1535.84 6.03405
1536.51 6.05860
1537.18 6.11363
1537.51 6.16364
1537.85 6.24202
1538.19 6.37140
1538.52 6.60250
1538.86 7.06898
1539.03 7.50076
1539.19 8.22206
1539.36 9.55508
1539.45 10.6863
1539.53 12.4151
1539.61 15.2257
1539.70 20.1616
1539.78 29.6451
1539.82 37.6299
1539.87 48.7185
1539.93 74.5480
1540.00 91.3988
1540.07 74.1529
1540.14 48.7289
1540.18 36.3114
1540.23 28.1417
1540.28 22.5343
1540.32 18.7672
1540.41 14.1157
1540.51 11.5671
1540.60 10.0098
1540.69 9.00508
1540.88 7.84028
1541.06 7.21162
1541.25 6.83795
1541.62 6.43018
1541.99 6.22322
1542.36 6.10230
1542.73 6.02423
1543.10 5.96997
1543.84 5.89827
1544.59 5.85134
1546.07 5.78667
1547.55 5.73582
1549.03 5.68742
1550.52 5.63600
1552.00 5.57757
1552.97 5.53583
1553.45 5.51662
1553.93 5.50530
1554.42 5.52293
1554.66 5.56381
1554.90 5.66103
1555.14 5.90019
1555.26 6.14382
1555.38 6.56519
1555.50 7.36549
1555.62 9.05233
1555.68 10.6460
1555.74 13.2075
1555.80 17.5713
1555.86 25.1471
1555.93 38.9015
1556.00 49.7838
1556.07 43.0885
1556.14 30.3886
1556.21 20.8383
1556.29 15.6268
1556.37 12.6745
1556.44 10.8786
1556.52 9.71228
1556.60 8.91252
1556.75 7.91348
1556.91 7.33156
1557.06 6.95894
1557.37 6.51951
1557.68 6.27150
1557.98 6.11351
1558.60 5.92238
1559.21 5.80694
1559.83 5.72589
1561.06 5.60885
1562.29 5.51606
1563.52 5.42976
1565.98 5.24491
1567.22 5.13479
1568.45 5.00451
1569.68 4.84615
1570.91 4.65173
1571.52 4.54093
1572.14 4.42714
1572.76 4.32844
1573.37 4.30418
1573.68 4.37131
1573.99 4.56225
1574.29 5.00831
1574.60 6.01810
1574.91 8.45866
1575.06 10.9388
1575.22 15.2848
1575.37 23.5351
1575.45 30.5430
1575.53 41.0959
1575.60 57.6875
1575.68 85.0956
1575.76 132.671
1575.83 215.715
1575.92 363.994
1576.00 481.625
1576.08 409.445
1576.17 272.586
1576.25 184.062
1576.32 130.256
1576.40 97.1264
1576.48 75.9932
1576.63 51.3631
1576.79 38.2566
1576.94 30.4351
1577.10 25.3652
1577.41 19.3451
1577.72 15.9788
1578.03 13.8845
1578.34 12.4703
1578.65 11.4596
1579.27 10.1222
1579.89 9.28778
1580.51 8.72061
1581.13 8.31156
1582.37 7.76241
1583.61 7.41193
1584.85 7.16845
1586.09 6.98942
1588.57 6.74243
1591.06 6.57886
1596.02 6.37223
1600.98 6.24463
1603.46 6.19780
1605.94 6.16031
1608.42 6.13453
1609.66 6.12934
1610.90 6.13513
1612.14 6.16684
1612.76 6.20592
1613.38 6.28221
1613.70 6.34809
1614.01 6.44850
1614.32 6.61110
1614.63 6.89712
1614.94 7.46633
1615.09 7.98749
1615.25 8.84953
1615.40 10.4209
1615.48 11.7466
1615.56 13.7199
1615.63 16.9116
1615.71 22.3001
1615.79 32.3971
1615.87 51.7392
1615.93 79.3916
1616.00 97.4675
1616.07 78.9698
1616.14 51.7533
1616.21 32.9467
1616.28 22.9720
1616.36 17.4570
1616.43 14.2183
1616.50 12.1330
1616.58 10.7398
1616.73 9.07064
1616.87 8.13932
1617.02 7.57568
1617.32 6.95108
1617.61 6.63213
1617.91 6.44711
1618.20 6.32982
1618.50 6.25041
1619.09 6.15178
1619.68 6.09391
1620.86 6.02898
1622.04 5.99200
1623.22 5.96641
1625.57 5.92923
1630.29 5.87249
1635.01 5.81887
1639.73 5.75679
1642.09 5.71762
1644.45 5.66748
1646.81 5.59669
1647.99 5.54741
1649.17 5.48247
1649.76 5.44158
1650.35 5.39346
1650.94 5.33739
1651.53 5.27616
1651.83 5.24814
1652.12 5.22995
1652.42 5.23902
1652.71 5.32207
1652.86 5.42833
1653.01 5.62309
1653.15 5.99040
1653.30 6.70637
1653.45 8.24855
1653.52 9.69458
1653.60 12.0273
1653.67 16.1541
1653.74 23.8703
1653.78 30.4794
1653.82 40.3294
1653.85 55.3380
1653.89 77.4749
1653.92 101.222
1653.95 128.499
1654.00 169.204
1654.03 164.043
1654.06 144.518
1654.11 97.4942
1654.16 69.0009
1654.20 51.2738
1654.25 39.6896
1654.30 32.1760
1654.39 23.1578
1654.48 18.2524
1654.58 15.2861
1654.67 13.3472
1654.85 11.0280
1655.04 9.72664
1655.23 8.91141
1655.41 8.36013
1655.60 7.96771
1655.97 7.44581
1656.34 7.12044
1656.71 6.89876
1657.08 6.73940
1657.83 6.52515
1658.57 6.38857
1659.31 6.29373
1660.06 6.22388
1661.54 6.12731
1663.03 6.06312
1666.00 5.98132
1668.97 5.92998
1671.95 5.89518
1673.43 5.88372
1674.92 5.88113
1675.66 5.88999
1676.41 5.92523
1676.78 5.97625
1677.15 6.11082
1677.33 6.27634
1677.52 6.65882
1677.61 7.06729
1677.71 7.85864
1677.75 8.56351
1677.80 9.63798
1677.85 11.3714
1677.89 14.1994
1677.95 19.2645
1678.00 22.5592
1678.06 19.1680
1678.11 14.2009
1678.14 12.0390
1678.18 10.5123
1678.24 8.67634
1678.31 7.70730
1678.37 7.14994
1678.51 6.57707
1678.64 6.30712
1678.90 6.07039
1679.17 5.97226
1679.69 5.89235
1680.22 5.85988
1681.28 5.83118
1682.33 5.81661
1686.55 5.78470
1690.77 5.76244
1694.99 5.74402
1699.21 5.72951
1703.44 5.72360
1705.55 5.73106
1706.60 5.74264
1707.66 5.76702
1708.71 5.82301
1709.24 5.87987
1709.77 5.98288
1710.03 6.06870
1710.29 6.19760
1710.56 6.40354
1710.82 6.75993
1711.09 7.46318
1711.22 8.10124
1711.35 9.14764
1711.48 11.0322
1711.55 12.5907
1711.61 14.9123
1711.68 18.5561
1711.75 24.6410
1711.81 35.4977
1711.88 55.1589
1711.94 84.6752
1712.00 104.282
1712.06 84.1820
1712.13 54.7812
1712.18 37.5834
1712.23 27.4295
1712.29 21.1095
1712.34 17.1527
1712.45 12.6264
1712.56 10.3004
1712.67 8.96235
1712.78 8.12639
1713.00 7.18323
1713.22 6.69268
1713.43 6.40577
1713.65 6.22362
1713.87 6.10075
1714.31 5.95019
1714.74 5.86465
1715.61 5.77536
1716.48 5.73110
1717.36 5.70525
1719.10 5.67615
1722.59 5.64742
1726.07 5.62972
1733.05 5.60239
1740.02 5.57828
1746.99 5.55535
1753.96 5.53381
1757.45 5.52489
1760.94 5.52170
1762.68 5.52817
1764.42 5.55771
1765.30 5.60367
1765.73 5.65046
1766.17 5.73550
1766.60 5.91385
1766.82 6.08599
1767.04 6.38752
1767.26 6.98780
1767.37 7.53931
1767.48 8.45619
1767.58 10.1419
1767.64 11.5820
1767.69 13.7340
1767.75 17.2807
1767.80 23.3483
1767.86 34.8063
1767.88 44.3050
1767.91 57.7246
1767.96 89.1611
1768.00 110.159
1768.05 89.1763
1768.09 57.7440
1768.13 38.6346
1768.17 27.5249
1768.22 20.9278
1768.26 16.8077
1768.34 12.2417
1768.43 9.96007
1768.51 8.64372
1768.59 7.83658
1768.76 6.92480
1768.93 6.45123
1769.09 6.17733
1769.43 5.88698
1769.76 5.74377
1770.10 5.66288
1770.77 5.57844
1771.44 5.53678
1772.10 5.51247
1773.44 5.48506
1776.12 5.45734
1778.79 5.43899
1784.14 5.40586
1789.49 5.36715
1794.84 5.31194
1800.19 5.21225
1802.87 5.11816
1804.21 5.04604
1805.54 4.94373
1806.88 4.79037
1807.55 4.68443
1808.22 4.55457
1808.89 4.41430
1809.22 4.36858
1809.56 4.40434
1809.89 4.71745
1810.06 5.16786
1810.23 6.12557
1810.39 8.31627
1810.48 10.4790
1810.56 14.1104
1810.64 20.8259
1810.69 26.3489
1810.73 34.1900
1810.77 46.2846
1810.81 65.2751
1810.85 96.1228
1810.89 145.181
1810.95 246.032
1811.00 325.030
1811.05 276.862
1811.11 186.152
1811.15 134.046
1811.19 99.6910
1811.23 77.0545
1811.28 61.7006
1811.36 43.0901
1811.44 32.8423
1811.53 26.4709
1811.61 22.3138
1811.78 17.2595
1811.94 14.4021
1812.11 12.6054
1812.44 10.5184
1812.78 9.37058
1813.11 8.65749
1813.78 7.83602
1814.45 7.38958
1815.12 7.11870
1816.45 6.83000
1819.13 6.69293
1821.80 6.89250
1823.13 7.14056
1824.47 7.55206
1825.81 8.24698
1827.14 9.49932
1828.48 12.0407
1829.15 14.3993
1829.82 18.3533
1830.48 25.7028
1830.82 31.9786
1831.15 41.6340
1831.49 57.4802
1831.82 85.7107
1832.15 141.196
1832.32 189.002
1832.49 258.702
1832.74 411.777
1833.00 513.630
1833.26 411.197
1833.51 258.849
1833.79 154.870
1834.07 99.8312
1834.35 69.3137
1834.63 51.1604
1834.91 39.6098
1835.19 31.9107
1835.75 22.6210
1836.31 17.4636
1836.86 14.3265
1837.98 10.8624
1839.10 9.09630
1840.22 8.07491
1841.33 7.43043
1842.45 6.99692
1844.68 6.46565
1846.92 6.16216
1849.15 5.97042
1851.39 5.83997
1855.85 5.67510
1860.32 5.57463
1864.79 5.50549
1869.26 5.45341
1878.19 5.37559
1887.13 5.31458
1896.07 5.26043
1905.00 5.20830
1925.44 5.08037
1935.65 4.99983
1938.21 4.97459
1940.76 4.94411
1942.04 4.92535
1943.32 4.90359
1943.95 4.89400
1944.59 4.89846
1944.91 4.92626
1945.23 5.03064
1945.39 5.17856
1945.55 5.53388
1945.63 5.91175
1945.71 6.60960
1945.79 8.01700
1945.83 9.24389
1945.87 10.9930
1945.94 15.4082
1946.00 18.9097
1946.07 16.8261
1946.13 12.8496
1946.20 10.0117
1946.27 8.37962
1946.34 7.41716
1946.40 6.81495
1946.54 6.13821
1946.67 5.78806
1946.95 5.44452
1947.22 5.28454
1947.76 5.13642
1948.30 5.06733
1949.39 4.99932
1950.47 4.96268
1952.65 4.91679
1954.82 4.88266
1959.16 4.82217
1963.50 4.76036
1967.84 4.69099
1972.19 4.60747
1974.36 4.55642
1976.53 4.49414
1977.62 4.45646
1978.70 4.41517
1979.24 4.39957
1979.79 4.41568
1980.06 4.47593
1980.19 4.54738
1980.33 4.68181
1980.47 4.95760
1980.53 5.20430
1980.60 5.58420
1980.67 6.21768
1980.74 7.32720
1980.80 9.40478
1980.87 13.3765
1980.94 19.9270
1981.00 25.1400
1981.07 22.0466
1981.13 16.1473
1981.17 13.4282
1981.21 11.4909
1981.28 9.02450
1981.36 7.65516
1981.44 6.84042
1981.51 6.30640
1981.59 5.94554
1981.74 5.49072
1981.90 5.22300
1982.05 5.05141
1982.36 4.84507
1982.97 4.64592
1983.58 4.54308
1984.81 4.41799
1986.03 4.31981
1987.26 4.21454
1987.87 4.15106
1988.48 4.07388
1989.10 3.97557
1989.40 3.91651
1989.71 3.85428
1990.02 3.80917
1990.17 3.81919
1990.32 3.90093
1990.48 4.18842
1990.55 4.53387
1990.63 5.19121
1990.71 6.58340
1990.74 7.84158
1990.78 9.85151
1990.82 13.3646
1990.86 19.6195
1990.88 24.6900
1990.90 31.9406
1990.92 42.4581
1990.94 57.6686
1990.95 76.1897
1990.97 97.0283
1991.00 127.715
1991.02 123.871
1991.03 109.102
1991.07 74.2723
1991.10 48.5164
1991.14 34.0024
1991.17 25.5752
1991.21 20.3587
1991.24 16.9280
1991.28 14.5536
1991.35 11.5601
1991.42 9.80181
1991.49 8.67104
1991.62 7.33996
1991.76 6.58943
1991.90 6.12071
1992.18 5.56824
1992.46 5.25592
1992.74 5.05621
1993.30 4.81186
1993.86 4.66366
1994.42 4.56060
1995.53 4.41695
1997.77 4.22256
2000.00 4.06174
2002.57 3.87500
2005.15 3.66619
2007.72 3.41977
2010.29 3.12492
2011.58 2.96120
2012.86 2.79842
2014.15 2.66915
2015.44 2.67298
2016.08 2.80913
2016.72 3.14763
2017.37 3.89324
2018.01 5.52274
2018.33 7.00501
2018.65 9.30838
2018.97 13.0485
2019.29 19.4004
2019.62 31.0450
2019.78 40.5899
2019.94 54.3864
2020.10 75.2648
2020.26 107.851
2020.42 160.379
2020.58 245.126
2020.79 419.232
2021.00 560.371
2021.21 479.413
2021.42 320.376
2021.61 218.854
2021.80 156.339
2021.99 117.214
2022.18 91.6729
2022.56 61.7734
2022.93 45.7425
2023.31 36.0772
2023.69 29.7915
2024.45 22.2723
2025.20 18.0385
2025.96 15.3805
2026.72 13.5734
2027.47 12.2774
2028.99 10.5512
2030.50 9.46364
2032.01 8.71799
2033.53 8.17520
2036.55 7.43535
2039.58 6.94958
2042.61 6.59899
2045.63 6.32670
2051.69 5.90119
2054.71 5.71210
2057.74 5.51824
2060.77 5.29861
2062.28 5.16861
2063.79 5.01533
2065.31 4.82652
2066.06 4.71443
2066.82 4.59133
2067.58 4.47306
2067.95 4.43853
2068.33 4.46576
2068.71 4.67983
2068.90 4.97081
2069.09 5.56052
2069.28 6.83301
2069.37 8.02531
2069.47 9.93663
2069.56 13.2508
2069.66 19.2963
2069.70 24.3759
2069.75 31.5815
2069.80 42.1465
2069.84 57.5974
2069.88 75.0281
2069.92 95.8812
2070.00 126.923
2070.04 123.697
2070.08 109.256
2070.16 74.3200
2070.25 47.6554
2070.33 33.0776
2070.42 24.8017
2070.51 19.7530
2070.60 16.4624
2070.69 14.1970
2070.87 11.3602
2071.05 9.67837
2071.22 8.59303
2071.58 7.27587
2071.93 6.50482
2072.29 5.98872
2073.00 5.31935
2073.71 4.94886
2074.06 4.92861
2074.42 5.18347
2074.77 6.16935
2074.95 7.35055
2075.13 9.59472
2075.31 14.2392
2075.40 18.4328
2075.48 24.9756
2075.57 35.9795
2075.66 55.5476
2075.71 71.3091
2075.75 92.9618
2075.79 123.610
2075.84 166.789
2075.92 283.728
2076.00 378.842
2076.08 324.701
2076.16 217.967
2076.24 145.049
2076.32 102.334
2076.40 76.1860
2076.48 59.7516
2076.56 48.5851
2076.64 40.8451
2076.80 30.8762
2076.96 24.9450
2077.12 21.0997
2077.43 16.5186
2077.75 13.9445
2078.07 12.3224
2078.39 11.2168
2078.71 10.4211
2079.34 9.35095
2079.98 8.66881
2080.61 8.19628
2081.25 7.84960
2082.52 7.37155
2083.79 7.05573
2086.33 6.65712
2088.88 6.40955
2091.42 6.23604
2096.51 5.99939
2101.59 5.83712
2104.14 5.77234
2106.68 5.71688
2109.22 5.67392
2110.49 5.66121
2111.76 5.66151
2113.04 5.69297
2113.67 5.73686
2114.31 5.82567
2114.94 6.02290
2115.26 6.21714
2115.58 6.55894
2115.90 7.23672
2116.06 7.85374
2116.22 8.86708
2116.37 10.6935
2116.45 12.2155
2116.53 14.4543
2116.61 18.0134
2116.69 23.8802
2116.77 34.3087
2116.85 53.5278
2116.93 82.4438
2117.00 101.760
2117.08 82.4592
2117.15 53.5461
2117.21 38.1450
2117.27 28.5206
2117.33 22.3402
2117.38 18.2436
2117.50 13.4270
2117.62 10.8577
2117.73 9.34324
2117.85 8.38075
2118.08 7.27615
2118.31 6.69135
2118.54 6.34450
2118.78 6.12146
2119.01 5.96905
2119.47 5.77811
2119.94 5.66609
2120.86 5.54112
2121.79 5.47103
2122.72 5.42334
2124.58 5.35481
2128.29 5.24904
2132.01 5.14653
2135.72 5.03239
2137.58 4.96850
2139.43 4.90041
2141.29 4.83400
2142.22 4.80876
2143.15 4.80243
2144.08 4.85033
2144.54 4.92677
2145.01 5.08941
2145.47 5.46072
2145.70 5.82784
2145.93 6.47026
2146.17 7.72261
2146.28 8.83742
2146.40 10.6212
2146.51 13.7099
2146.63 19.6666
2146.69 24.8757
2146.75 32.9476
2146.80 45.9509
2146.86 67.1284
2146.93 104.819
2147.00 129.947
2147.07 104.826
2147.14 67.1262
2147.20 45.3695
2147.26 32.2269
2147.32 24.1756
2147.38 19.0287
2147.50 13.1909
2147.62 10.1975
2147.74 8.44886
2147.86 7.35002
2148.10 6.09859
2148.34 5.42652
2148.58 5.01872
2149.05 4.54522
2149.53 4.26447
2150.01 4.06236
2150.97 3.75343
2151.45 3.63221
2151.92 3.55099
2152.40 3.56151
2152.88 3.80704
2153.36 4.72948
2153.60 5.84400
2153.84 8.00689
2153.96 9.84287
2154.08 12.5686
2154.20 16.7579
2154.32 23.4162
2154.44 34.7994
2154.56 55.3133
2154.62 72.0834
2154.68 96.1025
2154.74 130.994
2154.80 180.508
2154.90 308.957
2155.00 412.364
2155.10 353.265
2155.21 237.502
2155.33 147.070
2155.45 98.4073
2155.57 71.1026
2155.69 54.5813
2155.81 43.8799
2155.93 36.5507
2156.16 27.4268
2156.40 22.0838
2156.64 18.6755
2157.12 14.6436
2157.60 12.3909
2158.08 10.9804
2158.56 10.0212
2159.04 9.33037
2160.00 8.40614
2160.96 7.82004
2161.92 7.41540
2162.87 7.11981
2164.79 6.71540
2166.71 6.45035
2168.62 6.26164
2170.54 6.11921
2174.38 5.91577
2178.21 5.77722
2180.13 5.72775
2182.04 5.70264
2183.00 5.71634
2183.48 5.74204
2183.96 5.79754
2184.44 5.92436
2184.68 6.05030
2184.92 6.27085
2185.16 6.70775
2185.28 7.10294
2185.40 7.74000
2185.52 8.88046
2185.58 9.81083
2185.64 11.1778
2185.70 13.2833
2185.76 16.7078
2185.82 22.5968
2185.88 32.7611
2185.94 49.3048
2186.00 60.1318
2186.06 49.0280
2186.12 32.7696
2186.17 24.8303
2186.21 19.5365
2186.25 16.0065
2186.29 13.6430
2186.38 10.6989
2186.47 9.09705
2186.55 8.12114
2186.64 7.49921
2186.81 6.77012
2186.98 6.37884
2187.15 6.14462
2187.49 5.88876
2187.83 5.75758
2188.18 5.67985
2188.86 5.59246
2190.23 5.50968
2191.59 5.46241
2194.33 5.39446
2197.06 5.33682
2202.53 5.22612
2208.00 5.10507
2213.48 4.95116
2216.21 4.84801
2218.95 4.71052
2221.68 4.50815
2223.05 4.36207
2224.42 4.16283
2225.10 4.03279
2225.78 3.87382
2226.47 3.67689
2227.15 3.43405
2227.49 3.29641
2227.83 3.15710
2228.18 3.04236
2228.52 3.03317
2228.69 3.13690
2228.86 3.40558
2229.03 4.00727
2229.20 5.33341
2229.29 6.55013
2229.37 8.42670
2229.46 11.5014
2229.54 16.6725
2229.63 26.2110
2229.67 34.0196
2229.72 45.0523
2229.76 61.9261
2229.80 87.3620
2229.84 128.777
2229.89 193.459
2229.94 332.400
2230.00 443.405
2230.06 379.879
2230.12 255.921
2230.15 192.399
2230.19 147.813
2230.23 116.768
2230.27 94.7676
2230.35 66.8596
2230.43 50.6522
2230.51 40.4315
2230.58 33.5569
2230.74 25.1119
2230.90 20.2590
2231.05 17.1745
2231.36 13.5625
2231.67 11.5450
2231.99 10.2791
2232.30 9.41767
2232.61 8.79834
2233.23 7.96605
2233.86 7.43724
2234.48 7.07124
2235.10 6.80369
2236.35 6.43720
2237.60 6.19701
2240.09 5.89757
2242.59 5.71395
2245.08 5.58614
2250.07 5.41143
2260.04 5.18985
2270.02 5.02342
2289.97 4.70051
2299.94 4.49992
2304.93 4.37197
2307.42 4.28981
2308.67 4.23879
2308.98 4.22937
2309.29 4.23925
2309.45 4.27459
2309.61 4.39238
2309.68 4.54534
2309.76 4.88476
2309.84 5.77101
2309.88 6.76061
2309.92 8.50564
2309.96 11.6911
2310.00 14.2332
2310.04 12.7723
2310.08 9.94935
2310.13 7.71516
2310.18 6.53649
2310.23 5.85920
2310.28 5.45676
2310.37 5.00975
2310.47 4.78090
2310.67 4.55852
2310.86 4.45253
2311.63 4.29551
2313.19 4.18691
2316.29 4.04077
2319.39 3.88570
2322.49 3.69726
2325.59 3.45175
2327.14 3.29513
2328.69 3.10410
2330.24 2.86166
2331.02 2.71254
2331.79 2.53756
2332.57 2.33109
2332.96 2.21841
2333.34 2.11206
2333.73 2.05828
2333.92 2.10197
2334.12 2.28042
2334.31 2.81522
2334.41 3.40364
2334.41 3.43782
2334.42 3.46922
2334.42 3.53341
2334.43 3.66764
2334.46 3.96178
2334.51 4.67498
2334.60 6.90545
2334.70 11.2790
2334.72 13.0786
2334.75 15.4597
2334.77 18.5441
2334.80 22.5498
2334.82 27.8119
2334.84 34.7893
2334.87 44.0777
2334.89 56.3525
2334.92 74.3120
2334.95 95.8523
2335.00 128.213
2335.03 125.154
2335.05 110.487
2335.11 74.6597
2335.15 52.6740
2335.20 38.8604
2335.24 29.9156
2335.29 23.9224
2335.38 16.6763
2335.47 12.7322
2335.56 10.2940
2335.65 8.70173
2335.83 6.76497
2336.01 5.64830
2336.19 4.93467
2336.55 4.08813
2336.92 3.61570
2337.28 3.34530
2338.00 3.26376
2338.68 4.05787
2339.02 5.19506
2339.35 7.48845
2339.52 9.46998
2339.69 12.4131
2339.86 16.9494
2340.03 24.2418
2340.20 36.6181
2340.37 59.1087
2340.45 77.4560
2340.54 103.345
2340.62 141.276
2340.71 195.358
2340.85 336.403
2341.00 451.338
2341.15 387.587
2341.29 260.524
2341.44 172.389
2341.58 120.625
2341.73 89.2043
2341.88 69.3723
2342.02 55.9855
2342.17 46.6549
2342.46 34.7049
2342.75 27.5579
2343.04 22.9192
2343.62 17.3898
2344.20 14.2678
2344.78 12.2982
2345.36 10.9514
2345.94 9.97648
2347.11 8.66216
2348.27 7.81693
2349.43 7.22383
2350.60 6.78007
2352.92 6.13914
2355.25 5.65551
2356.41 5.42671
2356.99 5.30670
2357.57 5.17985
2358.15 5.04935
2358.45 4.99285
2358.74 4.96640
2359.03 5.04300
2359.17 5.19089
2359.32 5.52702
2359.46 6.32411
2359.54 7.11097
2359.61 8.42192
2359.68 10.8171
2359.75 15.4529
2359.79 19.6059
2359.83 25.7704
2359.86 35.3640
2359.90 50.3492
2359.92 65.5541
2359.95 83.8193
2360.00 110.658
2360.05 95.5051
2360.10 65.7727
2360.14 51.5941
2360.17 41.5909
2360.23 29.0354
2360.29 22.0519
2360.35 17.8461
2360.42 15.0922
2360.48 13.2425
2360.60 10.9290
2360.73 9.56716
2360.85 8.69882
2361.10 7.66397
2361.35 7.07476
2361.60 6.69883
2362.09 6.24218
2362.59 5.97079
2363.09 5.78612
2364.08 5.53998
2365.08 5.37257
2366.07 5.24383
2368.06 5.04414
2372.03 4.74361
2376.01 4.49271
2383.96 4.01492
2387.94 3.74965
2388.93 3.67383
2389.93 3.58963
2390.43 3.54404
2390.92 3.50387
2391.17 3.50189
2391.42 3.56648
2391.54 3.69195
2391.67 4.04060
2391.73 4.44668
2391.79 5.26206
2391.82 5.98475
2391.85 7.10271
2391.89 8.88272
2391.92 11.7348
2391.96 17.7705
2392.00 22.7316
2392.04 20.0314
2392.08 14.5591
2392.11 11.8955
2392.14 10.0460
2392.19 7.74974
2392.24 6.46764
2392.29 5.71785
2392.40 4.89749
2392.50 4.48174
2392.71 4.07897
2392.92 3.88673
2393.34 3.69552
2393.76 3.59303
2394.60 3.46691
2395.44 3.37640
2398.79 3.09197
2402.14 2.85470
2405.50 2.72812
2407.17 2.78119
2408.85 3.01704
2410.53 3.62985
2412.20 5.07672
2413.04 6.43775
2413.88 8.59581
2414.72 12.1405
2415.56 18.2549
2416.40 29.5656
2416.82 38.8853
2417.23 52.5105
2417.65 73.1029
2418.07 105.358
2418.49 157.528
2418.91 242.635
2419.46 416.608
2420.00 559.282
2420.55 480.647
2421.10 322.239
2421.63 215.959
2422.16 152.227
2422.69 113.300
2423.21 88.3176
2423.74 71.4286
2424.27 59.5404
2425.33 44.2587
2426.38 35.1076
2427.44 29.1570
2429.55 22.0384
2431.66 18.0215
2433.78 15.4843
2435.89 13.7518
2438.00 12.4998
2442.23 10.8128
2446.45 9.71761
2448.57 9.28860
2450.68 8.89550
2451.74 8.69680
2452.26 8.59234
2452.79 8.48247
2453.32 8.37025
2453.58 8.32074
2453.85 8.29338
2454.11 8.34152
2454.24 8.44571
2454.38 8.68709
2454.51 9.25725
2454.57 9.81756
2454.64 10.7622
2454.71 12.4563
2454.77 15.7588
2454.81 18.6099
2454.84 22.9169
2454.87 29.5799
2454.90 39.9166
2454.95 63.0788
2455.00 82.1676
2455.05 71.8750
2455.10 50.9124
2455.14 38.5198
2455.17 30.5904
2455.21 25.3540
2455.25 21.7922
2455.33 17.4551
2455.40 15.0280
2455.48 13.5141
2455.55 12.5236
2455.71 11.3147
2455.86 10.6159
2456.01 10.1714
2456.32 9.63716
2456.62 9.32814
2456.93 9.12465
2457.54 8.86718
2458.15 8.70569
2458.76 8.59270
2459.98 8.45277
2461.20 8.41794
2461.81 8.46540
2462.42 8.60615
2462.72 8.74346
2463.03 8.96397
2463.33 9.33236
2463.64 9.99182
2463.94 11.3125
2464.09 12.5242
2464.25 14.5033
2464.40 18.0950
2464.48 21.0453
2464.55 25.4294
2464.63 32.2847
2464.70 43.6720
2464.78 63.8424
2464.86 100.815
2464.93 156.809
2465.00 193.378
2465.07 156.024
2465.15 100.849
2465.23 60.4598
2465.32 40.2179
2465.40 29.3495
2465.49 23.0245
2465.57 19.0719
2465.66 16.4542
2465.83 13.3279
2466.00 11.6017
2466.17 10.5607
2466.51 9.41039
2466.85 8.81622
2467.19 8.46687
2467.53 8.23991
2467.87 8.08140
2468.55 7.87320
2469.23 7.73968
2470.59 7.56706
2471.95 7.44884
2473.31 7.35510
2476.04 7.20346
2478.76 7.07813
2481.48 6.96955
2486.93 6.78984
2492.37 6.65961
2495.09 6.62233
2497.82 6.62247
2499.18 6.64910
2500.54 6.70901
2501.90 6.82937
2503.26 7.07298
2503.94 7.28604
2504.62 7.61354
2505.30 8.14760
2505.98 9.08925
2506.66 10.9713
2507.00 12.6946
2507.34 15.5466
2507.68 20.7681
2507.85 25.1319
2508.02 31.7145
2508.19 42.2246
2508.36 60.2126
2508.53 93.4933
2508.70 158.203
2508.85 249.716
2509.00 310.841
2509.15 249.776
2509.30 158.293
2509.43 103.320
2509.57 71.2691
2509.70 52.0389
2509.84 39.9350
2510.11 26.3825
2510.38 19.5317
2510.65 15.6052
2510.92 13.1728
2511.46 10.4355
2512.00 9.01029
2512.54 8.17639
2513.08 7.64322
2513.62 7.28143
2514.70 6.83007
2515.78 6.56555
2516.87 6.39267
2517.95 6.27005
2520.11 6.10304
2522.27 5.98777
2526.60 5.81679
2530.92 5.66739
2535.24 5.49865
2537.41 5.38617
2538.49 5.31390
2539.57 5.22264
2540.65 5.10020
2541.19 5.02154
2541.73 4.92941
2542.27 4.83342
2542.54 4.80211
2542.81 4.82145
2543.08 5.00709
2543.22 5.27082
2543.35 5.82086
2543.49 7.04204
2543.56 8.21360
2543.62 10.1149
2543.69 13.4900
2543.76 19.7647
2543.79 25.1002
2543.83 32.9759
2543.86 44.8250
2543.89 62.0137
2543.92 81.3824
2543.95 104.761
2544.00 139.466
2544.03 136.244
2544.05 120.323
2544.11 82.4200
2544.14 64.4919
2544.17 51.8132
2544.24 35.8666
2544.30 26.9738
2544.36 21.6074
2544.43 18.1342
2544.49 15.7549
2544.62 12.7797
2544.75 11.0414
2544.88 9.92478
2545.13 8.60123
2545.39 7.85564
2545.65 7.38647
2545.90 7.06502
2546.16 6.83170
2546.67 6.51552
2547.18 6.31146
2548.21 6.06012
2549.23 5.90718
2550.26 5.80083
2552.31 5.65454
2556.40 5.46483
2560.50 5.31872
2564.60 5.17927
2568.70 5.02185
2570.75 4.92179
2571.78 4.85997
2572.80 4.78446
2573.83 4.68645
2574.34 4.62511
2574.85 4.55422
2575.36 4.48112
2575.62 4.45710
2575.87 4.47032
2576.13 4.60406
2576.26 4.79486
2576.39 5.19259
2576.51 6.07416
2576.58 6.91061
2576.64 8.28613
2576.71 10.6844
2576.77 15.1947
2576.80 18.9622
2576.83 24.4868
2576.87 32.7335
2576.90 45.0284
2576.92 58.7840
2576.95 74.6526
2577.00 99.1075
2577.05 86.1723
2577.10 59.4644
2577.16 38.1306
2577.22 26.7127
2577.29 20.3332
2577.35 16.5314
2577.41 14.0216
2577.47 12.3038
2577.59 10.1710
2577.71 8.91353
2577.83 8.11204
2578.07 7.15926
2578.32 6.62047
2578.56 6.27909
2579.04 5.87422
2579.53 5.64107
2580.02 5.48864
2580.99 5.29650
2581.96 5.17495
2582.93 5.08672
2584.87 4.95744
2588.75 4.77065
2592.63 4.61328
2600.40 4.30973
2608.17 3.99737
2612.05 3.84851
2615.93 3.73103
2619.82 3.70470
2623.70 3.93038
2627.58 4.89972
2629.52 6.11070
2631.46 8.48480
2633.41 13.4798
2634.38 18.0432
2635.35 25.3074
2636.32 37.5079
2637.29 59.3305
2638.26 101.262
2638.75 136.144
2639.23 185.579
2640.12 319.106
2641.00 429.679
2641.89 371.473
2642.77 251.201
2643.65 167.244
2644.54 117.530
2645.42 87.5179
2646.30 68.4132
2647.19 55.5873
2648.07 46.5688
2649.84 34.9949
2651.60 28.0411
2653.37 23.4422
2654.25 21.6576
2655.13 20.0945
2655.58 19.3981
2655.80 19.0980
2656.02 18.8834
2656.24 18.8976
2656.35 19.1256
2656.46 19.7001
2656.57 21.0729
2656.63 22.3753
2656.68 24.4917
2656.74 28.0926
2656.79 34.5985
2656.85 47.2031
2656.90 72.8005
2656.95 113.553
2657.00 147.533
2657.05 129.572
2657.10 92.6988
2657.13 74.8235
2657.16 62.3287
2657.23 46.8096
2657.29 38.2510
2657.35 33.1085
2657.41 29.7342
2657.47 27.4551
2657.60 24.5676
2657.72 22.8240
2657.85 21.6746
2658.10 20.2228
2658.34 19.3121
2658.59 18.6637
2659.09 17.7477
2660.09 16.5413
2661.08 15.6758
2663.07 14.3834
2665.06 13.4129
2669.04 12.0028
2673.02 11.0061
2676.99 10.2408
2680.97 9.58783
2682.96 9.25655
2684.95 8.85974
2685.95 8.59134
2686.44 8.42013
2686.94 8.20864
2687.44 7.94122
2687.69 7.78784
2687.94 7.64300
2688.19 7.59493
2688.31 7.70752
2688.43 8.08988
2688.56 9.20411
2688.62 10.4168
2688.68 12.6224
2688.74 16.9282
2688.81 26.2729
2688.84 35.1748
2688.87 49.9153
2688.90 75.4938
2688.93 121.838
2688.97 205.432
2689.00 276.215
2689.04 239.051
2689.07 163.503
2689.09 126.394
2689.11 100.185
2689.16 67.3934
2689.20 49.7235
2689.25 39.4818
2689.29 32.7740
2689.34 28.3156
2689.43 22.7029
2689.52 19.4410
2689.60 17.3506
2689.78 14.8748
2689.96 13.4829
2690.14 12.6008
2690.32 11.9948
2690.49 11.5537
2690.85 10.9527
2691.21 10.5627
2691.92 10.0782
2692.63 9.78049
2693.34 9.57285
2694.77 9.28821
2697.62 8.93686
2700.47 8.70210
2703.32 8.52580
2706.17 8.40192
2707.59 8.37742
2708.31 8.38919
2709.02 8.43812
2709.73 8.57627
2710.09 8.72448
2710.44 8.99672
2710.80 9.56004
2710.98 10.0875
2711.16 10.9780
2711.34 12.6464
2711.42 14.0811
2711.51 16.3032
2711.60 19.9826
2711.69 26.6224
2711.74 32.1232
2711.78 39.9292
2711.83 51.7712
2711.87 68.9023
2711.94 105.666
2712.00 129.676
2712.07 105.099
2712.13 68.9333
2712.17 52.4434
2712.22 41.0424
2712.30 27.6875
2712.38 20.8284
2712.47 16.9891
2712.55 14.6040
2712.63 13.0638
2712.80 11.2349
2712.97 10.2376
2713.14 9.64125
2713.47 8.98749
2713.80 8.65231
2714.14 8.45621
2714.81 8.24049
2715.48 8.12443
2716.15 8.04974
2717.48 7.95248
2720.16 7.82955
2722.83 7.73772
2725.51 7.65868
2728.18 7.58741
2733.53 7.46062
2744.24 7.24745
2749.59 7.14950
2752.26 7.09195
2753.60 7.04899
2754.27 7.02658
2754.44 7.03607
2754.60 7.09387
2754.69 7.18806
2754.77 7.43068
2754.85 8.23221
2754.90 9.36187
2754.94 11.9699
2754.97 15.5814
2755.00 18.6900
2755.03 17.0646
2755.06 13.8095
2755.10 11.0813
2755.14 9.68869
2755.22 8.44892
2755.30 7.94828
2755.38 7.69528
2755.54 7.45259
2755.70 7.33928
2756.33 7.18283
2757.59 7.10324
2760.12 7.04167
2765.17 6.96410
2775.27 6.84019
2795.49 6.63414
2805.59 6.54047
2815.70 6.44500
2820.75 6.39170
2823.28 6.36127
2825.80 6.32579
2828.33 6.28056
2829.59 6.25105
2830.86 6.21306
2832.12 6.16002
2833.38 6.07761
2834.01 6.01775
2834.64 5.95187
2834.96 5.94644
2835.12 5.97942
2835.28 6.08214
2835.43 6.36862
2835.51 6.67760
2835.59 7.23456
2835.67 8.31094
2835.75 10.6155
2835.79 12.8161
2835.83 16.3198
2835.87 22.2469
2835.91 32.4406
2835.93 41.7017
2835.95 52.4178
2836.00 68.7161
2836.05 60.0338
2836.09 42.4866
2836.13 32.6060
2836.16 26.0842
2836.20 21.6466
2836.23 18.5563
2836.30 14.7020
2836.37 12.4959
2836.44 11.0988
2836.50 10.1785
2836.64 9.04866
2836.78 8.39411
2836.91 7.97999
2837.18 7.49024
2837.73 7.03885
2838.28 6.83109
2838.82 6.71176
2839.37 6.63421
2840.46 6.53792
2841.55 6.47898
2842.64 6.43783
2844.82 6.38121
2847.00 6.34103
2849.18 6.30877
2853.55 6.25549
2862.27 6.16493
2871.00 6.07701
2884.94 5.91722
2891.92 5.81693
2898.89 5.68991
2905.86 5.51349
2909.35 5.39163
2912.83 5.22955
2916.32 4.99679
2918.06 4.83495
2919.80 4.62349
2920.67 4.49192
2921.55 4.33899
2922.42 4.16340
2923.29 3.97650
2923.72 3.89387
2924.16 3.84425
2924.60 3.88110
2925.03 4.14141
2925.47 5.03192
2925.69 6.07130
2925.90 8.02202
2926.12 11.9824
2926.23 15.4898
2926.34 20.9297
2926.45 29.7512
2926.56 44.8293
2926.67 72.0614
2926.77 122.101
2926.89 210.874
2927.00 284.650
2927.11 246.639
2927.23 167.751
2927.35 108.895
2927.47 75.5192
2927.60 56.0432
2927.72 44.0085
2927.84 35.9792
2927.96 30.3994
2928.21 23.3461
2928.46 19.1511
2928.70 16.4442
2929.19 13.2033
2929.68 11.3709
2930.17 10.2074
2930.66 9.40771
2931.16 8.82536
2932.14 8.03292
2933.12 7.51458
2935.08 6.85870
2937.05 6.43127
2939.01 6.09623
2940.97 5.78595
2941.96 5.61979
2942.45 5.55351
2942.69 5.66448
2942.82 6.14549
2942.88 7.06277
2942.91 8.14220
2942.94 10.1061
2942.97 13.6131
2943.00 16.4536
2943.03 15.0253
2943.06 11.8795
2943.10 9.42077
2943.14 8.06616
2943.21 6.86239
2943.29 6.35883
2943.36 6.09624
2943.66 5.69542
2944.26 5.44934
2945.46 5.18244
2946.66 4.94541
2947.86 4.72224
2948.47 4.63554
2949.07 4.60045
2949.67 4.68738
2950.27 5.07447
2950.87 6.27443
2951.17 7.62199
2951.47 10.1068
2951.77 15.0133
2951.92 19.2740
2952.07 25.7722
2952.22 36.0954
2952.37 53.2843
2952.52 83.2900
2952.67 136.855
2952.83 236.037
2953.00 318.798
2953.17 276.509
2953.34 188.159
2953.47 136.784
2953.60 102.888
2953.73 80.3608
2953.86 64.9640
2954.12 46.0703
2954.39 35.4961
2954.65 28.9267
2954.91 24.5725
2955.43 19.2581
2955.96 16.2053
2956.48 14.2641
2957.01 12.9304
2957.53 11.9669
2958.58 10.6717
2959.63 9.84827
2960.68 9.27983
2961.73 8.86405
2963.83 8.29534
2965.93 7.92278
2968.02 7.65724
2970.12 7.45605
2974.32 7.16304
2978.52 6.94226
2980.61 6.83793
2982.71 6.71964
2983.76 6.64430
2984.81 6.54411
2985.34 6.48079
2985.86 6.42579
2986.12 6.44310
2986.25 6.49868
2986.38 6.63862
2986.52 6.98758
2986.58 7.34477
2986.65 7.95032
2986.71 9.07827
2986.78 11.2971
2986.81 13.2812
2986.84 16.3428
2986.88 21.1985
2986.91 28.8240
2986.93 36.2302
2986.95 45.4246
2987.00 59.6049
2987.05 52.4396
2987.09 37.5304
2987.12 29.9554
2987.15 24.5068
2987.21 18.0632
2987.28 14.6214
2987.34 12.5994
2987.40 11.2955
2987.46 10.4283
2987.58 9.35176
2987.70 8.72113
2987.83 8.31959
2988.07 7.83914
2988.56 7.39047
2989.05 7.17629
2990.03 6.95718
2991.01 6.82877
2991.99 6.72380
2992.97 6.60990
2993.46 6.53902
2993.95 6.45949
2994.20 6.43745
2994.44 6.52146
2994.56 6.73614
2994.69 7.41421
2994.75 8.27665
2994.81 10.1537
2994.84 11.9788
2994.87 14.8977
2994.90 20.1230
2994.93 29.3669
2994.95 37.0643
2994.97 46.2505
2995.00 60.8507
2995.04 53.4570
2995.07 38.2782
2995.10 29.5384
2995.12 23.6238
2995.15 19.6870
2995.18 16.9941
2995.23 13.6966
2995.28 11.8679
2995.34 10.7094
2995.39 9.93890
2995.50 9.00588
2995.71 8.12279
2995.93 7.71635
2996.36 7.33644
2996.79 7.15723
2997.65 6.97977
2998.50 6.88640
3000.22 6.77523
3001.08 6.73179
3001.51 6.72494
3001.72 6.79847
3001.83 7.03474
3001.88 7.44627
3001.94 8.65493
3002.00 11.3352
3002.06 9.41072
3002.13 7.88350
3002.20 7.36303
3002.33 7.01673
3002.60 6.84182
3003.14 6.75596
3004.22 6.70030
3006.37 6.64423
3010.68 6.57121
3019.29 6.47057
3036.52 6.33401
3053.75 6.23370
3070.98 6.14994
3088.21 6.07318
3105.44 5.99436
3114.06 5.94854
3118.36 5.92138
3122.67 5.88865
3126.98 5.84519
3129.13 5.81584
3131.29 5.77697
3133.44 5.72048
3134.52 5.68021
3135.59 5.62572
3136.67 5.54694
3137.21 5.49293
3137.75 5.42521
3138.29 5.34346
3138.56 5.30357
3138.82 5.28174
3139.09 5.33419
3139.23 5.44517
3139.36 5.70363
3139.50 6.32904
3139.56 6.94600
3139.63 7.99105
3139.70 9.90871
3139.77 13.6126
3139.80 16.8650
3139.83 21.6221
3139.87 29.1842
3139.90 40.5267
3139.93 52.5543
3139.95 67.1453
3140.00 89.7156
3140.05 78.5481
3140.10 54.7479
3140.14 42.2283
3140.17 33.7151
3140.20 27.6238
3140.24 23.4359
3140.31 18.0319
3140.38 14.8883
3140.45 12.9000
3140.51 11.5579
3140.65 9.90008
3140.79 8.93995
3140.93 8.32507
3141.20 7.59600
3141.48 7.18484
3141.76 6.92331
3142.31 6.61094
3142.86 6.42996
3143.41 6.30991
3144.52 6.15284
3145.62 6.03962
3146.72 5.92841
3147.27 5.86062
3147.83 5.77897
3148.10 5.74401
3148.38 5.77685
3148.52 5.91529
3148.65 6.40886
3148.72 7.07688
3148.79 8.60835
3148.83 10.1631
3148.86 12.7666
3148.90 17.4765
3148.93 26.3626
3148.97 42.0261
3149.00 54.9411
3149.04 48.6257
3149.07 34.6621
3149.11 24.3362
3149.15 18.3808
3149.19 14.9276
3149.23 12.7897
3149.30 10.4043
3149.38 9.16688
3149.54 7.96090
3149.69 7.39436
3150.01 6.86970
3150.32 6.62727
3150.94 6.39862
3151.57 6.28800
3152.81 6.17556
3154.06 6.11548
3156.56 6.04702
3159.05 6.00533
3164.04 5.95089
3169.03 5.91229
3179.01 5.85201
3188.99 5.79888
3198.97 5.74475
3208.95 5.68159
3213.94 5.64093
3216.43 5.61556
3218.93 5.58391
3221.42 5.54056
3222.67 5.51075
3223.92 5.47106
3225.16 5.41381
3226.41 5.32219
3227.03 5.25396
3227.66 5.17551
3227.97 5.16285
3228.13 5.19341
3228.28 5.29704
3228.44 5.59413
3228.52 5.91706
3228.59 6.49995
3228.67 7.62388
3228.75 10.0125
3228.79 12.2366
3228.83 15.8324
3228.87 21.8728
3228.90 32.1332
3228.93 41.0279
3228.95 52.2318
3229.00 69.6722
3229.05 61.0984
3229.10 43.1529
3229.13 34.4100
3229.15 28.2273
3229.21 20.4644
3229.27 16.1422
3229.33 13.5344
3229.39 11.8216
3229.45 10.6699
3229.56 9.22485
3229.68 8.37095
3229.79 7.82567
3230.03 7.17354
3230.49 6.57222
3230.96 6.29556
3231.43 6.13802
3231.89 6.03637
3232.82 5.91229
3233.75 5.83801
3234.69 5.78748
3236.55 5.72008
3240.27 5.63714
3244.00 5.57463
3247.73 5.51217
3251.45 5.43376
3253.32 5.37825
3255.18 5.29516
3256.11 5.23174
3257.04 5.14059
3257.51 5.08453
3257.97 5.05488
3258.21 5.11425
3258.32 5.21408
3258.44 5.43108
3258.56 5.93175
3258.61 6.40985
3258.67 7.19976
3258.73 8.57893
3258.79 11.1653
3258.85 16.4485
3258.88 21.0923
3258.90 27.9921
3258.93 35.7874
3258.95 45.2738
3259.00 59.9723
3259.05 52.8194
3259.10 37.4168
3259.13 29.9824
3259.16 24.4476
3259.22 17.6734
3259.28 14.0049
3259.34 11.8593
3259.40 10.4595
3259.47 9.50812
3259.59 8.33267
3259.71 7.64135
3259.84 7.20035
3260.08 6.67430
3260.58 6.18361
3261.07 5.95413
3262.06 5.72959
3263.04 5.61156
3265.02 5.46660
3266.99 5.35047
3268.96 5.21916
3269.95 5.13507
3270.94 5.02753
3271.92 4.88108
3272.42 4.78665
3272.91 4.67720
3273.41 4.56856
3273.65 4.54056
3273.90 4.58411
3274.15 4.85058
3274.27 5.20469
3274.39 5.91661
3274.52 7.45398
3274.58 8.87380
3274.64 11.1036
3274.70 14.9059
3274.76 21.5664
3274.79 26.9327
3274.82 34.4701
3274.85 45.1638
3274.88 59.6885
3274.91 78.4997
3274.94 101.297
3275.00 136.613
3275.03 134.245
3275.06 119.475
3275.12 82.4089
3275.16 63.4601
3275.19 50.3152
3275.27 34.3063
3275.35 25.5801
3275.42 20.5002
3275.50 17.2138
3275.58 15.0108
3275.73 12.2526
3275.88 10.6468
3276.03 9.61508
3276.34 8.39119
3276.65 7.69623
3276.95 7.25333
3277.56 6.72338
3278.17 6.41413
3278.79 6.20797
3280.01 5.93478
3281.23 5.73486
3282.45 5.54016
3283.06 5.42895
3283.68 5.32138
3283.98 5.31690
3284.13 5.37108
3284.29 5.52913
3284.44 5.95488
3284.52 6.40534
3284.59 7.18733
3284.67 8.67227
3284.75 11.6719
3284.78 14.3598
3284.82 18.5527
3284.86 25.2898
3284.90 36.3446
3284.92 46.9259
3284.95 59.9613
3285.00 79.7292
3285.05 70.1884
3285.10 49.1679
3285.14 38.2501
3285.17 30.4775
3285.21 25.0991
3285.25 21.3057
3285.32 16.5129
3285.39 13.7350
3285.46 11.9815
3285.53 10.7991
3285.68 9.33896
3285.82 8.49251
3285.97 7.94937
3286.25 7.30282
3286.54 6.93568
3286.83 6.70034
3287.41 6.41649
3287.98 6.24957
3288.56 6.13835
3289.71 5.99616
3290.86 5.90573
3292.01 5.84090
3294.31 5.74963
3296.62 5.68435
3298.92 5.63241
3303.52 5.54863
3312.73 5.41056
3321.94 5.27337
3331.16 5.10863
3335.76 5.00415
3340.37 4.87262
3344.97 4.69315
3347.27 4.57182
3349.58 4.41405
3350.73 4.31443
3351.88 4.19505
3353.03 4.04895
3354.18 3.86767
3354.76 3.76195
3355.33 3.64838
3355.91 3.53695
3356.48 3.46257
3357.06 3.55097
3357.35 3.78387
3357.64 4.35101
3357.92 5.74508
3358.07 7.14296
3358.21 9.52741
3358.36 13.8438
3358.43 17.3270
3358.50 22.3119
3358.57 29.6386
3358.64 40.7053
3358.72 57.7967
3358.79 83.7905
3358.89 144.383
3359.00 195.844
3359.05 192.394
3359.11 171.165
3359.21 117.307
3359.29 89.3510
3359.36 69.6072
3359.43 55.7953
3359.51 45.9663
3359.65 33.4299
3359.80 26.0965
3359.94 21.4402
3360.09 18.2879
3360.38 14.3915
3360.67 12.1167
3360.97 10.6554
3361.55 8.91693
3362.13 7.92720
3362.72 7.29303
3363.30 6.85000
3363.88 6.52230
3365.05 6.06227
3366.22 5.74547
3368.55 5.30342
3370.88 4.95600
3372.05 4.78445
3373.22 4.59764
3374.38 4.37642
3374.97 4.24342
3375.55 4.08948
3376.14 3.91580
3376.43 3.83354
3376.72 3.78606
3377.01 3.87174
3377.16 4.06193
3377.30 4.50368
3377.45 5.55866
3377.52 6.59504
3377.59 8.33422
3377.67 11.4218
3377.70 13.9114
3377.74 17.3276
3377.78 22.4022
3377.81 29.7031
3377.85 40.6377
3377.88 57.0035
3377.91 75.2376
3377.94 97.3559
3378.00 131.715
3378.03 129.501
3378.06 115.244
3378.12 79.3558
3378.18 50.8632
3378.25 35.5089
3378.32 26.6459
3378.39 21.3065
3378.45 17.7622
3378.52 15.3508
3378.66 12.2803
3378.79 10.4664
3378.93 9.28970
3379.20 7.87652
3379.47 7.06770
3379.74 6.54586
3380.28 5.90916
3380.82 5.52552
3381.35 5.26117
3382.43 4.89804
3384.59 4.42263
3386.75 4.06586
3387.83 3.92460
3388.91 3.83597
3389.99 3.86566
3391.07 4.18550
3392.15 5.29652
3392.69 6.58465
3393.23 8.98378
3393.77 13.7617
3394.04 17.9206
3394.30 24.2343
3394.57 34.2764
3394.84 50.9316
3395.11 79.8129
3395.38 130.655
3395.69 227.000
3396.00 308.732
3396.31 269.404
3396.62 184.057
3396.84 137.384
3397.06 105.337
3397.29 83.2858
3397.51 67.9232
3397.96 48.6116
3398.40 37.5154
3398.85 30.5212
3399.30 25.8258
3400.19 20.0297
3401.08 16.6697
3401.98 14.5161
3403.76 11.9471
3405.55 10.4747
3407.34 9.50436
3408.23 9.11701
3409.12 8.76066
3409.57 8.58881
3410.02 8.44295
3410.24 8.42593
3410.46 8.60050
3410.58 8.94330
3410.69 9.86270
3410.74 10.8974
3410.80 12.8730
3410.85 16.9849
3410.88 20.6519
3410.91 26.0169
3410.96 39.5638
3411.00 50.9469
3411.05 45.5262
3411.09 33.4581
3411.12 27.6734
3411.15 23.3912
3411.21 18.1182
3411.26 15.2409
3411.32 13.5250
3411.44 11.6627
3411.55 10.7104
3411.79 9.77338
3412.02 9.31523
3412.48 8.84641
3412.94 8.58883
3413.87 8.27443
3414.80 8.06161
3416.65 7.75138
3418.50 7.51315
3420.35 7.30966
3422.20 7.11571
3423.13 7.01070
3424.06 6.88805
3424.52 6.81829
3424.98 6.76356
3425.21 6.78556
3425.44 6.98562
3425.56 7.32642
3425.68 8.22693
3425.73 9.22924
3425.79 11.1449
3425.85 15.1520
3425.88 18.7462
3425.91 24.0127
3425.95 37.2335
3426.00 48.3313
3426.05 43.0673
3426.09 31.3278
3426.13 24.3759
3426.17 19.7321
3426.21 16.6924
3426.24 14.6839
3426.32 12.2013
3426.39 10.8109
3426.54 9.37716
3426.69 8.67467
3426.99 8.00648
3427.29 7.69065
3427.89 7.38423
3428.49 7.22798
3429.69 7.05412
3430.89 6.94693
3433.30 6.80028
3435.70 6.69163
3440.50 6.52401
3445.30 6.39148
3454.90 6.17933
3464.51 6.00065
3474.11 5.82947
3483.71 5.64323
3493.31 5.40819
3498.12 5.24873
3500.52 5.14300
3501.72 5.07374
3502.32 5.05166
3502.62 5.15648
3502.77 5.53651
3502.84 6.22533
3502.88 6.99995
3502.92 8.40350
3502.96 10.9450
3503.00 13.1763
3503.04 12.1110
3503.08 9.84870
3503.12 8.25290
3503.17 7.29149
3503.25 6.32816
3503.41 5.66054
3503.74 5.30613
3504.39 5.12603
3505.70 4.99475
3508.31 4.80915
3510.93 4.60648
3513.54 4.36111
3516.16 4.06743
3517.46 3.91783
3518.77 3.81068
3520.08 3.88070
3520.73 4.10739
3521.39 4.64821
3522.04 5.88867
3522.69 8.86231
3523.02 11.8530
3523.35 17.0037
3523.67 26.4735
3523.84 34.1898
3524.00 45.3176
3524.24 71.8259
3524.48 119.449
3524.74 207.504
3525.00 282.392
3525.26 246.913
3525.53 168.901
3525.79 114.331
3526.05 81.7206
3526.31 61.7702
3526.56 49.0264
3526.82 40.3865
3527.08 34.3068
3527.60 26.4639
3528.12 21.7379
3528.64 18.6514
3529.68 14.9290
3530.71 12.8091
3531.75 11.4617
3532.79 10.5362
3533.82 9.86442
3535.90 8.95775
3537.97 8.37629
3540.05 7.97148
3542.12 7.67274
3546.27 7.25844
3550.42 6.98056
3558.72 6.61600
3567.01 6.36236
3575.31 6.13487
3579.46 6.00497
3583.61 5.83164
3585.68 5.70412
3586.72 5.61836
3587.76 5.50637
3588.79 5.34925
3589.31 5.24274
3589.83 5.10856
3590.35 4.94079
3590.61 4.85058
3590.87 4.77923
3591.13 4.80872
3591.26 4.94710
3591.39 5.30839
3591.52 6.23638
3591.58 7.18686
3591.65 8.79752
3591.71 11.7861
3591.78 17.7359
3591.81 23.0458
3591.84 30.9039
3591.87 43.1109
3591.91 62.8093
3591.93 82.3722
3591.95 107.087
3592.00 144.911
3592.02 142.474
3592.05 127.272
3592.09 87.9906
3592.13 67.2740
3592.16 52.6772
3592.19 42.5542
3592.23 35.5840
3592.29 26.5445
3592.36 21.2611
3592.42 17.8647
3592.49 15.6054
3592.62 12.8012
3592.75 11.1579
3592.88 10.1100
3593.14 8.85965
3593.40 8.14685
3593.66 7.69239
3594.18 7.14373
3594.70 6.82194
3595.22 6.60737
3596.26 6.32761
3597.31 6.13903
3598.35 5.98958
3600.43 5.72577
3602.52 5.43788
3603.56 5.26292
3604.60 5.05703
3605.65 4.82814
3606.17 4.73154
3606.69 4.71074
3607.21 4.95839
3607.47 5.36790
3607.73 6.25608
3607.99 8.27662
3608.12 10.1976
3608.25 13.3473
3608.38 18.8436
3608.51 28.9399
3608.58 37.2086
3608.64 49.1043
3608.71 66.4540
3608.77 91.6893
3608.89 158.116
3609.00 215.092
3609.11 188.525
3609.23 129.692
3609.34 87.5344
3609.46 62.6226
3609.57 47.6225
3609.69 38.0833
3609.80 31.6785
3609.92 27.1724
3610.15 21.4049
3610.38 17.9304
3610.60 15.6700
3611.06 12.9421
3611.52 11.3901
3611.98 10.4022
3612.44 9.72332
3612.90 9.23036
3613.82 8.56464
3614.74 8.13824
3616.57 7.62384
3618.41 7.32332
3620.25 7.12357
3622.08 6.97384
3623.00 6.90804
3623.46 6.90364
3623.69 7.02498
3623.80 7.36243
3623.86 7.86245
3623.92 9.09374
3623.96 10.8113
3624.00 12.2587
3624.04 11.5865
3624.08 10.0638
3624.14 8.65738
3624.20 7.99346
3624.32 7.44695
3624.57 7.12756
3625.05 6.96518
3626.01 6.86796
3627.94 6.78138
3631.80 6.68684
3639.51 6.62111
3647.22 6.69575
3651.08 6.81501
3653.01 6.90770
3653.97 6.96315
3654.46 6.99692
3654.70 7.04319
3654.82 7.15456
3654.88 7.35267
3654.94 8.00383
3655.00 9.38473
3655.06 8.43870
3655.14 7.62988
3655.21 7.37745
3655.36 7.22751
3655.65 7.17553
3656.24 7.19890
3657.43 7.31860
3659.79 7.68914
3662.15 8.30363
3664.51 9.39278
3666.88 11.5695
3668.06 13.5643
3669.24 16.8643
3670.42 22.8841
3671.01 27.9216
3671.60 35.4979
3672.19 47.5938
3672.78 68.2054
3673.37 106.258
3673.96 179.727
3674.48 284.494
3675.00 354.532
3675.52 284.388
3676.04 179.766
3676.38 131.878
3676.72 99.0491
3677.39 61.0053
3678.07 41.6360
3678.75 30.7543
3679.43 24.1091
3680.10 19.7921
3681.46 14.7249
3682.81 11.9856
3684.17 10.3437
3686.88 8.55391
3689.58 7.64720
3692.29 7.12097
3695.00 6.78500
3697.71 6.55446
3703.13 6.25913
3708.55 6.07374
3713.97 5.93934
3719.38 5.82926
3730.22 5.62690
3735.64 5.51304
3741.05 5.37127
3746.47 5.17090
3749.18 5.02865
3751.89 4.83533
3753.24 4.70910
3754.60 4.55429
3755.95 4.36069
3757.31 4.11697
3757.99 3.97435
3758.66 3.82285
3759.34 3.67970
3760.02 3.60280
3760.69 3.79522
3761.03 4.19428
3761.37 5.11897
3761.71 7.31630
3761.88 9.46400
3762.05 13.0561
3762.22 19.4509
3762.30 24.5134
3762.39 31.5373
3762.47 41.7465
3762.56 56.5594
3762.64 78.9473
3762.72 111.946
3762.86 194.923
3763.00 266.343
3763.14 233.675
3763.28 160.409
3763.38 120.588
3763.47 92.9407
3763.57 73.8984
3763.67 60.5133
3763.87 43.6524
3764.07 33.9004
3764.27 27.7494
3764.46 23.6019
3764.86 18.4789
3765.26 15.5079
3765.65 13.6017
3766.05 12.2888
3766.44 11.3380
3767.24 10.0563
3768.03 9.24154
3768.82 8.67965
3769.61 8.27076
3771.19 7.71532
3772.78 7.35658
3774.36 7.10538
3775.94 6.91926
3779.11 6.66047
3782.28 6.48751
3788.61 6.26588
3794.94 6.12458
3801.27 6.02184
3807.61 5.93805
3810.77 5.89509
3812.35 5.86459
3813.15 5.84075
3813.54 5.84622
3813.74 5.96035
3813.84 6.30172
3813.89 6.85406
3813.94 8.38050
3813.97 10.3553
3814.00 12.0248
3814.03 11.2705
3814.06 9.52987
3814.12 7.64584
3814.18 6.90797
3814.30 6.37839
3814.53 6.09880
3814.99 5.97129
3815.92 5.91045
3817.78 5.87147
3821.50 5.83206
3825.22 5.80455
3828.93 5.78636
3832.65 5.78572
3834.51 5.80064
3836.37 5.84020
3838.23 5.94066
3839.16 6.04669
3840.09 6.24257
3840.55 6.40743
3841.02 6.65685
3841.48 7.05830
3841.95 7.76058
3842.41 9.16137
3842.65 10.4512
3842.88 12.5842
3843.11 16.5171
3843.23 19.8203
3843.34 24.8341
3843.46 32.9095
3843.57 46.9067
3843.69 73.2954
3843.75 95.1358
3843.81 125.950
3843.90 198.321
3844.00 246.663
3844.10 198.423
3844.19 126.081
3844.27 88.4500
3844.34 64.2678
3844.42 48.6594
3844.49 38.2754
3844.64 26.0240
3844.79 19.4692
3844.93 15.5991
3845.08 13.1379
3845.38 10.3135
3845.67 8.82082
3845.97 7.93874
3846.27 7.37469
3846.56 6.99326
3847.15 6.52155
3847.74 6.25259
3848.93 5.97004
3850.11 5.82981
3851.29 5.74782
3853.66 5.65554
3856.03 5.60212
3858.39 5.56420
3863.12 5.50661
3872.59 5.41112
3882.05 5.31432
3891.52 5.20292
3900.98 5.06190
3905.72 4.97085
3910.45 4.85350
3912.81 4.77712
3915.18 4.67768
3916.36 4.61197
3917.55 4.52512
3918.14 4.46805
3918.73 4.39982
3919.02 4.36925
3919.32 4.38174
3919.47 4.46276
3919.62 4.75167
3919.69 5.13137
3919.76 5.96434
3919.84 8.05586
3919.88 10.2758
3919.91 14.0733
3919.96 21.6303
3920.00 28.0959
3920.04 25.1983
3920.09 18.5408
3920.12 15.4323
3920.14 13.1041
3920.20 10.2095
3920.25 8.57680
3920.30 7.58174
3920.41 6.48231
3920.51 5.91293
3920.73 5.34928
3920.94 5.07669
3921.36 4.80288
3921.79 4.65393
3922.64 4.45847
3923.49 4.29030
3924.33 4.10113
3924.76 3.98974
3925.18 3.86834
3925.61 3.76061
3925.82 3.74549
3926.03 3.82147
3926.25 4.16416
3926.35 4.58783
3926.46 5.40446
3926.56 7.07045
3926.67 10.8161
3926.72 14.4615
3926.78 20.5859
3926.80 25.2947
3926.83 31.3672
3926.86 39.8558
3926.88 51.0255
3926.91 67.3973
3926.94 87.6985
3927.00 119.111
3927.03 117.393
3927.06 105.055
3927.12 72.7696
3927.16 57.3877
3927.19 46.2329
3927.26 32.0028
3927.34 24.0871
3927.41 19.3117
3927.48 16.2165
3927.56 14.0905
3927.70 11.4191
3927.85 9.84612
3927.99 8.82726
3928.29 7.60824
3928.58 6.90911
3928.87 6.46107
3929.45 5.91701
3930.03 5.59550
3930.62 5.37845
3931.78 5.09090
3932.95 4.89255
3934.12 4.73212
3936.45 4.44336
3938.78 4.12424
3939.95 3.92833
3941.11 3.69125
3942.28 3.40351
3942.86 3.24999
3943.45 3.12675
3944.03 3.16252
3944.32 3.37353
3944.61 3.93404
3944.90 5.36771
3945.05 6.82807
3945.19 9.31375
3945.34 13.8514
3945.41 17.5141
3945.49 22.7496
3945.56 30.4255
3945.63 41.9739
3945.71 59.7140
3945.78 86.5474
3945.89 151.479
3946.00 207.167
3946.11 181.774
3946.22 125.098
3946.34 82.6697
3946.46 58.3371
3946.58 43.8888
3946.70 34.7826
3946.82 28.6606
3946.93 24.4107
3947.17 18.9653
3947.41 15.6938
3947.64 13.5658
3948.12 10.9931
3948.59 9.52176
3949.06 8.57823
3950.01 7.44340
3950.95 6.78231
3951.90 6.34371
3953.79 5.77924
3955.68 5.40722
3957.58 5.11942
3961.36 4.63279
3963.25 4.39243
3965.14 4.13561
3967.03 3.85195
3968.93 3.53981
3969.87 3.38191
3970.82 3.24242
3971.76 3.16635
3972.71 3.27587
3973.66 3.94282
3974.13 4.81889
3974.60 6.55279
3974.84 8.02106
3975.08 10.1701
3975.31 13.4282
3975.55 18.4926
3975.79 26.7702
3976.02 40.8578
3976.26 66.1647
3976.49 112.836
3976.75 197.757
3977.00 270.947
3977.25 238.035
3977.51 163.606
3977.80 104.320
3978.10 71.6196
3978.39 52.9251
3978.68 41.4709
3978.98 33.9230
3979.27 28.7080
3979.86 22.0784
3980.44 18.1331
3981.03 15.5520
3982.20 12.3955
3983.38 10.4945
3984.55 9.11262
3985.14 8.48950
3985.73 7.89519
3986.02 7.69538
3986.17 7.71012
3986.31 7.94281
3986.46 8.74749
3986.54 9.66532
3986.61 11.3101
3986.68 14.5074
3986.76 21.0699
3986.79 27.1027
3986.83 36.3014
3986.87 51.5655
3986.90 75.6833
3986.95 129.057
3987.00 174.158
3987.05 153.299
3987.10 107.220
3987.14 80.5249
3987.18 62.3987
3987.21 50.1915
3987.25 41.7585
3987.33 31.3137
3987.40 25.3590
3987.48 21.6295
3987.56 19.1212
3987.71 16.0332
3987.86 14.2130
3988.01 13.0365
3988.31 11.5955
3988.62 10.7415
3988.92 10.1717
3989.53 9.43676
3990.13 8.96396
3990.74 8.62242
3991.95 8.13931
3994.38 7.53527
3996.80 7.14291
4001.66 6.62441
4006.51 6.26826
4011.36 5.98366
4016.21 5.72639
4021.06 5.45671
4022.28 5.37754
4023.49 5.28436
4024.10 5.22787
4024.70 5.16205
4025.01 5.13017
4025.31 5.12675
4025.46 5.17793
4025.61 5.37999
4025.69 5.65821
4025.76 6.28767
4025.84 7.93100
4025.88 9.73889
4025.91 12.8647
4025.96 18.8855
4026.00 24.1102
4026.04 21.7876
4026.09 16.4882
4026.12 13.7459
4026.14 11.7944
4026.20 9.43592
4026.26 8.17186
4026.32 7.43608
4026.43 6.63250
4026.55 6.22310
4026.78 5.82191
4027.01 5.62654
4027.47 5.42908
4027.93 5.32143
4029.77 5.08394
4031.61 4.89849
4033.45 4.69509
4035.30 4.43879
4036.22 4.27563
4037.14 4.07691
4038.06 3.83564
4038.52 3.70651
4038.98 3.60146
4039.44 3.62289
4039.67 3.78682
4039.90 4.22912
4040.13 5.36693
4040.25 6.52103
4040.36 8.49835
4040.48 12.0775
4040.54 14.9866
4040.59 19.0603
4040.65 25.1169
4040.71 34.0286
4040.77 47.8853
4040.82 68.7008
4040.91 119.095
4041.00 162.819
4041.09 143.448
4041.18 99.1463
4041.28 63.2001
4041.39 43.8085
4041.50 32.7126
4041.60 26.0011
4041.71 21.5714
4041.81 18.5399
4042.02 14.6873
4042.23 12.4064
4042.44 10.9235
4042.87 9.14120
4043.29 8.11564
4043.71 7.45344
4044.55 6.64585
4045.40 6.16158
4046.24 5.82963
4047.93 5.37737
4049.61 5.05373
4051.30 4.78466
4054.67 4.30504
4056.36 4.07745
4058.05 3.86627
4059.74 3.70794
4061.42 3.71337
4063.11 4.24034
4063.95 5.03260
4064.80 6.68541
4065.64 10.2918
4066.06 13.6314
4066.48 18.9547
4066.91 27.8780
4067.33 43.6656
4067.75 73.3576
4067.96 97.5570
4068.17 131.110
4068.59 229.879
4069.00 315.669
4069.42 277.542
4069.83 190.764
4070.12 145.192
4070.40 112.979
4070.69 90.4295
4070.97 74.4164
4071.54 53.9051
4072.11 41.8682
4072.68 34.2010
4073.25 28.9946
4074.38 22.5167
4075.52 18.7271
4076.66 16.2789
4077.80 14.5688
4078.37 13.8938
4078.65 13.6585
4078.80 13.8045
4078.87 14.3616
4078.90 15.1482
4078.94 16.7829
4078.97 19.4804
4079.00 21.7307
4079.03 20.6381
4079.06 18.2934
4079.12 15.6629
4079.18 14.6054
4079.30 13.7730
4079.53 13.1954
4080.00 12.6645
4080.93 11.9714
4082.80 10.9908
4086.53 9.75977
4090.27 9.00874
4094.00 8.49995
4097.73 8.12966
4101.47 7.84421
4105.20 7.60790
4107.07 7.48967
4108.00 7.41603
4108.47 7.38958
4108.70 7.50425
4108.82 7.94634
4108.88 8.76333
4108.91 9.67860
4108.94 11.3789
4108.97 14.4631
4109.00 17.1848
4109.03 15.9805
4109.06 13.2600
4109.10 11.2014
4109.13 9.99804
4109.20 8.85519
4109.34 8.10055
4109.62 7.71645
4110.18 7.53009
4111.30 7.41390
4113.54 7.29623
4118.02 7.12803
4126.98 6.85732
4131.46 6.72451
4133.70 6.64993
4135.94 6.56182
4138.18 6.44542
4139.30 6.36657
4140.42 6.26197
4141.54 6.11135
4142.10 6.00656
4142.66 5.87060
4143.22 5.69278
4143.50 5.58959
4143.78 5.49311
4144.06 5.46941
4144.20 5.55706
4144.34 5.83651
4144.48 6.60986
4144.55 7.42955
4144.62 8.87489
4144.69 11.5748
4144.76 17.0490
4144.80 21.9108
4144.83 29.4147
4144.87 41.2962
4144.90 59.9261
4144.95 101.878
4145.00 138.931
4145.03 137.184
4145.05 122.626
4145.10 85.7094
4145.14 62.3622
4145.18 47.4078
4145.23 37.4929
4145.27 31.0051
4145.35 23.0990
4145.44 18.7187
4145.52 16.0253
4145.61 14.2374
4145.78 12.0658
4145.95 10.8080
4146.12 10.0074
4146.46 9.05114
4146.80 8.50777
4147.13 8.15966
4147.81 7.74087
4148.49 7.49734
4149.17 7.33765
4150.53 7.13819
4151.88 7.01577
4153.24 6.93089
4155.95 6.81624
4158.66 6.73811
4161.38 6.67847
4166.80 6.58800
4177.65 6.45963
4188.50 6.36243
4210.21 6.20352
4215.63 6.16367
4221.06 6.11689
4223.77 6.08599
4226.48 6.04064
4227.84 6.00479
4229.20 5.94700
4229.87 5.90135
4230.55 5.83746
4230.89 5.80407
4231.23 5.81171
4231.40 5.89813
4231.57 6.22944
4231.65 6.68896
4231.74 7.74391
4231.78 8.80324
4231.82 10.5653
4231.87 13.6972
4231.91 19.4730
4231.95 30.2069
4232.00 39.4290
4232.05 35.4538
4232.09 26.0552
4232.12 21.3209
4232.15 17.8608
4232.22 13.7127
4232.28 11.4373
4232.34 10.1130
4232.46 8.67284
4232.58 7.94926
4232.83 7.24562
4233.07 6.91701
4233.57 6.60989
4234.06 6.46669
4235.04 6.32982
4236.02 6.26284
4237.98 6.19377
4239.94 6.15554
4243.87 6.10859
4247.80 6.07593
4255.65 6.02414
4263.50 5.97753
4271.35 5.92920
4279.20 5.87041
4283.13 5.82974
4287.05 5.76753
4289.01 5.71644
4290.98 5.63031
4291.96 5.55773
4292.94 5.44296
4293.43 5.36207
4293.92 5.28656
4294.17 5.30732
4294.41 5.56833
4294.53 6.03632
4294.66 7.28824
4294.72 8.72113
4294.78 11.4319
4294.84 17.0895
4294.87 22.2483
4294.90 29.9441
4294.93 38.3926
4294.95 49.0168
4295.00 65.9784
4295.05 58.6302
4295.10 41.8810
4295.15 30.4486
4295.19 23.4393
4295.24 19.0349
4295.28 16.1456
4295.38 12.7149
4295.47 10.8707
4295.56 9.73604
4295.65 8.99568
4295.84 8.09094
4296.21 7.24047
4296.58 6.84546
4297.32 6.47590
4298.06 6.30106
4299.54 6.12945
4301.02 6.04013
4303.98 5.92438
4305.46 5.85195
4306.20 5.79347
4306.57 5.82578
4306.66 5.91693
4306.75 6.18693
4306.84 7.16762
4306.89 8.65247
4306.93 12.4271
4306.97 17.5600
4307.00 22.1515
4307.03 20.1600
4307.07 15.6585
4307.10 12.1994
4307.14 10.2421
4307.21 8.35058
4307.35 7.08133
4307.63 6.43776
4308.19 6.14872
4309.31 6.01380
4311.55 5.93673
4316.03 5.87346
4325.00 5.79415
4330.97 5.74187
4333.96 5.71096
4336.95 5.67286
4339.94 5.62049
4341.43 5.58402
4342.92 5.53471
4344.42 5.46183
4345.91 5.33955
4346.66 5.24093
4347.40 5.10228
4347.78 5.03038
4348.15 5.05209
4348.34 5.24834
4348.43 5.49910
4348.52 5.98946
4348.62 7.01575
4348.71 9.32566
4348.76 11.6150
4348.80 15.3881
4348.85 22.1965
4348.87 27.3462
4348.90 34.4971
4348.92 44.9310
4348.95 57.5875
4349.00 77.7083
4349.05 69.1145
4349.10 48.9203
4349.14 37.5465
4349.18 29.8717
4349.22 24.4865
4349.26 20.8211
4349.34 16.1587
4349.41 13.4743
4349.49 11.7845
4349.57 10.6457
4349.72 9.24485
4349.87 8.42424
4350.03 7.89941
4350.33 7.27005
4350.64 6.91184
4350.95 6.68231
4351.56 6.40613
4352.18 6.24506
4352.79 6.13856
4354.02 6.00119
4356.48 5.82153
4357.09 5.77121
4357.70 5.70583
4358.01 5.66549
4358.32 5.63403
4358.47 5.65237
4358.63 5.79447
4358.70 6.03148
4358.78 6.64473
4358.82 7.32296
4358.86 8.55045
4358.89 10.9868
4358.93 16.0940
4358.97 24.2536
4359.00 31.4198
4359.03 28.3543
4359.07 21.1976
4359.09 17.4727
4359.11 14.9182
4359.16 11.7173
4359.20 9.98562
4359.25 8.95830
4359.34 7.84924
4359.43 7.29128
4359.61 6.74629
4359.79 6.48858
4360.14 6.24504
4360.50 6.12939
4361.22 6.01526
4361.94 5.95648
4363.37 5.89166
4364.80 5.85318
4367.67 5.80380
4370.53 5.76958
4376.27 5.71830
4382.00 5.67591
4387.73 5.63512
4393.47 5.58929
4396.33 5.55975
4399.20 5.51706
4400.63 5.48333
4402.06 5.42757
4402.78 5.38089
4403.50 5.30657
4403.86 5.25274
4404.21 5.19728
4404.39 5.20002
4404.57 5.33964
4404.66 5.60865
4404.75 6.34972
4404.80 7.20982
4404.84 8.89843
4404.89 12.5405
4404.91 15.7984
4404.93 20.8275
4404.97 33.0084
4405.00 43.8035
4405.04 39.1940
4405.07 28.5382
4405.11 20.3221
4405.15 15.5711
4405.19 12.8106
4405.23 11.0968
4405.30 9.17613
4405.38 8.18283
4405.54 7.19562
4405.69 6.72630
4406.00 6.28635
4406.31 6.08249
4406.93 5.89011
4407.55 5.79802
4408.80 5.70672
4410.04 5.65922
4412.52 5.60527
4415.00 5.57033
4419.97 5.51124
4422.45 5.46794
4423.69 5.42255
4424.32 5.38759
4424.63 5.44483
4424.78 5.79452
4424.86 6.62822
4424.90 7.76565
4424.94 10.2490
4424.97 14.0869
4425.00 17.4025
4425.03 16.0041
4425.06 12.6540
4425.12 9.28431
4425.17 7.81031
4425.27 6.65923
4425.48 6.02063
4425.90 5.72710
4426.74 5.59531
4428.42 5.52791
4431.78 5.47831
4438.49 5.41305
4441.84 5.37756
4445.20 5.33039
4446.88 5.29549
4448.55 5.24065
4449.39 5.19663
4450.23 5.12938
4450.65 5.08378
4451.07 5.04547
4451.28 5.06483
4451.49 5.23101
4451.60 5.51391
4451.70 6.25597
4451.75 7.08143
4451.81 8.60022
4451.86 11.6600
4451.91 18.2680
4451.96 28.6906
4452.00 37.7116
4452.05 33.9187
4452.09 24.8085
4452.14 18.4363
4452.18 14.5313
4452.23 12.1460
4452.27 10.6133
4452.36 8.84176
4452.45 7.90031
4452.63 6.94939
4452.81 6.49205
4453.17 6.06178
4453.52 5.86103
4454.24 5.67132
4454.96 5.58020
4456.39 5.48870
4457.82 5.43994
4460.69 5.38250
4463.55 5.34398
4469.28 5.28372
4475.01 5.22907
4480.74 5.17269
4486.47 5.10858
4489.34 5.06952
4492.20 5.01831
4493.63 4.98180
4495.07 4.92631
4495.78 4.88236
4496.50 4.81436
4496.86 4.76555
4497.22 4.71297
4497.39 4.70965
4497.57 4.81564
4497.66 5.03046
4497.75 5.63358
4497.80 6.34134
4497.84 7.74333
4497.89 10.8016
4497.91 13.5650
4497.93 17.9380
4497.97 28.3811
4498.00 37.4205
4498.03 33.6420
4498.07 24.5165
4498.09 19.9078
4498.11 16.6521
4498.16 12.5577
4498.20 10.3359
4498.25 9.01568
4498.34 7.58883
4498.43 6.87066
4498.61 6.16963
4498.79 5.83897
4499.14 5.52890
4499.50 5.38286
4500.22 5.24163
4500.93 5.17062
4502.37 5.09383
4503.80 5.04780
4506.66 4.98397
4509.53 4.93231
4520.99 4.72901
4526.71 4.60274
4532.44 4.43437
4535.31 4.31657
4536.74 4.24064
4538.17 4.14461
4539.60 4.01317
4540.32 3.92424
4541.04 3.80904
4541.75 3.65227
4542.47 3.43481
4542.83 3.31759
4543.18 3.31834
4543.36 3.56215
4543.45 3.89148
4543.54 4.53972
4543.63 5.90998
4543.72 9.01238
4543.77 12.0990
4543.81 17.3428
4543.86 26.6845
4543.88 33.7592
4543.90 43.4639
4543.93 57.4272
4543.95 74.8747
4544.00 102.854
4544.03 101.774
4544.05 91.0830
4544.10 63.6608
4544.15 43.9999
4544.20 32.0615
4544.25 24.7971
4544.30 20.2166
4544.35 17.0474
4544.40 14.8461
4544.50 11.9610
4544.60 10.2015
4544.70 9.05719
4544.89 7.66690
4545.09 6.86345
4545.29 6.34955
4545.69 5.72896
4546.08 5.36803
4546.48 5.12962
4547.28 4.82602
4548.07 4.63025
4548.86 4.48316
4550.45 4.24740
4552.04 4.02352
4552.83 3.90021
4553.63 3.76318
4554.42 3.61756
4554.82 3.55611
4555.21 3.53648
4555.61 3.65843
4555.81 3.86647
4556.01 4.31391
4556.21 5.31291
4556.31 6.24052
4556.41 7.72604
4556.50 10.2105
4556.60 14.5928
4556.65 18.0689
4556.70 22.7839
4556.75 29.4972
4556.80 38.6241
4556.85 51.1156
4556.90 66.4095
4557.00 90.5568
4557.05 89.6185
4557.10 80.2762
4557.20 56.3006
4557.28 41.9276
4557.36 32.4004
4557.44 25.9482
4557.51 21.5721
4557.67 16.1397
4557.83 13.0721
4557.98 11.1414
4558.14 9.85266
4558.45 8.25500
4558.77 7.32134
4559.08 6.71907
4559.71 5.99019
4560.33 5.56428
4560.96 5.28315
4562.21 4.92555
4563.46 4.69750
4564.72 4.53051
4567.22 4.28237
4572.23 3.91386
4577.25 3.60964
4582.26 3.42220
4584.76 3.48011
4587.27 3.84111
4589.77 5.00883
4591.03 6.31671
4592.28 8.68858
4593.53 13.2378
4594.16 17.0655
4594.79 22.7061
4595.41 31.2976
4596.04 44.7666
4596.66 66.5177
4597.29 101.891
4598.15 179.377
4599.00 247.578
4599.86 219.177
4600.71 151.679
4601.64 100.248
4602.56 70.6299
4603.49 53.1143
4604.41 42.1233
4605.34 34.7909
4606.26 29.6607
4608.11 23.0905
4609.96 19.1535
4611.81 16.5795
4615.52 13.4694
4619.22 11.6877
4622.92 10.5458
4626.62 9.75512
4630.32 9.17623
4637.72 8.38404
4645.13 7.86044
4652.53 7.46333
4654.38 7.36582
4656.23 7.25312
4657.15 7.18038
4658.08 7.07935
4658.54 7.00741
4659.00 6.91459
4659.24 6.87076
4659.47 6.89368
4659.58 7.02751
4659.70 7.50279
4659.76 8.13507
4659.81 9.52761
4659.87 13.0254
4659.90 16.7264
4659.93 22.9502
4659.97 35.7748
4660.00 46.8586
4660.04 42.3161
4660.07 31.1666
4660.11 23.2179
4660.14 18.4854
4660.18 15.5854
4660.21 13.7161
4660.28 11.5478
4660.35 10.3809
4660.49 9.20799
4660.63 8.64147
4660.91 8.10449
4661.19 7.85039
4661.75 7.60414
4662.31 7.47986
4663.43 7.34483
4664.55 7.26398
4666.79 7.15541
4669.03 7.07445
4673.51 6.94394
4677.99 6.83210
4682.48 6.72628
4686.96 6.61190
4689.20 6.54015
4691.44 6.43786
4692.56 6.35834
4693.68 6.23143
4694.24 6.13222
4694.80 5.99571
4695.08 5.92746
4695.36 5.95527
4695.50 6.15280
4695.64 6.88305
4695.71 7.86353
4695.78 10.0478
4695.81 12.1468
4695.85 15.6214
4695.88 21.6115
4695.92 32.1568
4695.94 41.5488
4695.96 53.1163
4696.00 71.1313
4696.04 63.3824
4696.08 45.5678
4696.12 32.7614
4696.16 25.1579
4696.21 20.3503
4696.25 17.3160
4696.33 13.7312
4696.41 11.7974
4696.57 9.85266
4696.73 8.91486
4697.06 8.03087
4697.38 7.61885
4698.03 7.22889
4698.67 7.04175
4699.97 6.85560
4701.26 6.75839
4703.85 6.64883
4706.44 6.58093
4711.61 6.48749
4716.79 6.41693
4727.15 6.30326
4737.50 6.20657
4747.85 6.11614
4758.21 6.02089
4763.38 5.96335
4765.97 5.92802
4768.56 5.88391
4771.15 5.82262
4773.74 5.72087
4775.03 5.63314
4776.33 5.48293
4776.97 5.35864
4777.62 5.17487
4777.94 5.06629
4778.27 5.03795
4778.43 5.21111
4778.51 5.46191
4778.59 5.97818
4778.67 7.08639
4778.75 9.69474
4778.79 12.3601
4778.83 16.8463
4778.87 24.9349
4778.89 31.2890
4778.91 40.1603
4778.94 52.5680
4778.96 68.1494
4779.00 92.5717
4779.04 82.6714
4779.09 58.3759
4779.12 44.9223
4779.15 35.4604
4779.18 28.9846
4779.21 24.4554
4779.28 18.7755
4779.34 15.5001
4779.41 13.4353
4779.47 12.0419
4779.60 10.3169
4779.73 9.31244
4779.85 8.66525
4780.11 7.89157
4780.37 7.45104
4780.62 7.16898
4781.13 6.83124
4781.65 6.63602
4782.16 6.50897
4783.18 6.35287
4784.20 6.25934
4785.23 6.19614
4787.27 6.11375
4789.32 6.05995
4791.37 6.02013
4795.46 5.96113
4799.55 5.91649
4803.65 5.88473
4805.69 5.88124
4807.74 5.91219
4808.77 5.97413
4809.79 6.16177
4810.30 6.41518
4810.56 6.65555
4810.81 7.06416
4811.07 7.84569
4811.20 8.53024
4811.32 9.61070
4811.45 11.4487
4811.58 14.9035
4811.64 17.8468
4811.71 22.2921
4811.77 29.2184
4811.83 39.8548
4811.92 60.4375
4812.00 74.2190
4812.08 60.4761
4812.17 39.9018
4812.22 30.5140
4812.27 24.0701
4812.38 16.6319
4812.49 12.8220
4812.60 10.6726
4812.70 9.34783
4812.81 8.49325
4813.02 7.48702
4813.24 6.93936
4813.45 6.61141
4813.88 6.25153
4814.74 5.95700
4815.60 5.83367
4817.31 5.71129
4819.02 5.62451
4820.74 5.52577
4821.59 5.46058
4822.45 5.37510
4823.31 5.25599
4824.17 5.08569
4824.59 4.99086
4825.02 4.98621
4825.24 5.17674
4825.34 5.43483
4825.45 5.95121
4825.56 7.03269
4825.67 9.51125
4825.72 11.9775
4825.77 16.0671
4825.83 23.4440
4825.85 29.1689
4825.88 36.7643
4825.91 48.1735
4825.94 62.0248
4826.00 84.2643
4826.06 75.2676
4826.12 53.3129
4826.17 40.4951
4826.21 31.7492
4826.26 25.8760
4826.31 21.8999
4826.40 16.8632
4826.49 14.0239
4826.59 12.2266
4826.68 11.0320
4826.87 9.54877
4827.06 8.68728
4827.24 8.13266
4827.62 7.47083
4827.99 7.09223
4828.36 6.84991
4829.11 6.55779
4829.86 6.38835
4830.60 6.27738
4832.10 6.13957
4833.59 6.05581
4835.09 5.99830
4838.07 5.92156
4841.06 5.86978
4844.05 5.83023
4850.03 5.76877
4861.98 5.66885
4867.96 5.60927
4870.95 5.55321
4872.44 5.48473
4873.19 5.41432
4873.56 5.43901
4873.66 5.53816
4873.75 5.84398
4873.84 6.98577
4873.89 8.77129
4873.93 13.2029
4873.97 19.3700
4874.00 24.8807
4874.03 22.6502
4874.07 17.2961
4874.10 13.3163
4874.14 10.9251
4874.21 8.60379
4874.28 7.58186
4874.35 7.04098
4874.49 6.50380
4874.62 6.24801
4875.18 5.89216
4876.30 5.73101
4878.53 5.64698
4883.00 5.58361
4887.47 5.53568
4889.70 5.50209
4890.82 5.46980
4891.38 5.44674
4891.66 5.48698
4891.80 5.71752
4891.87 6.23693
4891.94 8.26211
4892.00 12.4864
4892.06 9.74420
4892.11 7.77674
4892.16 6.91099
4892.27 6.22433
4892.47 5.83742
4892.87 5.65631
4893.68 5.57255
4895.29 5.52569
4898.52 5.48427
4904.99 5.41899
4908.22 5.38102
4911.45 5.33004
4913.06 5.29270
4914.68 5.23521
4915.49 5.18993
4916.29 5.12196
4916.70 5.07643
4917.10 5.03832
4917.30 5.05690
4917.50 5.21762
4917.61 5.48743
4917.71 6.18373
4917.76 6.94520
4917.81 8.31831
4917.86 11.0077
4917.91 16.5848
4917.95 25.8384
4918.00 33.9297
4918.05 30.7001
4918.09 22.6835
4918.12 18.6132
4918.15 15.6272
4918.22 11.9910
4918.28 10.0285
4918.34 8.86546
4918.46 7.61017
4918.59 6.97671
4918.84 6.35702
4919.08 6.06507
4919.58 5.78876
4920.07 5.65717
4921.06 5.52648
4922.05 5.45720
4924.03 5.37285
4926.01 5.30755
4927.99 5.23603
4929.96 5.13094
4930.95 5.04517
4931.94 4.90447
4932.44 4.79410
4932.93 4.64812
4933.18 4.58627
4933.43 4.66606
4933.55 4.95284
4933.67 5.90593
4933.73 7.13161
4933.80 9.75474
4933.83 12.1874
4933.86 16.0823
4933.89 22.5187
4933.92 32.8128
4933.94 43.3104
4933.96 55.5731
4934.00 75.1896
4934.02 74.4187
4934.04 66.9640
4934.08 47.7416
4934.11 35.8381
4934.15 28.1309
4934.18 22.9704
4934.21 19.4188
4934.28 14.9832
4934.34 12.5077
4934.47 9.90051
4934.60 8.61831
4934.85 7.38355
4935.11 6.80735
4935.63 6.26590
4936.14 6.01078
4937.17 5.76532
4938.20 5.64424
4940.26 5.51938
4942.32 5.45082
4946.44 5.36801
4950.56 5.31143
4958.80 5.22217
4967.04 5.14096
4983.52 4.96496
4991.76 4.85398
4995.88 4.78438
5000.00 4.69250
5001.98 4.63011
5003.96 4.53682
5004.95 4.46337
5005.94 4.34691
5006.44 4.25733
5006.93 4.13793
5007.18 4.08348
5007.43 4.12803
5007.55 4.32762
5007.67 5.02193
5007.74 5.92332
5007.80 7.87093
5007.83 9.69081
5007.86 12.6240
5007.89 17.5108
5007.92 25.5348
5007.96 42.5300
5008.00 57.8421
5008.04 51.7202
5008.08 36.9881
5008.12 27.2583
5008.15 20.9618
5008.19 16.9573
5008.22 14.3078
5008.30 11.1599
5008.37 9.44878
5008.51 7.68362
5008.65 6.82174
5008.94 6.00283
5009.22 5.61791
5009.80 5.25192
5010.37 5.07485
5011.51 4.89449
5012.66 4.79554
5014.95 4.67225
5017.24 4.58123
5021.82 4.41454
5026.40 4.22316
5030.98 3.96147
5033.27 3.77981
5035.56 3.53746
5037.85 3.19284
5038.99 2.96015
5040.14 2.67220
5041.28 2.33458
5041.86 2.17730
5042.43 2.10599
5043.00 2.35747
5043.29 2.82969
5043.57 3.88473
5043.72 4.83357
5043.86 6.28248
5044.00 8.54948
5044.15 12.2169
5044.29 18.4142
5044.43 29.4695
5044.50 38.2858
5044.57 50.4044
5044.65 67.6830
5044.72 91.5141
5044.86 163.180
5045.00 226.496
5045.14 201.069
5045.28 139.488
5045.45 88.6286
5045.62 60.8348
5045.79 45.0490
5045.96 35.4293
5046.13 29.0809
5046.30 24.7071
5046.63 19.1386
5046.97 15.8196
5047.31 13.6629
5047.98 11.0594
5048.66 9.56362
5049.33 8.60259
5050.01 7.93305
5050.68 7.44093
5052.03 6.76138
5053.38 6.30887
5056.07 5.71989
5058.77 5.30947
5061.47 4.92947
5062.82 4.70187
5063.49 4.56244
5064.17 4.39470
5064.84 4.18824
5065.52 3.96690
5065.85 3.93707
5066.02 4.02268
5066.19 4.29526
5066.36 5.04305
5066.44 5.81702
5066.53 7.15312
5066.61 9.61563
5066.70 14.3627
5066.74 18.4092
5066.78 24.4204
5066.82 33.5068
5066.86 47.3179
5066.93 81.8927
5067.00 112.810
5067.03 111.958
5067.07 100.574
5067.14 70.6096
5067.19 52.0432
5067.25 39.7986
5067.31 31.6083
5067.36 26.1551
5067.47 19.4532
5067.59 15.6936
5067.70 13.3606
5067.81 11.8006
5068.04 9.88158
5068.27 8.76669
5068.49 8.04670
5068.94 7.18067
5069.39 6.67827
5069.85 6.35073
5070.75 5.94376
5071.65 5.69542
5072.56 5.52372
5074.36 5.29148
5077.97 5.00855
5081.59 4.81580
5088.81 4.51813
5096.04 4.25604
5103.26 3.99499
5110.49 3.72242
5117.71 3.44264
5121.33 3.31047
5123.13 3.24880
5124.04 3.21663
5124.49 3.20186
5124.71 3.21936
5124.83 3.30699
5124.94 4.01643
5125.00 5.26079
5125.06 4.45843
5125.16 3.62409
5125.26 3.42024
5125.46 3.30151
5125.85 3.24078
5126.63 3.20566
5128.20 3.18537
5131.34 3.24444
5134.47 3.51707
5137.61 4.25284
5140.75 6.09966
5142.32 7.93702
5143.89 11.0087
5145.46 16.3883
5147.02 26.3755
5147.81 34.5608
5148.59 46.2849
5149.38 63.2936
5150.16 87.8848
5151.58 155.956
5153.00 216.742
5154.42 192.813
5155.84 133.904
5157.20 92.7662
5158.56 67.4074
5159.92 51.5974
5161.29 41.2638
5164.01 29.0590
5166.73 22.2813
5169.45 17.9480
5172.17 14.7928
5173.53 13.4864
5174.22 12.9370
5174.90 12.5681
5175.58 12.6991
5175.92 13.2444
5176.26 14.5460
5176.60 17.5168
5176.94 24.5991
5177.11 31.6811
5177.28 43.7466
5177.45 65.2199
5177.62 104.238
5177.81 179.000
5178.00 245.434
5178.19 219.100
5178.38 154.700
5178.61 102.627
5178.83 73.6105
5179.05 56.8769
5179.27 46.5484
5179.49 39.6777
5179.71 34.8777
5180.16 28.7289
5180.60 24.9989
5181.04 22.5241
5181.93 19.4375
5182.82 17.5754
5183.71 16.3103
5185.48 14.6571
5187.25 13.5822
5189.03 12.8016
5192.57 11.7015
5199.67 10.3578
5206.76 9.52671
5213.86 8.94733
5220.95 8.51518
5235.14 7.90410
5249.33 7.48081
5263.52 7.15086
5270.61 6.99747
5277.70 6.82775
5281.25 6.71854
5283.03 6.64843
5284.80 6.55807
5286.57 6.42909
5287.46 6.33776
5288.35 6.21440
5289.23 6.03596
5290.12 5.75989
5290.56 5.57400
5291.01 5.42826
5291.23 5.52775
5291.45 6.25388
5291.56 7.44047
5291.67 10.4388
5291.73 13.6525
5291.78 19.3476
5291.84 30.2198
5291.87 39.3736
5291.89 52.0530
5291.95 89.2625
5292.00 122.971
5292.05 109.911
5292.11 77.7442
5292.14 62.3682
5292.17 50.7444
5292.24 36.0174
5292.31 27.7423
5292.37 22.7110
5292.44 19.4289
5292.50 17.1624
5292.64 14.2966
5292.77 12.5973
5292.90 11.4909
5293.16 10.1579
5293.43 9.39462
5293.69 8.90482
5294.22 8.31689
5294.75 7.97781
5295.28 7.75715
5296.33 7.48582
5297.39 7.32338
5298.44 7.21345
5300.55 7.07019
5302.67 6.97682
5304.78 6.90813
5309.00 6.80766
5316.06 6.68934
5323.12 6.59818
5337.23 6.45124
5365.47 6.21651
5393.70 6.00955
5407.82 5.90249
5414.88 5.83662
5418.41 5.78207
5420.17 5.72017
5421.05 5.64904
5421.49 5.62268
5421.71 5.83723
5421.82 6.61556
5421.88 8.00420
5421.91 9.53803
5421.93 12.1862
5421.97 17.4452
5422.00 22.2432
5422.03 20.4055
5422.07 15.8725
5422.11 11.8125
5422.15 9.70205
5422.24 7.89527
5422.42 6.78363
5422.77 6.24590
5423.46 6.00484
5424.86 5.88982
5427.66 5.82095
5433.25 5.75578
5444.44 5.65678
5450.04 5.61030
5455.63 5.57133
5458.43 5.56482
5461.23 5.59858
5462.63 5.67099
5464.02 5.89636
5464.72 6.20728
5465.07 6.50701
5465.42 7.02608
5465.77 8.04479
5465.95 8.96252
5466.12 10.4436
5466.30 13.0851
5466.38 15.2521
5466.47 18.3966
5466.56 23.2916
5466.65 31.1510
5466.73 44.6011
5466.82 68.2105
5466.91 106.097
5467.00 131.459
5467.09 106.186
5467.18 68.3213
5467.26 46.7952
5467.33 33.7054
5467.41 25.6410
5467.49 20.4642
5467.64 14.5706
5467.80 11.5228
5467.95 9.76170
5468.10 8.65774
5468.41 7.41005
5468.72 6.75485
5469.03 6.36945
5469.64 5.95585
5470.26 5.74678
5470.87 5.62431
5472.10 5.48719
5474.56 5.35234
5477.03 5.26037
5479.49 5.16247
5480.72 5.10080
5481.95 5.02152
5483.18 4.91004
5484.41 4.73617
5485.03 4.61026
5485.64 4.47332
5485.95 4.46132
5486.10 4.52519
5486.26 4.71761
5486.41 5.23408
5486.49 5.76624
5486.56 6.67924
5486.64 8.32237
5486.72 11.4789
5486.76 14.1798
5486.79 18.0459
5486.83 23.7824
5486.87 32.3332
5486.90 42.5401
5486.94 54.8002
5487.00 75.0952
5487.03 74.6227
5487.07 67.4173
5487.13 48.0905
5487.17 37.8217
5487.22 30.5106
5487.26 25.3391
5487.31 21.6240
5487.40 16.7903
5487.48 13.9640
5487.57 12.1309
5487.66 10.8937
5487.84 9.33411
5488.01 8.41632
5488.19 7.82075
5488.55 7.10376
5488.90 6.69241
5489.25 6.42732
5489.96 6.10663
5490.67 5.91919
5491.38 5.79533
5492.79 5.63944
5494.21 5.54281
5495.62 5.47567
5498.46 5.38955
5501.29 5.35314
5502.70 5.36279
5504.12 5.41251
5505.53 5.55794
5506.24 5.71658
5506.95 6.01091
5507.66 6.62747
5508.01 7.21433
5508.37 8.22029
5508.72 10.1485
5508.90 11.8463
5509.07 14.5406
5509.25 19.1602
5509.43 27.9481
5509.52 35.5808
5509.60 47.1171
5509.69 65.3261
5509.78 94.2742
5509.89 147.809
5510.00 183.518
5510.11 147.934
5510.22 94.4294
5510.30 68.4102
5510.37 51.0349
5510.45 39.4380
5510.53 31.6008
5510.68 21.9960
5510.83 16.7016
5510.99 13.4965
5511.14 11.4450
5511.45 9.05597
5511.75 7.77083
5512.06 7.00546
5512.67 6.17078
5513.29 5.74612
5513.90 5.49702
5515.12 5.22183
5516.35 5.07045
5517.58 4.96907
5520.03 4.82495
5524.93 4.59327
5529.83 4.33806
5534.74 3.99732
5537.19 3.77009
5539.64 3.48518
5542.09 3.13002
5543.32 2.93675
5544.54 2.77627
5545.77 2.79843
5546.38 3.03068
5546.99 3.65977
5547.61 5.24776
5547.91 6.83739
5548.22 9.49602
5548.53 14.1796
5548.83 22.8785
5548.99 30.0088
5549.14 40.2436
5549.29 55.1076
5549.45 76.6232
5549.72 136.565
5550.00 190.357
5550.28 170.022
5550.56 118.703
5550.78 87.7350
5551.00 66.8650
5551.22 52.8772
5551.43 43.2827
5551.87 31.3648
5552.31 24.5885
5552.75 20.3299
5553.19 17.4684
5554.07 13.9173
5554.95 11.8382
5555.83 10.4866
5557.59 8.84102
5559.35 7.86919
5561.10 7.21323
5564.62 6.32796
5568.13 5.65291
5569.89 5.31761
5571.65 4.94593
5573.41 4.50226
5574.29 4.24448
5575.17 3.97433
5576.05 3.76774
5576.49 3.78071
5576.92 4.03940
5577.36 4.96337
5577.58 6.02348
5577.80 7.94908
5578.02 11.6503
5578.13 14.7462
5578.24 19.2352
5578.35 26.0435
5578.46 36.5836
5578.57 53.2949
5578.68 79.5936
5578.84 141.286
5579.00 196.508
5579.16 175.598
5579.32 122.949
5579.47 85.4933
5579.63 62.4899
5579.78 48.2191
5579.94 38.9863
5580.09 32.6305
5580.25 28.1223
5580.56 22.2144
5580.87 18.6089
5581.17 16.2200
5581.79 13.2982
5582.41 11.6040
5583.03 10.5076
5583.65 9.74285
5584.26 9.17938
5585.50 8.40336
5586.74 7.89119
5587.97 7.52464
5589.21 7.24673
5591.68 6.84656
5594.15 6.56476
5599.10 6.17417
5604.04 5.89506
5608.98 5.66728
5618.87 5.26696
5628.76 4.84828
5633.70 4.59850
5638.65 4.29313
5643.59 3.89021
5646.06 3.62906
5648.54 3.30901
5651.01 2.91958
5652.24 2.71108
5653.48 2.53884
5654.72 2.55738
5655.33 2.79341
5655.95 3.43177
5656.57 5.03286
5656.88 6.62193
5657.19 9.27192
5657.50 13.8872
5657.81 22.3957
5657.96 29.3333
5658.12 39.1488
5658.27 53.3676
5658.42 73.6173
5658.71 131.417
5659.00 183.636
5659.29 164.248
5659.58 114.641
5659.81 83.6832
5660.05 63.1678
5660.29 49.6153
5660.53 40.3851
5661.00 29.0970
5661.48 22.7219
5661.96 18.7429
5662.43 16.0677
5663.38 12.7528
5664.34 10.8001
5665.29 9.52083
5667.19 7.93384
5669.09 6.96249
5671.00 6.27718
5674.80 5.28536
5678.61 4.50230
5680.51 4.16903
5682.42 3.94069
5684.32 4.05513
5685.27 4.47339
5686.22 5.49512
5687.17 7.90673
5687.65 10.2136
5688.12 13.9463
5688.60 20.2584
5689.08 31.4612
5689.55 52.4627
5690.03 92.9808
5690.51 165.633
5691.00 231.145
5691.49 206.796
5691.97 144.596
5692.28 113.234
5692.59 90.3573
5693.22 61.7224
5693.84 45.8424
5694.46 36.2538
5695.08 30.0172
5695.70 25.7109
5696.94 20.2419
5698.18 16.9460
5699.43 14.7092
5700.05 13.8025
5700.67 12.9626
5700.98 12.5633
5701.29 12.2527
5701.44 12.2618
5701.60 12.7662
5701.68 13.6125
5701.75 15.6137
5701.79 17.6290
5701.83 21.0464
5701.87 27.0764
5701.91 37.7547
5701.96 58.9572
5702.00 77.9253
5702.05 70.9137
5702.09 52.6887
5702.13 42.0434
5702.16 34.6833
5702.20 29.6985
5702.23 26.2363
5702.30 21.9129
5702.37 19.4440
5702.51 16.7577
5702.65 15.3822
5702.93 13.9662
5703.21 13.2173
5703.76 12.3582
5704.32 11.8203
5705.44 11.0860
5706.55 10.5565
5708.78 9.78263
5711.01 9.21578
5713.24 8.76373
5715.47 8.36820
5716.58 8.16856
5717.69 7.93861
5718.25 7.79331
5718.81 7.60661
5719.09 7.49755
5719.37 7.42873
5719.51 7.50235
5719.64 7.92665
5719.71 8.57446
5719.78 10.0890
5719.82 11.6285
5719.85 14.2750
5719.89 19.0416
5719.92 27.7253
5719.96 44.0587
5720.00 59.1557
5720.04 53.5356
5720.08 39.4751
5720.11 30.0541
5720.15 23.9714
5720.18 20.0885
5720.22 17.5109
5720.29 14.4352
5720.36 12.7358
5720.50 10.9900
5720.64 10.1297
5720.92 9.29852
5721.20 8.89571
5721.76 8.49204
5722.32 8.27768
5723.44 8.02850
5724.56 7.86772
5726.80 7.63940
5729.04 7.46528
5733.52 7.19122
5738.00 6.97167
5746.96 6.61847
5755.92 6.32152
5764.88 6.03475
5773.84 5.69931
5778.32 5.46955
5780.56 5.31827
5782.80 5.12209
5785.04 4.84671
5786.16 4.65901
5787.28 4.41952
5788.40 4.11307
5789.52 3.78329
5790.08 3.75913
5790.36 3.91720
5790.64 4.38984
5790.92 5.63844
5791.06 6.91406
5791.20 9.08625
5791.34 12.9581
5791.48 20.2985
5791.55 26.4064
5791.62 35.2823
5791.69 48.3500
5791.76 67.2047
5791.88 118.973
5792.00 165.341
5792.12 148.160
5792.25 104.247
5792.39 67.5886
5792.54 47.3849
5792.68 35.8433
5792.83 28.7458
5792.98 24.0785
5793.12 20.8362
5793.41 16.7110
5793.71 14.2494
5794.00 12.6393
5794.58 10.6890
5795.17 9.56526
5795.75 8.83975
5796.33 8.33380
5796.92 7.96079
5798.09 7.44596
5799.25 7.10445
5801.59 6.66908
5803.92 6.38828
5806.26 6.17256
5808.60 5.95937
5809.76 5.80004
5810.35 5.68642
5810.49 5.68560
5810.64 5.79728
5810.71 6.00670
5810.79 6.56510
5810.86 8.30117
5810.90 10.4793
5810.93 15.0775
5810.97 22.7636
5811.00 29.7074
5811.03 27.1756
5811.07 20.5944
5811.12 14.5459
5811.16 11.4972
5811.26 8.91216
5811.35 7.86713
5811.44 7.33213
5811.81 6.55332
5812.56 6.18031
5813.30 6.04433
5814.05 5.96311
5815.54 5.85360
5817.02 5.77103
5820.00 5.63460
5822.98 5.51388
5828.93 5.29507
5830.42 5.25369
5831.91 5.24651
5832.65 5.28988
5833.40 5.46123
5833.77 5.70984
5834.14 6.36696
5834.33 7.16947
5834.51 9.00474
5834.61 10.9393
5834.70 14.6262
5834.75 17.8537
5834.79 22.6905
5834.84 30.5357
5834.89 42.8803
5834.94 65.7794
5835.00 80.7803
5835.06 65.8343
5835.11 42.9126
5835.17 29.5666
5835.22 21.4920
5835.27 16.6326
5835.32 13.6159
5835.43 10.1633
5835.53 8.42102
5835.74 6.78944
5835.94 6.08307
5836.36 5.48831
5836.77 5.24424
5837.60 5.03041
5838.42 4.92330
5840.08 4.78417
5841.73 4.66736
5845.04 4.42336
5848.34 4.12384
5851.65 3.71948
5853.30 3.45395
5854.96 3.12930
5856.61 2.74596
5857.44 2.55834
5858.26 2.44439
5859.09 2.62214
5859.51 3.03011
5859.92 3.97390
5860.13 4.83530
5860.33 6.15685
5860.54 8.22795
5860.75 11.5531
5860.95 17.1638
5861.16 27.0106
5861.37 45.4179
5861.47 60.1673
5861.57 80.5181
5861.79 144.364
5862.00 201.946
5862.22 180.865
5862.43 126.521
5862.58 96.6760
5862.73 75.6743
5862.88 60.8639
5863.03 50.3780
5863.33 36.9049
5863.63 28.9728
5863.93 23.8988
5864.24 20.4369
5864.84 16.1046
5865.44 13.5424
5866.04 11.8749
5867.24 9.84774
5868.45 8.66487
5869.65 7.88695
5872.06 6.90641
5874.46 6.28604
5876.87 5.83057
5881.68 5.12729
5886.49 4.51000
5888.90 4.21065
5891.31 3.94603
5893.71 3.84751
5894.92 4.00050
5896.12 4.52166
5897.32 5.94426
5897.92 7.40979
5898.52 9.90325
5899.13 14.3478
5899.73 22.7245
5900.03 29.6742
5900.33 39.7350
5900.63 54.4823
5900.93 75.9498
5901.47 134.988
5902.00 188.604
5902.54 169.195
5903.07 118.697
5903.46 90.5141
5903.84 70.7781
5904.22 57.0283
5904.61 47.3152
5905.38 34.9433
5906.15 27.7007
5906.92 23.0821
5907.68 19.9358
5909.22 15.9958
5910.76 13.6681
5912.30 12.1472
5915.37 10.2914
5918.45 9.20022
5921.53 8.47517
5927.68 7.54839
5933.83 6.95052
5939.98 6.50261
5952.29 5.78660
5964.59 5.09989
5970.74 4.71067
5976.89 4.25935
5983.05 3.73053
5986.12 3.45373
5989.20 3.22982
5992.27 3.26389
5993.81 3.58160
5995.35 4.42634
5996.89 6.51793
5997.66 8.57375
5998.43 11.9727
5999.20 17.8275
5999.96 28.4627
6000.73 48.9769
6001.12 66.0302
6001.50 90.0671
6002.25 161.351
6003.00 226.224
6003.75 202.980
6004.50 142.090
6005.21 99.4290
6005.92 72.8643
6006.63 56.2009
6007.35 45.2855
6008.77 32.3778
6010.19 25.3074
6011.62 20.9599
6013.04 18.0618
6015.89 14.4758
6018.73 12.3522
6021.58 10.9355
6027.27 9.09450
6032.97 7.82220
6035.81 7.26604
6038.66 6.73213
6041.51 6.24868
6042.93 6.08468
6044.35 6.09392
6045.78 6.59642
6046.49 7.30951
6047.20 8.72073
6047.91 11.5965
6048.62 17.8487
6048.98 23.6811
6049.34 33.0178
6049.69 48.4050
6050.05 73.8782
6050.52 129.871
6051.00 180.755
6051.48 162.530
6051.95 114.811
6052.26 90.2262
6052.58 72.3387
6053.20 50.1593
6053.82 37.9471
6054.44 30.6012
6055.06 25.8319
6055.69 22.5413
6056.93 18.3659
6058.17 15.8622
6059.42 14.2034
6061.91 12.1277
6064.39 10.8302
6066.88 9.83831
6068.13 9.35533
6068.75 9.09318
6069.37 8.80258
6069.99 8.47286
6070.61 8.14131
6070.92 8.09158
6071.08 8.19916
6071.24 8.54399
6071.39 9.47258
6071.47 10.4200
6071.55 11.9978
6071.62 14.8104
6071.70 19.9728
6071.78 30.3704
6071.82 39.2540
6071.86 52.0104
6071.93 87.9209
6072.00 121.109
6072.07 109.232
6072.14 78.5444
6072.19 62.0662
6072.24 50.4199
6072.29 41.9861
6072.34 36.0386
6072.43 28.2506
6072.53 23.6161
6072.63 20.6294
6072.73 18.5801
6072.92 16.0063
6073.11 14.4663
6073.31 13.4562
6073.69 12.2210
6074.08 11.4892
6074.47 11.0029
6075.24 10.3808
6076.02 9.98573
6076.79 9.70112
6078.34 9.29634
6081.44 8.76537
6084.54 8.38224
6090.74 7.76397
6093.84 7.46454
6095.39 7.29631
6096.16 7.19404
6096.55 7.14792
6096.74 7.21862
6096.84 7.51432
6096.89 8.01582
6096.94 9.41856
6097.00 13.0356
6097.06 10.7975
6097.13 8.87817
6097.19 8.15356
6097.32 7.63351
6097.58 7.34199
6098.09 7.16654
6099.12 6.99891
6101.18 6.72372
6103.23 6.42268
6105.29 6.06459
6106.32 5.85721
6107.35 5.63135
6108.37 5.39754
6109.40 5.19963
6110.43 5.20430
6110.95 5.45188
6111.46 6.13807
6111.97 7.87811
6112.23 9.61263
6112.49 12.5103
6112.74 17.5603
6113.00 26.8631
6113.26 45.1325
6113.39 60.6038
6113.52 82.5550
6113.76 146.287
6114.00 204.136
6114.24 183.523
6114.49 129.424
6114.70 93.7067
6114.91 70.6940
6115.12 55.7218
6115.34 45.7234
6115.76 33.6352
6116.19 26.8944
6116.61 22.7196
6117.04 19.9278
6117.88 16.4901
6118.73 14.4826
6119.58 13.1821
6120.43 12.2734
6121.28 11.6051
6122.98 10.6856
6124.68 10.0816
6126.38 9.65124
6128.08 9.32647
6131.48 8.86164
6134.88 8.53665
6141.67 8.08679
6148.47 7.75543
6155.27 7.44746
6158.67 7.26755
6160.37 7.15760
6162.06 7.02124
6163.76 6.83592
6164.61 6.71031
6165.46 6.54732
6166.31 6.32455
6167.16 6.01559
6167.59 5.84880
6168.01 5.84437
6168.22 6.17068
6168.44 7.44257
6168.54 9.14935
6168.65 12.8795
6168.70 16.3750
6168.75 22.0040
6168.81 31.3545
6168.86 47.3089
6168.93 81.2582
6169.00 112.656
6169.07 101.551
6169.14 72.5947
6169.18 58.6771
6169.22 48.1918
6169.31 34.7509
6169.39 27.1014
6169.48 22.4070
6169.56 19.3229
6169.64 17.1810
6169.81 14.4669
6169.98 12.8333
6170.15 11.7683
6170.48 10.4679
6170.82 9.71315
6171.15 9.22129
6171.82 8.61471
6172.49 8.24643
6173.16 7.98890
6174.50 7.61887
6175.84 7.30766
6176.51 7.14203
6177.18 6.95206
6177.85 6.72199
6178.52 6.45945
6178.86 6.38413
6179.02 6.42870
6179.19 6.63299
6179.36 7.25047
6179.44 7.91534
6179.53 9.06419
6179.61 11.1900
6179.69 15.3456
6179.74 18.8906
6179.78 24.1496
6179.82 32.0761
6179.86 43.9425
6179.90 57.4963
6179.93 74.6723
6180.00 103.158
6180.07 93.0803
6180.14 66.8644
6180.21 47.1520
6180.28 35.3401
6180.36 28.1749
6180.43 23.6378
6180.50 20.5193
6180.57 18.3115
6180.71 15.4662
6180.86 13.7260
6181.00 12.5837
6181.29 11.1857
6181.57 10.3711
6181.86 9.84339
6182.43 9.20372
6183.01 8.82845
6183.58 8.58094
6184.73 8.26949
6185.87 8.07722
6187.02 7.94332
6189.31 7.76260
6191.61 7.64037
6193.90 7.54824
6198.49 7.41134
6207.66 7.22376
6216.84 7.08610
6235.19 6.87251
6253.54 6.69635
6290.24 6.37849
6308.58 6.21217
6317.76 6.11479
6322.35 6.04695
6324.64 5.98269
6325.79 5.90805
6326.36 5.84294
6326.65 5.90701
6326.79 6.37442
6326.86 7.45661
6326.90 8.85648
6326.93 11.6610
6326.97 16.5460
6327.00 20.8791
6327.03 19.4069
6327.07 15.2659
6327.11 11.7743
6327.15 9.88273
6327.23 8.14499
6327.40 7.04527
6327.73 6.49431
6328.39 6.24212
6329.71 6.11874
6332.36 6.04005
6337.66 5.95731
6348.25 5.81627
6358.84 5.66051
6369.43 5.47129
6380.03 5.22269
6385.32 5.06067
6390.62 4.85678
6395.91 4.58409
6398.56 4.40516
6401.21 4.17916
6403.86 3.87512
6405.18 3.67433
6406.51 3.41985
6407.83 3.08031
6408.49 2.86313
6409.15 2.60580
6409.82 2.32034
6410.15 2.19666
6410.48 2.15358
6410.81 2.38383
6410.98 2.77834
6411.14 3.61481
6411.31 5.43684
6411.39 7.09253
6411.47 9.63687
6411.55 13.7797
6411.64 20.6194
6411.72 32.6473
6411.80 53.8815
6411.90 96.8204
6412.00 136.149
6412.05 135.911
6412.10 122.680
6412.20 86.2112
6412.31 57.3575
6412.42 40.8140
6412.53 30.9373
6412.64 24.7750
6412.75 20.6154
6412.86 17.7166
6413.07 13.9600
6413.29 11.6871
6413.51 10.1835
6413.95 8.33513
6414.39 7.24614
6414.83 6.52456
6415.70 5.60953
6416.58 5.02979
6417.45 4.61010
6419.21 4.02265
6420.96 3.74089
6421.83 3.83786
6422.71 4.33616
6423.58 5.80720
6424.02 7.35301
6424.46 10.0081
6424.90 14.7530
6425.34 23.7245
6425.56 31.1520
6425.77 41.8868
6425.99 57.5847
6426.21 80.3397
6426.61 144.034
6427.00 202.314
6427.40 182.270
6427.79 128.209
6428.23 85.2470
6428.67 60.5601
6429.11 46.0113
6429.55 36.8881
6429.99 30.7813
6430.43 26.4925
6431.31 20.9788
6432.19 17.6464
6433.07 15.4508
6434.83 12.7650
6436.59 11.2007
6438.34 10.1810
6440.10 9.46301
6441.86 8.92863
6445.38 8.17812
6448.90 7.66334
6452.42 7.26043
6454.17 7.05252
6455.05 6.90784
6455.49 6.83623
6455.71 7.01545
6455.82 7.75986
6455.88 9.10526
6455.93 13.0293
6455.97 18.1248
6456.00 22.9073
6456.03 21.2560
6456.07 16.9087
6456.11 12.8491
6456.16 10.7803
6456.25 9.02643
6456.44 7.94830
6456.81 7.40269
6457.56 7.11868
6459.05 6.91546
6462.03 6.68638
6468.00 6.34713
6473.97 6.04412
6476.95 5.86770
6478.44 5.72834
6479.19 5.60423
6479.56 5.57948
6479.75 5.94041
6479.84 7.05378
6479.89 8.81865
6479.93 13.2395
6479.97 19.5522
6480.00 25.4587
6480.03 23.4304
6480.07 18.0512
6480.10 13.8584
6480.14 11.4241
6480.21 9.03053
6480.36 7.38496
6480.65 6.51906
6481.22 6.10686
6482.38 5.88412
6484.68 5.70440
6489.30 5.46009
6498.53 4.98234
6503.15 4.71345
6507.77 4.41789
6512.38 4.10999
6514.69 3.97289
6517.00 3.88315
6520.30 4.00592
6521.95 4.35814
6523.59 5.19725
6525.24 7.14396
6526.07 8.98045
6526.89 11.9228
6527.71 16.8084
6528.54 25.2847
6529.36 40.6851
6530.19 69.3288
6531.09 123.793
6532.00 173.894
6532.91 156.853
6533.82 110.655
6534.88 72.2985
6535.95 50.9185
6537.02 38.5931
6538.09 30.9617
6539.16 25.9032
6540.23 22.3681
6542.36 17.8192
6544.50 15.0516
6546.64 13.1905
6548.78 11.8197
6549.85 11.2250
6550.38 10.9560
6550.65 10.9996
6550.78 11.5231
6550.85 12.4974
6550.91 15.2891
6550.96 19.0691
6551.00 22.5390
6551.04 21.3450
6551.09 18.1087
6551.16 14.5923
6551.24 13.0649
6551.39 11.8737
6551.68 11.1230
6552.28 10.5995
6553.48 10.0432
6555.87 9.23161
6558.26 8.54420
6560.65 7.91332
6563.05 7.33825
6564.24 7.11432
6565.44 7.03147
6566.63 7.36017
6567.23 7.91773
6567.83 9.08171
6568.43 11.5310
6569.02 17.0066
6569.32 22.1988
6569.62 30.6214
6569.92 44.7084
6570.22 68.3890
6570.61 119.731
6571.00 166.844
6571.39 150.860
6571.78 107.337
6572.07 82.7002
6572.35 65.4159
6572.63 53.4178
6572.92 44.9495
6573.48 34.1486
6574.05 27.8124
6574.62 23.7544
6575.19 20.9865
6576.32 17.5009
6577.46 15.4225
6578.59 14.0534
6580.86 12.3593
6583.13 11.3409
6585.40 10.6426
6587.66 10.0917
6588.80 9.80086
6589.37 9.62461
6589.65 9.67900
6589.79 10.3345
6589.86 11.8534
6589.90 13.7529
6589.93 17.5891
6589.97 24.2761
6590.00 30.4380
6590.03 28.3596
6590.07 22.6861
6590.10 18.8144
6590.13 16.4087
6590.19 13.8008
6590.31 11.8182
6590.55 10.6921
6591.03 10.1183
6592.00 9.76943
6592.96 9.58729
6593.92 9.44974
6597.77 9.05125
6605.48 8.52971
6613.18 8.17154
6620.89 7.89790
6636.29 7.48217
6651.70 7.14691
6667.11 6.82209
6674.81 6.64023
6682.52 6.42370
6690.22 6.13748
6694.07 5.94619
6697.93 5.69930
6699.85 5.54544
6701.78 5.36414
6703.70 5.14972
6705.63 4.90211
6707.56 4.65594
6708.52 4.58581
6709.48 4.65584
6710.44 5.14053
6710.93 5.77557
6711.41 7.00334
6711.89 9.47231
6712.37 14.7711
6712.61 19.6678
6712.85 27.4349
6713.09 40.0883
6713.33 60.7248
6713.67 107.586
6714.00 150.686
6714.33 136.299
6714.67 96.6920
6715.05 64.8057
6715.42 46.6228
6715.80 35.9397
6716.17 29.2408
6716.55 24.7737
6716.93 21.6381
6717.68 17.6047
6718.43 15.1700
6719.18 13.5630
6720.69 11.5947
6722.19 10.4408
6723.69 9.68051
6726.70 8.71463
6729.71 8.07287
6732.72 7.51760
6734.22 7.21197
6734.98 7.03968
6735.73 6.85311
6736.48 6.67337
6736.86 6.61762
6737.23 6.64723
6737.61 6.92494
6737.80 7.29622
6737.98 8.01810
6738.17 9.46535
6738.36 12.5655
6738.45 15.4114
6738.55 19.9020
6738.64 27.1708
6738.74 39.0000
6738.80 51.0591
6738.87 66.0205
6739.00 90.9560
6739.13 82.7084
6739.26 59.8696
6739.36 47.3353
6739.45 38.4711
6739.54 32.2017
6739.63 27.6969
6739.81 21.8786
6739.99 18.4193
6740.18 16.1898
6740.36 14.6591
6740.72 12.7268
6741.09 11.5755
6741.45 10.8184
6742.18 9.88756
6742.91 9.33395
6743.63 8.96240
6745.09 8.47564
6746.55 8.13881
6748.00 7.83703
6748.73 7.66316
6749.46 7.43501
6749.82 7.28414
6750.19 7.12055
6750.37 7.08974
6750.55 7.30449
6750.64 7.76106
6750.73 9.02879
6750.78 10.4608
6750.82 13.0763
6750.87 18.4112
6750.92 29.4085
6750.96 48.2194
6751.00 65.3139
6751.04 59.7111
6751.08 43.8294
6751.11 35.4549
6751.14 29.4750
6751.20 22.0827
6751.25 18.0233
6751.31 15.5855
6751.42 12.9159
6751.53 11.5384
6751.76 10.1803
6751.98 9.52430
6752.43 8.88891
6752.88 8.57701
6753.78 8.25647
6754.67 8.08220
6756.47 7.87840
6758.26 7.75019
6761.85 7.58096
6765.44 7.46895
6769.02 7.39663
6772.61 7.38138
6774.40 7.42902
6776.20 7.61278
6777.10 7.87598
6777.54 8.13206
6777.99 8.57821
6778.44 9.45938
6778.67 10.2567
6778.89 11.5615
6779.11 13.9032
6779.23 15.8321
6779.34 18.6947
6779.45 23.1639
6779.56 30.5738
6779.67 43.6664
6779.79 67.5935
6779.89 103.948
6780.00 127.888
6780.11 103.710
6780.22 67.7464
6780.33 43.8086
6780.44 30.6974
6780.55 23.2710
6780.66 18.8200
6780.77 15.9363
6780.89 13.9926
6781.11 11.6400
6781.33 10.3210
6781.56 9.51806
6782.00 8.62945
6782.45 8.17952
6782.90 7.92407
6783.79 7.67035
6784.68 7.56964
6785.58 7.54347
6787.36 7.64061
6789.15 7.99353
6790.05 8.36462
6790.94 9.02345
6791.83 10.3248
6792.28 11.4957
6792.73 13.3847
6793.17 16.7150
6793.62 23.3068
6793.84 29.2495
6794.07 38.6806
6794.29 54.4419
6794.51 81.2910
6794.76 126.211
6795.00 156.087
6795.24 126.152
6795.49 81.4648
6795.67 58.1387
6795.86 43.2185
6796.04 33.5692
6796.23 27.1385
6796.60 19.5356
6796.97 15.4578
6797.34 13.0447
6797.71 11.5065
6798.45 9.73491
6799.19 8.79160
6799.93 8.23038
6801.41 7.61813
6802.89 7.30292
6804.37 7.11457
6807.33 6.89839
6810.29 6.77125
6813.25 6.67992
6819.17 6.53659
6825.09 6.40103
6831.01 6.23212
6833.98 6.10828
6835.46 6.02351
6836.94 5.91015
6838.42 5.74482
6839.16 5.62802
6839.90 5.47312
6840.64 5.26062
6841.38 4.97856
6841.75 4.85519
6842.12 4.97624
6842.30 5.45182
6842.49 7.01579
6842.58 8.95634
6842.67 12.8589
6842.72 16.3753
6842.76 21.6263
6842.81 29.7603
6842.86 42.5479
6842.93 73.9507
6843.00 103.283
6843.07 93.6297
6843.14 67.0945
6843.22 47.1414
6843.29 35.0531
6843.37 27.6903
6843.44 22.9608
6843.51 19.7557
6843.59 17.4810
6843.73 14.5414
6843.88 12.7390
6844.03 11.5537
6844.32 10.0979
6844.62 9.25330
6844.91 8.70704
6845.50 8.04689
6846.09 7.66386
6846.68 7.41359
6847.86 7.10436
6849.04 6.91792
6850.22 6.79063
6852.58 6.62185
6854.95 6.50816
6857.31 6.42066
6862.03 6.28050
6866.75 6.15436
6871.47 6.01333
6873.83 5.92010
6876.19 5.78152
6877.37 5.67041
6878.55 5.48802
6879.14 5.34036
6879.73 5.12270
6880.02 4.99040
6880.32 4.93009
6880.47 5.08047
6880.61 5.78825
6880.69 6.80583
6880.76 9.12357
6880.80 11.3620
6880.83 15.0558
6880.87 21.3635
6880.91 31.9616
6880.93 42.3486
6880.95 54.8184
6881.00 75.5608
6881.05 68.8753
6881.09 49.6253
6881.12 40.3066
6881.15 33.1724
6881.21 24.2485
6881.27 19.1213
6881.32 16.0463
6881.44 12.5998
6881.55 10.8068
6881.78 9.03580
6882.01 8.18778
6882.47 7.37665
6882.93 6.99113
6883.85 6.61662
6884.77 6.43024
6886.61 6.23513
6888.44 6.12618
6892.12 5.99515
6895.79 5.91875
6899.47 5.89937
6901.30 5.93303
6903.14 6.03434
6904.98 6.29749
6905.90 6.57087
6906.82 7.05989
6907.74 8.03292
6908.19 8.91012
6908.65 10.3295
6909.11 12.8304
6909.57 17.7503
6909.80 22.1602
6910.03 29.1153
6910.26 40.7034
6910.49 60.1669
6910.75 93.1149
6911.00 115.124
6911.26 93.2078
6911.51 60.2753
6911.69 44.0160
6911.87 33.2488
6912.06 26.1139
6912.24 21.2886
6912.60 15.4420
6912.96 12.2383
6913.33 10.3095
6913.69 9.06932
6914.42 7.61986
6915.14 6.83187
6915.87 6.35160
6917.32 5.80278
6918.78 5.49242
6920.23 5.28016
6923.13 4.96321
6926.04 4.66675
6927.49 4.49660
6928.95 4.29249
6930.40 4.02986
6931.13 3.86552
6931.85 3.67542
6932.58 3.47561
6932.94 3.40176
6933.31 3.40724
6933.67 3.66085
6933.85 4.02919
6934.03 4.76649
6934.21 6.29797
6934.40 9.66052
6934.49 12.8404
6934.58 17.9727
6934.67 26.5047
6934.76 40.6100
6934.88 71.8780
6935.00 100.900
6935.06 100.963
6935.12 91.4720
6935.24 65.0886
6935.32 51.9915
6935.39 42.2622
6935.54 29.8883
6935.69 22.8986
6935.84 18.6255
6935.99 15.8229
6936.14 13.8770
6936.44 11.3976
6936.74 9.91166
6937.04 8.93375
6937.64 7.73643
6938.24 7.03388
6938.84 6.57045
6940.04 5.98830
6941.24 5.62615
6942.44 5.36889
6944.84 5.00430
6949.64 4.51387
6954.44 4.17287
6959.24 4.08001
6961.64 4.29435
6964.04 4.96650
6966.44 6.73228
6967.64 8.50743
6968.84 11.4747
6970.04 16.6278
6971.24 26.0426
6972.44 44.2682
6973.04 59.4171
6973.64 80.8006
6974.82 145.229
6976.00 204.999
6977.18 185.669
6978.36 131.377
6979.13 103.173
6979.90 82.5641
6981.44 56.9021
6982.98 42.7152
6984.52 34.1654
6986.06 28.6038
6987.60 24.7689
6990.68 19.9105
6993.76 17.0164
6996.84 15.1210
7002.99 12.8156
7009.15 11.4772
7015.31 10.6059
7027.63 9.53619
7039.94 8.89381
7052.26 8.44589
7064.57 8.06202
7067.65 7.94803
7070.73 7.79311
7072.27 7.67576
7073.81 7.48792
7074.58 7.33563
7075.35 7.10364
7075.74 6.94893
7076.12 6.82455
7076.31 6.89472
7076.51 7.43195
7076.60 8.28605
7076.70 10.3546
7076.75 12.4460
7076.79 16.0362
7076.84 22.4711
7076.89 34.5483
7076.95 57.6215
7077.00 79.5123
7077.06 72.4388
7077.11 52.9517
7077.17 37.8361
7077.22 28.9650
7077.28 23.5039
7077.34 20.0733
7077.45 16.0716
7077.57 13.9342
7077.80 11.7546
7078.03 10.6978
7078.49 9.68396
7078.95 9.20122
7079.86 8.73551
7080.78 8.50622
7082.62 8.27030
7084.45 8.14170
7086.29 8.05484
7088.12 7.98879
7091.79 7.88819
7099.14 7.74219
7106.48 7.62745
7113.82 7.52839
7121.16 7.44129
7128.50 7.38314
7130.34 7.39188
7132.17 7.45455
7133.09 7.55725
7134.01 7.85046
7134.47 8.23714
7134.93 9.21649
7135.16 10.3855
7135.27 11.4030
7135.39 12.9816
7135.50 15.6602
7135.61 20.5637
7135.67 24.7460
7135.73 30.8598
7135.79 40.1720
7135.84 54.6632
7135.92 83.1641
7136.00 102.170
7136.08 83.2644
7136.16 54.7576
7136.21 41.3149
7136.26 32.3267
7136.37 21.9822
7136.47 16.7614
7136.57 13.8447
7136.68 12.0723
7136.78 10.9218
7136.99 9.57489
7137.20 8.84898
7137.41 8.41416
7137.82 7.94104
7138.65 7.56277
7139.49 7.41412
7141.15 7.29032
7142.82 7.23296
7149.48 7.11757
7162.79 6.94560
7176.11 6.75916
7189.43 6.52858
7196.09 6.38406
7202.75 6.20850
7209.41 5.98703
7216.07 5.69559
7219.40 5.51231
7222.73 5.29625
7226.06 5.04295
7229.39 4.75942
7232.72 4.50959
7234.38 4.48100
7236.05 4.67302
7237.71 5.47610
7238.54 6.43111
7239.38 8.19219
7240.21 11.5737
7241.04 18.4753
7241.46 24.5640
7241.87 33.8434
7242.29 48.2582
7242.70 70.6770
7243.35 126.546
7244.00 178.665
7244.65 162.217
7245.30 115.300
7245.77 88.4037
7246.25 69.5226
7246.72 56.4172
7247.19 47.1585
7248.14 35.3581
7249.09 28.4527
7250.04 24.0397
7250.98 21.0338
7252.88 17.2644
7254.77 15.0385
7256.67 13.5878
7258.56 12.5748
7260.46 11.8310
7264.25 10.8151
7268.04 10.1564
7271.83 9.69542
7275.62 9.35465
7283.20 8.88288
7290.77 8.56860
7298.35 8.33498
7302.14 8.22266
7304.04 8.14102
7304.99 8.06125
7305.46 8.00405
7305.70 8.09401
7305.82 8.56754
7305.87 9.50421
7305.93 12.5936
7305.97 16.5155
7306.00 20.1141
7306.03 19.0023
7306.07 15.7152
7306.12 12.5332
7306.16 10.9851
7306.26 9.67158
7306.45 8.88649
7306.84 8.49893
7307.61 8.31352
7309.16 8.20874
7312.26 8.12254
7318.44 8.02384
7321.54 7.99430
7324.63 7.99524
7326.18 8.03255
7327.73 8.16847
7328.50 8.36399
7329.27 8.88938
7329.66 9.55271
7329.85 10.1547
7330.05 11.1425
7330.24 12.9339
7330.43 16.6077
7330.53 20.0789
7330.63 25.8136
7330.72 36.1606
7330.82 55.3177
7330.91 83.7247
7331.00 102.899
7331.09 83.8294
7331.18 55.4216
7331.26 39.8323
7331.33 30.0496
7331.40 23.8995
7331.48 19.9353
7331.62 15.3029
7331.77 12.8661
7331.92 11.4427
7332.06 10.5437
7332.36 9.51834
7332.95 8.66027
7333.53 8.31756
7334.71 8.04523
7335.89 7.93658
7338.24 7.84209
7340.59 7.79486
7345.30 7.73651
7350.00 7.69377
7350.00 7.30000
7700.00 6.95000
8000.00 6.84000
8300.00 6.86400
8500.00 6.88000
8800.00 6.90400
9000.00 6.92000
9100.00 6.92800
9300.00 6.94400
9500.00 6.96000
9700.00 6.97600
10000.0 7.00000
10250.0 7.01500
10500.0 7.03000
10750.0 7.04500
11000.0 7.06000
11250.0 7.07500
11500.0 7.09000
11750.0 7.10500
12000.0 7.12000
12250.0 7.13500
12500.0 7.15000
12750.0 7.16500
13000.0 7.18000
13250.0 7.19500
13500.0 7.21000
13750.0 7.22500
14000.0 7.24000
14250.0 7.25500
14500.0 7.27000
14750.0 7.28500
15000.0 7.30000
15250.0 7.31500
15500.0 7.33000
15750.0 7.34500
16000.0 7.36000
16250.0 7.37500
16500.0 7.39000
16750.0 7.40500
17000.0 7.42000
17250.0 7.43500
17500.0 7.45000
17750.0 7.46500
18000.0 7.48000
18250.0 7.49500
18500.0 7.51000
18750.0 7.52500
19000.0 7.54000
19250.0 7.55500
19500.0 7.57000
19750.0 7.58500
20000.0 7.60000
20250.0 7.61250
20500.0 7.62500
20750.0 7.63750
21000.0 7.65000
21250.0 7.66250
21500.0 7.67500
21750.0 7.68750
22000.0 7.70000
22250.0 7.71250
22500.0 7.72500
22750.0 7.73750
23000.0 7.75000
23250.0 7.76250
23500.0 7.77500
23750.0 7.78750
24000.0 7.80000
24250.0 7.81250
24500.0 7.82500
24750.0 7.83750
25000.0 7.85000
25250.0 7.86250
25500.0 7.87500
25750.0 7.88750
26000.0 7.90000
26250.0 7.91250
26500.0 7.92500
26750.0 7.93750
27000.0 7.95000
27250.0 7.96250
27500.0 7.97500
27750.0 7.98750
28000.0 8.00000
28250.0 8.01250
28500.0 8.02500
28750.0 8.03750
29000.0 8.05000
29250.0 8.06250
29310.0 8.06550
29500.0 8.07500
29750.0 8.08750
30000.0 8.10000
30250.0 8.10850
30500.0 8.11700
30750.0 8.12550
31000.0 8.13400
31060.0 8.13604
31063.7 8.13616
31154.6 8.13926
31250.0 8.14250
31500.0 8.15100
31750.0 8.15950
32000.0 8.16800
32250.0 8.17650
32500.0 8.18500
32750.0 8.19350
33000.0 8.20200
33250.0 8.21050
33500.0 8.21900
33750.0 8.22750
34000.0 8.23600
34250.0 8.24450
34500.0 8.25300
34750.0 8.26150
35000.0 8.27000
35250.0 8.27950
35500.0 8.28900
35750.0 8.29850
36000.0 8.30799
36250.0 8.31750
36500.0 8.32700
36750.0 8.33650
37000.0 8.34600
37250.0 8.35550
37500.0 8.36499
37750.0 8.37450
38000.0 8.38400
38250.0 8.39350
38500.0 8.40300
38750.0 8.41250
39000.0 8.42201
39250.0 8.43150
39500.0 8.44100
39750.0 8.45050
40000.0 8.46000
40250.0 8.46800
40500.0 8.47600
40750.0 8.48400
41000.0 8.49200
41250.0 8.50000
41500.0 8.50800
41750.0 8.51600
42000.0 8.52400
42250.0 8.53200
42500.0 8.54000
42750.0 8.54800
43000.0 8.55600
43250.0 8.56400
43500.0 8.57200
43750.0 8.58000
44000.0 8.58800
44250.0 8.59600
44500.0 8.60400
44750.0 8.61200
45000.0 8.62000
45250.0 8.62750
45500.0 8.63500
45750.0 8.64250
46000.0 8.65000
46250.0 8.65750
46500.0 8.66500
46750.0 8.67250
47000.0 8.68001
47250.0 8.68750
47500.0 8.69500
47750.0 8.70250
48000.0 8.71000
48250.0 8.71750
48500.0 8.72500
48750.0 8.73250
49000.0 8.74000
49250.0 8.74751
49500.0 8.75500
49750.0 8.76250
50000.0 8.77000
50250.0 8.77500
50500.0 8.78000
50750.0 8.78500
51000.0 8.79000
51250.0 8.79500
51500.0 8.80000
51750.0 8.80500
52000.0 8.81000
52250.0 8.81500
52500.0 8.82000
52750.0 8.82500
53000.0 8.83000
53250.0 8.83500
53500.0 8.84000
53750.0 8.84500
54000.0 8.85000
54250.0 8.85499
54500.0 8.86000
54750.0 8.86500
55000.0 8.87000
55250.0 8.87400
55500.0 8.87800
55750.0 8.88200
56000.0 8.88600
56250.0 8.89000
56500.0 8.89400
56750.0 8.89800
57000.0 8.90200
57250.0 8.90600
57500.0 8.91000
57750.0 8.91400
58000.0 8.91800
58250.0 8.92200
58500.0 8.92600
58750.0 8.93000
59000.0 8.93400
59250.0 8.93800
59500.0 8.94200
59750.0 8.94600
60000.0 8.95000
60250.0 8.95401
60500.0 8.95800
60750.0 8.96200
61000.0 8.96600
61250.0 8.97000
61500.0 8.97400
61750.0 8.97800
62000.0 8.98200
62250.0 8.98600
62500.0 8.99000
62750.0 8.99400
63000.0 8.99800
63250.0 9.00200
63500.0 9.00600
63750.0 9.01000
64000.0 9.01400
64250.0 9.01800
64500.0 9.02200
64750.0 9.02600
65000.0 9.03000
65250.0 9.03350
65500.0 9.03700
65750.0 9.04050
66000.0 9.04400
66250.0 9.04750
66500.0 9.05100
66750.0 9.05450
67000.0 9.05800
67250.0 9.06150
67500.0 9.06500
67750.0 9.06850
68000.0 9.07200
68250.0 9.07550
68500.0 9.07900
68750.0 9.08250
69000.0 9.08600
69250.0 9.08950
69500.0 9.09300
69750.0 9.09650
70000.0 9.10000
70250.0 9.10325
70500.0 9.10650
70750.0 9.10975
71000.0 9.11300
71250.0 9.11625
71500.0 9.11950
71750.0 9.12275
72000.0 9.12600
72250.0 9.12925
72500.0 9.13250
72750.0 9.13576
73000.0 9.13900
73250.0 9.14225
73500.0 9.14551
73750.0 9.14875
74000.0 9.15200
74250.0 9.15526
74500.0 9.15850
74750.0 9.16175
75000.0 9.16501
75250.0 9.16825
75500.0 9.17150
75750.0 9.17476
76000.0 9.17800
76250.0 9.18125
76500.0 9.18451
76750.0 9.18775
77000.0 9.19100
77250.0 9.19425
77500.0 9.19750
77750.0 9.20075
78000.0 9.20400
78250.0 9.20725
78500.0 9.21050
78750.0 9.21375
79000.0 9.21700
79250.0 9.22025
79500.0 9.22350
79750.0 9.22675
80000.0 9.23000
80250.0 9.23175
80500.0 9.23350
80750.0 9.23525
81000.0 9.23700
81250.0 9.23875
81500.0 9.24050
81750.0 9.24225
82000.0 9.24400
82250.0 9.24575
82500.0 9.24750
82750.0 9.24925
83000.0 9.25100
83250.0 9.25275
83500.0 9.25450
83750.0 9.25625
84000.0 9.25800
84250.0 9.25976
84500.0 9.26150
84750.0 9.26325
85000.0 9.26500
85250.0 9.26675
85500.0 9.26850
85750.0 9.27025
86000.0 9.27201
86250.0 9.27375
86500.0 9.27550
86750.0 9.27725
87000.0 9.27900
87250.0 9.28075
87500.0 9.28250
87750.0 9.28426
88000.0 9.28600
88250.0 9.28775
88500.0 9.28950
88750.0 9.29125
89000.0 9.29300
89250.0 9.29475
89500.0 9.29650
89750.0 9.29825
90000.0 9.30000
90250.0 9.30293
90500.0 9.30585
90750.0 9.30878
91000.0 9.31170
91250.0 9.31462
91500.0 9.31755
91750.0 9.32047
92000.0 9.32340
92250.0 9.32632
92500.0 9.32925
92750.0 9.33218
93000.0 9.33510
93250.0 9.33803
93500.0 9.34095
93750.0 9.34388
94000.0 9.34680
94250.0 9.34973
94500.0 9.35265
94750.0 9.35557
95000.0 9.35850
95250.0 9.36142
95500.0 9.36435
95750.0 9.36727
96000.0 9.37020
96250.0 9.37312
96500.0 9.37605
96750.0 9.37898
97000.0 9.38190
97250.0 9.38483
97500.0 9.38775
97750.0 9.39068
98000.0 9.39360
98250.0 9.39652
98500.0 9.39945
98750.0 9.40237
99000.0 9.40530
99250.0 9.40822
99500.0 9.41115
99750.0 9.41408
100000 9.41700
100200 9.41743
100500 9.41807
100700 9.41851
101000 9.41915
101200 9.41958
101500 9.42023
101700 9.42065
102000 9.42130
102200 9.42173
102500 9.42237
110000 9.43850
120000 9.46000
130000 9.48500
140000 9.51000
150000 9.49900
200000 9.47300
250000 9.36700
300000 9.20800
350000 9.01500
400000 8.80500
450000 8.58500
500000 8.36300
550000 8.14400
600000 7.93000
650000 7.72300
680000 7.60400
687300 7.57400
700000 7.52400
720000 7.44900
740000 7.37300
744000 7.35700
749200 7.33187
750000 7.32800
752000 7.31900
752078 7.31862
760000 7.29800
762500 7.28913
780000 7.22700
800000 7.15400
808000 7.12700
809600 7.12100
809697 7.12073
810000 7.11997
816700 7.09499
816773 7.09471
820000 7.08500
840000 7.01700
850000 6.98300
860000 6.95000
880000 6.88600
900000 6.82100
920000 6.76000
940000 6.69900
950000 6.66800
960000 6.62100
960200 6.62000
960213 6.61994
979000 6.58300
980000 6.57900
989500 6.53800
989629 6.53744
1.00000E+06 6.52300
1.08000E+06 6.31100
1.09200E+06 6.27200
1.10000E+06 6.25800
1.20000E+06 6.02200
1.28800E+06 5.83720
1.30000E+06 5.81200
1.31400E+06 5.77500
1.31412E+06 5.77470
1.32000E+06 5.76491
1.33000E+06 5.74492
1.33400E+06 5.73592
1.33433E+06 5.73522
1.34400E+06 5.71687
1.34444E+06 5.71602
1.37000E+06 5.67387
1.38500E+06 5.64893
1.39000E+06 5.64196
1.40000E+06 5.62300
1.40500E+06 5.61399
1.40509E+06 5.61381
1.48000E+06 5.48900
1.49000E+06 5.47201
1.49600E+06 5.46101
1.49607E+06 5.46086
1.50000E+06 5.45300
1.50011E+06 5.45275
1.51600E+06 5.42197
1.51629E+06 5.42140
1.60000E+06 5.30500
1.61700E+06 5.27400
1.61737E+06 5.27336
1.67000E+06 5.20594
1.68000E+06 5.19296
1.68800E+06 5.17997
1.68813E+06 5.17970
1.69000E+06 5.17597
1.69800E+06 5.16001
1.69824E+06 5.15941
1.69900E+06 5.15794
1.69925E+06 5.15761
1.70000E+06 5.15691
1.70800E+06 5.14491
1.70835E+06 5.14437
1.75000E+06 5.09694
1.80000E+06 5.04000
1.90000E+06 4.92400
1.95000E+06 4.87200
1.96000E+06 4.85000
1.97100E+06 4.82801
1.97117E+06 4.82766
2.00000E+06 4.79885
2.06300E+06 4.74362
2.15500E+06 4.66298
2.17800E+06 4.62898
2.17840E+06 4.62838
2.20000E+06 4.61075
2.20064E+06 4.61017
2.40000E+06 4.45400
2.50000E+06 4.37900
2.56300E+06 4.33175
2.60000E+06 4.30400
2.80000E+06 4.17100
3.00000E+06 4.05600
3.20000E+06 3.95600
3.40000E+06 3.87400
3.50000E+06 3.84200
3.60000E+06 3.80901
3.80000E+06 3.76100
3.85900E+06 3.75200
3.86000E+06 3.75101
4.00000E+06 3.72900
4.05000E+06 3.72500
4.20000E+06 3.71299
4.40000E+06 3.71001
4.50000E+06 3.71500
4.58800E+06 3.71852
4.60000E+06 3.71900
4.80000E+06 3.73800
5.00000E+06 3.76500
5.50000E+06 3.85500
6.00000E+06 3.95500
6.10700E+06 3.97500
6.10760E+06 3.97500
6.11000E+06 3.97500
6.15600E+06 3.98359
6.26000E+06 4.00300
6.26300E+06 4.00401
6.50000E+06 4.04800
7.00000E+06 4.12800
7.50000E+06 4.19201
8.00000E+06 4.24200
8.34400E+06 4.26677
8.50000E+06 4.27800
8.92000E+06 4.29700
8.92100E+06 4.29700
8.92900E+06 4.29700
9.00000E+06 4.30100
9.04000E+06 4.30200
9.05900E+06 4.30200
9.06000E+06 4.30200
9.10000E+06 4.30300
9.20000E+06 4.30500
9.30000E+06 4.30700
9.37500E+06 4.30850
9.40000E+06 4.30900
9.50000E+06 4.31102
9.60000E+06 4.31100
9.70000E+06 4.31001
9.80000E+06 4.31000
9.90000E+06 4.30900
1.00000E+07 4.30900
1.02000E+07 4.30100
1.03750E+07 4.29489
1.04000E+07 4.29401
1.06000E+07 4.28601
1.08000E+07 4.27899
1.10000E+07 4.27100
1.12000E+07 4.25600
1.13940E+07 4.24048
1.14000E+07 4.24000
1.15000E+07 4.23250
1.16000E+07 4.22500
1.18000E+07 4.20900
1.20000E+07 4.19400
1.23940E+07 4.15223
1.25000E+07 4.14099
1.25900E+07 4.13100
1.25953E+07 4.13047
1.26000E+07 4.13000
1.30000E+07 4.08800
1.34060E+07 4.03809
1.34800E+07 4.02900
1.34848E+07 4.02852
1.35000E+07 4.02700
1.35000E+07 4.02700
1.35000E+07 4.02700
1.35400E+07 4.02200
1.40000E+07 3.96600
1.43560E+07 3.92186
1.45000E+07 3.90400
1.50000E+07 3.84200
1.55000E+07 3.78500
1.55200E+07 3.78268
1.60000E+07 3.72700
1.69000E+07 3.64200
1.70000E+07 3.63200
1.72000E+07 3.61900
1.72500E+07 3.61500
1.75000E+07 3.59900
1.77500E+07 3.58200
1.78000E+07 3.57800
1.80000E+07 3.56500
1.85000E+07 3.54800
1.90000E+07 3.53100
1.95000E+07 3.53000
2.00000E+07 3.52900
2.00000E+07 3.52900
2.00000E+07 3.35500
2.02846E+07 3.32595
2.06052E+07 3.29467
2.10000E+07 3.25849
2.11374E+07 3.24655
2.20000E+07 3.18000
2.30000E+07 3.11582
2.30114E+07 3.11514
2.40000E+07 3.05900
2.50000E+07 3.00766
2.56363E+07 2.97697
2.60000E+07 2.96000
2.67052E+07 2.92896
2.69547E+07 2.91871
2.70000E+07 2.91689
2.80000E+07 2.88000
2.90000E+07 2.85721
2.90781E+07 2.85620
2.94708E+07 2.85241
3.00000E+07 2.85000
3.10000E+07 2.84953
3.19005E+07 2.85197
3.20000E+07 2.85239
3.27587E+07 2.85656
3.30000E+07 2.85805
3.40000E+07 2.86537
3.49328E+07 2.87514
3.49461E+07 2.87531
3.50000E+07 2.87600
3.50539E+07 2.87670
3.60000E+07 2.88972
3.70000E+07 2.90502
3.77907E+07 2.91822
3.80000E+07 2.92187
3.90000E+07 2.94021
3.93387E+07 2.94675
4.00000E+07 2.96000
4.04522E+07 2.96938
4.05068E+07 2.97052
4.05225E+07 2.97085
4.10000E+07 2.98095
4.20000E+07 3.00238
4.30000E+07 3.02370
4.33706E+07 3.03146
4.40000E+07 3.04439
4.45546E+07 3.05543
4.50000E+07 3.06400
4.57358E+07 3.07771
4.57506E+07 3.07798
4.60000E+07 3.08254
4.70000E+07 3.10034
4.75374E+07 3.10963
4.80000E+07 3.11748
4.90000E+07 3.13401
4.94178E+07 3.14075
5.00000E+07 3.15000
5.06718E+07 3.16052
5.08701E+07 3.16358
5.10000E+07 3.16556
5.20000E+07 3.17997
5.25835E+07 3.18742
5.30000E+07 3.19215
5.40000E+07 3.20112
5.41152E+07 3.20191
5.50000E+07 3.20600
5.51049E+07 3.20627
5.60000E+07 3.20827
5.63679E+07 3.20898
5.70000E+07 3.21010
5.73960E+07 3.21075
5.80000E+07 3.21170
5.90000E+07 3.21327
6.00000E+07 3.21500
6.08954E+07 3.21696
6.10000E+07 3.21722
6.15339E+07 3.21859
6.20000E+07 3.21980
6.21263E+07 3.22013
6.30000E+07 3.22226
6.40000E+07 3.22413
6.50000E+07 3.22500
6.58563E+07 3.22239
6.60000E+07 3.22147
6.64071E+07 3.21824
6.70000E+07 3.21218
6.80000E+07 3.19967
6.90000E+07 3.18625
7.00000E+07 3.17400
7.01206E+07 3.17268
7.04060E+07 3.16963
7.10000E+07 3.16350
7.20000E+07 3.15346
7.30000E+07 3.14303
7.40000E+07 3.13144
7.42701E+07 3.12802
7.45966E+07 3.12368
7.50000E+07 3.11800
7.60000E+07 3.10300
7.70000E+07 3.08738
7.80000E+07 3.07147
7.86456E+07 3.06119
7.88016E+07 3.05872
7.90000E+07 3.05558
8.00000E+07 3.04000
8.10000E+07 3.02472
8.20000E+07 3.00959
8.30000E+07 2.99459
8.37230E+07 2.98383
8.40000E+07 2.97973
8.50000E+07 2.96500
8.60000E+07 2.94993
8.70000E+07 2.93397
8.80000E+07 2.91704
8.90000E+07 2.89907
8.92149E+07 2.89507
9.00000E+07 2.88000
9.10000E+07 2.85901
9.20000E+07 2.83627
9.30000E+07 2.81307
9.33125E+07 2.80593
9.40000E+07 2.79062
9.50000E+07 2.77000
9.60000E+07 2.75182
9.70000E+07 2.73518
9.80000E+07 2.71888
9.90000E+07 2.70182
1.00000E+08 2.68300
1.02000E+08 2.64317
1.04000E+08 2.60383
1.06000E+08 2.56512
1.08000E+08 2.52715
1.10000E+08 2.49000
1.12000E+08 2.45390
1.14000E+08 2.41894
1.16000E+08 2.38503
1.18000E+08 2.35208
1.20000E+08 2.32000
1.22000E+08 2.28878
1.24000E+08 2.25841
1.26000E+08 2.22885
1.28000E+08 2.20006
1.30000E+08 2.17200
1.32000E+08 2.14455
1.34000E+08 2.11760
1.36000E+08 2.09119
1.38000E+08 2.06532
1.40000E+08 2.04000
1.42000E+08 2.01516
1.44000E+08 1.99072
1.46000E+08 1.96671
1.48000E+08 1.94314
1.50000E+08 1.92000