Mo-94(n,tot) ENDF/B-VII.1
Energy(eV) XS(b)
1.00000E-05 22.9452
1.25000E-05 21.1377
1.50000E-05 19.8034
2.00000E-05 17.9305
2.75000E-05 16.1485
3.50000E-05 14.9756
4.25000E-05 14.1290
5.00000E-05 13.4808
6.25000E-05 12.6724
7.50000E-05 12.0757
0.000100000 11.2381
0.000125000 10.6665
0.000150000 10.2446
0.000200000 9.65233
0.000275000 9.08880
0.000350000 8.71792
0.000425000 8.45017
0.000500000 8.24520
0.000625000 7.98957
0.000750000 7.80088
0.00100000 7.53601
0.00125000 7.35525
0.00150000 7.22182
0.00200000 7.03452
0.00275000 6.85631
0.00350000 6.73902
0.00425000 6.65435
0.00500000 6.58952
0.00625000 6.50868
0.00750000 6.44900
0.0100000 6.36522
0.0125000 6.30805
0.0150000 6.26584
0.0200000 6.20659
0.0253000 6.16411
0.0314750 6.12887
0.0376500 6.10269
0.0500000 6.06574
0.0625000 6.04013
0.0750000 6.02121
0.100000 5.99463
0.125000 5.97647
0.150000 5.96304
0.200000 5.94414
0.275000 5.92608
0.350000 5.91411
0.500000 5.89871
0.750000 5.88393
1.00000 5.87484
1.50000 5.86351
2.00000 5.85624
2.75000 5.84862
3.50000 5.84297
5.00000 5.83446
7.50000 5.82396
10.0000 5.81549
15.0000 5.80135
20.0000 5.78920
27.5000 5.77316
35.0000 5.75894
50.0000 5.73435
75.0000 5.70126
87.5000 5.68754
93.7500 5.68147
96.8750 5.67883
100.000 5.67685
102.177 5.67656
103.265 5.67732
104.353 5.67957
104.897 5.68181
105.441 5.68550
105.985 5.69185
106.530 5.70371
106.802 5.71375
107.074 5.72902
107.346 5.75377
107.618 5.79757
107.754 5.83332
107.890 5.88609
108.026 5.96860
108.162 6.10795
108.298 6.37059
108.366 6.59795
108.434 6.95301
108.502 7.54828
108.570 8.64320
108.604 9.55592
108.638 10.9057
108.672 12.9540
108.706 16.0657
108.753 22.3008
108.800 26.4571
108.847 22.3079
108.894 16.0745
108.939 12.2343
108.983 10.0158
109.028 8.70537
109.072 7.89025
109.161 6.99039
109.250 6.53876
109.339 6.28228
109.428 6.12360
109.606 5.94627
109.784 5.85475
109.962 5.80153
110.140 5.76783
110.318 5.74517
110.674 5.71745
111.029 5.70173
111.385 5.69190
111.741 5.68530
112.453 5.67715
113.165 5.67237
114.588 5.66692
116.012 5.66371
117.435 5.66141
120.282 5.65792
125.976 5.65247
131.671 5.64770
143.059 5.63899
154.447 5.63096
200.000 5.60341
275.000 5.56821
350.000 5.54015
500.000 5.49379
625.000 5.45838
750.000 5.42161
875.000 5.37975
937.500 5.35540
968.750 5.34200
1000.00 5.32767
1025.80 5.31560
1032.25 5.31308
1038.70 5.31208
1041.93 5.31373
1045.15 5.32156
1046.77 5.33391
1047.57 5.34661
1048.38 5.37000
1049.19 5.41989
1049.59 5.46892
1049.99 5.55663
1050.19 5.62925
1050.39 5.73730
1050.60 5.91011
1050.80 6.20796
1051.00 6.79483
1051.10 7.32632
1051.20 8.18534
1051.30 9.73893
1051.35 11.0346
1051.40 12.9204
1051.45 15.9281
1051.50 20.8209
1051.55 29.4257
1051.60 45.0610
1051.65 69.1644
1051.70 84.7917
1051.75 68.6449
1051.80 45.0671
1051.83 34.6072
1051.86 27.2782
1051.92 18.5510
1051.98 13.9924
1052.04 11.4225
1052.10 9.80520
1052.16 8.74583
1052.28 7.50283
1052.40 6.82126
1052.51 6.41486
1052.75 5.97003
1052.99 5.74628
1053.23 5.61822
1053.47 5.53816
1053.71 5.48480
1054.19 5.42027
1054.67 5.38418
1055.62 5.34718
1056.58 5.32941
1057.53 5.31938
1059.44 5.30874
1063.27 5.29962
1067.09 5.29494
1074.74 5.28863
1082.38 5.28334
1097.68 5.27318
1112.97 5.26276
1143.56 5.24024
1174.14 5.21475
1235.32 5.15111
1296.49 5.06020
1327.08 4.99743
1357.66 4.91570
1388.25 4.80412
1418.84 4.64153
1434.13 4.52830
1449.42 4.38067
1464.72 4.17988
1480.01 3.89077
1487.66 3.69274
1495.30 3.43942
1502.95 3.10478
1510.59 2.64570
1514.42 2.34845
1518.24 1.99116
1522.06 1.56394
1525.89 1.07742
1527.80 0.839021
1529.71 0.656898
1530.67 0.618909
1531.62 0.650431
1532.10 0.706057
1532.58 0.799175
1533.06 0.941366
1533.53 1.14768
1534.01 1.44012
1534.49 1.84756
1534.97 2.41105
1535.45 3.18928
1535.92 4.26798
1536.40 5.77555
1536.88 7.90993
1537.36 10.9789
1537.84 15.5181
1538.31 22.4341
1538.79 33.4135
1539.27 51.8139
1539.75 84.9694
1539.99 111.893
1540.23 150.870
1540.46 209.243
1540.70 299.909
1540.94 445.409
1541.18 679.685
1541.49 1152.89
1541.80 1525.41
1542.11 1289.93
1542.42 851.149
1542.65 614.119
1542.88 455.731
1543.11 349.590
1543.34 276.651
1543.80 186.983
1544.26 136.753
1544.72 105.744
1545.18 85.2908
1546.10 60.5845
1547.03 46.6495
1547.95 37.9124
1548.87 32.0118
1549.79 27.8023
1551.63 22.2622
1553.47 18.8239
1555.31 16.5054
1557.16 14.8465
1560.84 12.6461
1564.52 11.2621
1568.21 10.3160
1571.89 9.63036
1579.26 8.70540
1586.63 8.11197
1594.00 7.69960
1601.36 7.39667
1616.10 6.98156
1630.83 6.71089
1638.20 6.60852
1645.57 6.52297
1649.25 6.48708
1652.94 6.46012
1654.78 6.45606
1655.70 6.46081
1656.62 6.47647
1657.54 6.51896
1658.00 6.56473
1658.46 6.64975
1658.92 6.83037
1659.15 7.00510
1659.38 7.31132
1659.61 7.92007
1659.73 8.47804
1659.84 9.40297
1659.96 11.0959
1660.02 12.5346
1660.07 14.6765
1660.13 18.1809
1660.19 24.1286
1660.25 35.4916
1660.30 57.5941
1660.35 88.5977
1660.40 108.673
1660.45 87.8935
1660.50 57.5561
1660.54 39.9042
1660.58 29.4160
1660.62 22.7868
1660.66 18.6320
1660.75 13.8309
1660.83 11.3488
1660.91 9.91565
1661.00 9.01805
1661.16 8.00301
1661.33 7.47389
1661.49 7.16391
1661.66 6.96683
1661.82 6.83435
1662.16 6.67050
1662.49 6.57725
1663.15 6.47873
1663.81 6.42904
1664.48 6.39926
1665.80 6.36420
1668.46 6.32630
1671.11 6.30086
1676.41 6.26042
1681.72 6.22569
1692.33 6.16535
1702.94 6.11359
1724.15 6.02843
1745.37 5.96090
1787.81 5.85989
1830.25 5.78716
1872.69 5.73161
1915.13 5.68728
1957.56 5.65072
2000.00 5.61984
2022.27 5.60550
2044.54 5.59238
2066.82 5.58059
2089.09 5.57060
2111.36 5.56402
2122.50 5.56355
2133.63 5.56756
2139.20 5.57293
2144.77 5.58267
2150.34 5.60052
2155.90 5.63542
2158.69 5.66583
2161.47 5.71311
2164.26 5.79176
2167.04 5.93600
2168.43 6.05775
2169.82 6.24368
2171.22 6.54800
2172.61 7.09705
2173.30 7.55441
2174.00 8.24475
2174.70 9.35777
2175.39 11.3238
2175.74 12.9273
2176.09 15.2986
2176.44 19.0161
2176.78 25.3223
2177.13 37.2858
2177.31 47.7343
2177.48 64.1963
2177.65 92.1536
2177.83 144.607
2177.91 189.233
2178.00 256.544
2178.09 361.271
2178.17 522.658
2178.29 833.746
2178.40 1041.40
2178.51 833.518
2178.63 522.414
2178.75 313.181
2178.87 201.439
2178.99 138.767
2179.11 101.190
2179.23 77.0560
2179.35 60.9959
2179.59 41.5399
2179.83 30.6804
2180.07 24.0812
2180.55 16.7909
2181.03 13.0689
2181.51 10.9270
2181.99 9.57850
2182.47 8.67866
2183.43 7.58580
2184.39 6.97485
2185.36 6.59876
2186.32 6.35091
2188.24 6.05468
2190.16 5.89116
2192.08 5.79127
2194.01 5.72569
2197.85 5.64735
2201.69 5.60377
2205.54 5.57672
2209.38 5.55854
2217.07 5.53574
2224.76 5.52183
2240.14 5.50473
2255.52 5.49338
2270.90 5.48436
2301.65 5.46921
2332.41 5.45576
2363.17 5.44307
2424.68 5.41878
2547.71 5.37141
2670.74 5.32251
2793.76 5.26895
2916.79 5.20683
2978.31 5.17083
3009.06 5.15120
3039.82 5.13034
3070.58 5.10829
3101.33 5.08592
3116.71 5.07610
3132.09 5.07189
3139.78 5.07804
3143.62 5.08764
3147.47 5.10811
3151.31 5.15589
3153.23 5.20514
3155.16 5.29615
3156.12 5.37332
3157.08 5.49123
3158.04 5.68436
3159.00 6.03291
3159.48 6.32359
3159.96 6.76137
3160.44 7.46858
3160.92 8.71483
3161.16 9.73572
3161.40 11.2396
3161.64 13.5964
3161.88 17.5922
3162.13 25.2129
3162.25 31.8499
3162.37 42.3084
3162.49 60.0757
3162.61 93.4321
3162.67 121.832
3162.73 164.708
3162.79 231.504
3162.85 336.103
3162.92 536.057
3163.00 666.989
3163.08 533.028
3163.16 335.746
3163.21 244.073
3163.26 182.379
3163.36 110.343
3163.46 73.4506
3163.56 52.6488
3163.66 39.9327
3163.76 31.6470
3163.96 21.9163
3164.16 16.6627
3164.36 13.5173
3164.76 10.1071
3165.16 8.39898
3165.56 7.42440
3165.96 6.81671
3166.36 6.41256
3167.16 5.92537
3167.96 5.65407
3168.76 5.48758
3169.56 5.37803
3171.16 5.24715
3172.76 5.17458
3175.96 5.10018
3179.16 5.06369
3182.36 5.04223
3188.76 5.01726
3201.56 4.98976
3214.36 4.96974
3239.96 4.93269
3265.56 4.89344
3291.16 4.84954
3316.76 4.79929
3367.97 4.67104
3419.17 4.48056
3444.77 4.34381
3470.37 4.15904
3495.97 3.89400
3508.77 3.71261
3521.57 3.48039
3534.38 3.17343
3540.78 2.98087
3547.18 2.75474
3553.58 2.49132
3556.78 2.34833
3559.98 2.20697
3563.18 2.09539
3564.78 2.07810
3566.38 2.13187
3567.98 2.36938
3568.78 2.65809
3569.58 3.22008
3570.38 4.43468
3570.78 5.61178
3571.18 7.65488
3571.58 11.6292
3571.78 15.1766
3571.98 20.8831
3572.18 30.8586
3572.38 50.4161
3572.48 67.8318
3572.58 95.3304
3572.68 140.759
3572.78 217.048
3572.89 346.703
3573.00 433.162
3573.11 346.668
3573.22 217.004
3573.32 143.063
3573.42 98.0979
3573.51 70.4013
3573.61 52.7760
3573.80 32.5416
3573.99 22.0561
3574.18 15.9877
3574.37 12.1779
3574.75 7.85221
3575.14 5.58032
3575.52 4.23564
3576.28 2.77333
3577.05 2.01727
3577.81 1.56125
3579.34 1.03064
3580.87 0.725388
3582.40 0.540598
3583.92 0.462267
3584.69 0.471888
3585.45 0.524488
3586.22 0.632849
3586.98 0.814693
3587.75 1.09576
3588.51 1.51290
3589.27 2.12080
3590.04 2.99791
3590.80 4.26676
3591.57 6.11853
3592.33 8.86795
3593.10 13.0335
3593.86 19.5509
3594.62 30.1761
3595.39 48.4815
3596.15 82.1499
3596.53 109.678
3596.92 149.255
3597.30 206.957
3597.68 290.861
3598.34 509.583
3599.00 694.729
3599.66 603.580
3600.32 408.346
3601.07 257.664
3601.82 174.223
3602.57 126.386
3603.32 97.0079
3604.06 77.7145
3604.81 64.3864
3606.31 47.5418
3607.81 37.5996
3609.30 31.1766
3612.30 23.5191
3615.29 19.1982
3618.29 16.4643
3621.28 14.5931
3624.28 13.2397
3630.27 11.4217
3636.25 10.2633
3642.24 9.46365
3648.23 8.87956
3660.21 8.08483
3672.19 7.56986
3684.17 7.20903
3696.14 6.94194
3720.10 6.57206
3744.06 6.32689
3768.01 6.15129
3791.97 6.01840
3839.88 5.82800
3887.79 5.69505
3983.61 5.51254
4079.43 5.38372
4127.35 5.33096
4175.26 5.28622
4199.21 5.26848
4223.17 5.25633
4247.12 5.25447
4271.08 5.27445
4283.06 5.30124
4295.04 5.35009
4307.01 5.44022
4318.99 5.61708
4324.98 5.77134
4330.97 6.01081
4336.96 6.40750
4342.95 7.12888
4345.94 7.73181
4348.94 8.64224
4351.93 10.1094
4354.92 12.6925
4356.42 14.7927
4357.92 17.8831
4359.42 22.6971
4360.91 30.7852
4362.41 45.8963
4363.16 58.8890
4363.91 78.9819
4364.66 112.314
4365.40 172.451
4365.78 221.821
4366.15 293.415
4366.53 399.752
4366.90 557.502
4367.45 890.955
4368.00 1113.32
4368.55 890.602
4369.10 558.095
4369.59 361.557
4370.09 245.210
4370.58 174.828
4371.07 130.423
4372.06 80.5616
4373.05 55.1618
4374.03 40.6040
4375.02 31.5475
4376.99 21.3542
4378.97 16.0659
4380.94 12.9812
4382.91 11.0262
4384.89 9.70963
4388.83 8.10045
4392.78 7.19090
4396.72 6.62574
4400.67 6.24966
4408.56 5.79321
4416.46 5.53412
4424.35 5.37004
4432.24 5.25725
4448.03 5.10999
4463.81 5.01295
4479.60 4.93770
4495.38 4.87132
4526.95 4.73631
4542.74 4.65426
4558.52 4.54813
4574.31 4.39252
4582.20 4.27812
4590.09 4.11654
4594.04 4.00644
4597.99 3.86516
4601.93 3.67637
4605.88 3.41033
4607.85 3.23168
4609.82 3.00753
4611.80 2.71923
4613.77 2.33972
4614.76 2.10558
4615.74 1.83951
4616.73 1.55026
4617.72 1.28703
4618.21 1.21444
4618.70 1.25488
4619.20 1.54889
4619.44 1.88343
4619.69 2.43707
4619.94 3.35020
4620.18 4.86274
4620.31 5.97727
4620.43 7.42833
4620.55 9.35191
4620.68 11.9362
4620.80 15.4982
4620.92 20.4224
4621.05 27.4342
4621.17 37.6869
4621.29 53.2912
4621.42 77.4201
4621.54 116.047
4621.66 178.294
4621.83 314.059
4622.00 430.982
4622.17 377.455
4622.34 257.546
4622.49 180.515
4622.64 131.550
4622.79 100.293
4622.93 79.5633
4623.23 54.9096
4623.53 41.3814
4623.83 33.1152
4624.13 27.6525
4624.72 21.0273
4625.32 17.2277
4625.91 14.8056
4626.51 13.1424
4627.10 11.9386
4628.30 10.3176
4629.49 9.28598
4630.68 8.57390
4631.87 8.05491
4634.25 7.34974
4636.64 6.89391
4639.02 6.57517
4641.40 6.33964
4646.17 6.01425
4650.93 5.79920
4655.70 5.64564
4660.47 5.52981
4670.00 5.36482
4679.53 5.25085
4698.59 5.09787
4717.66 4.99369
4736.72 4.91312
4774.85 4.78550
4812.97 4.67871
4832.04 4.63031
4851.10 4.58683
4860.63 4.56866
4870.16 4.55519
4879.70 4.55073
4889.23 4.56556
4893.99 4.58782
4898.76 4.62951
4903.53 4.70735
4908.29 4.86058
4910.67 4.99401
4913.06 5.20035
4915.44 5.53996
4917.82 6.15116
4919.01 6.65660
4920.21 7.41112
4921.40 8.60946
4922.59 10.6723
4923.78 14.6779
4924.38 18.2579
4924.97 24.0224
4925.57 34.1669
4926.16 54.1941
4926.46 72.2275
4926.76 100.998
4927.06 149.196
4927.35 231.181
4927.68 367.975
4928.00 459.031
4928.32 367.879
4928.65 231.668
4928.93 153.504
4929.21 106.122
4929.48 77.0107
4929.76 58.4175
4930.32 37.2078
4930.88 26.2808
4931.44 19.9643
4931.99 16.0169
4933.11 11.5487
4934.22 9.21929
4935.34 7.85446
4936.45 6.98664
4937.57 6.40046
4939.80 5.68094
4942.03 5.27122
4944.26 5.01442
4946.49 4.84177
4950.95 4.62802
4955.41 4.50228
4959.87 4.41898
4964.32 4.35863
4973.24 4.27309
4982.16 4.21038
5000.00 4.11084
5032.96 3.94849
5065.93 3.77942
5082.41 3.68807
5098.89 3.59231
5107.13 3.54506
5115.37 3.50678
5119.49 3.50295
5121.55 3.51385
5123.61 3.54663
5125.67 3.63538
5126.70 3.73223
5127.73 3.91571
5128.76 4.31395
5129.27 4.70873
5129.79 5.41645
5130.05 6.00132
5130.30 6.86998
5130.56 8.25024
5130.82 10.6093
5131.08 15.1736
5131.21 19.2253
5131.33 25.6488
5131.46 36.8668
5131.59 58.6202
5131.66 77.9451
5131.72 107.611
5131.79 155.605
5131.85 234.183
5131.93 374.381
5132.00 466.793
5132.08 373.800
5132.15 235.917
5132.22 150.734
5132.29 101.836
5132.36 72.3290
5132.43 54.1427
5132.57 33.7807
5132.71 23.5507
5132.86 17.6743
5133.00 14.0290
5133.28 9.95091
5133.56 7.83014
5133.84 6.59622
5134.12 5.81029
5134.40 5.28193
5134.97 4.63264
5135.53 4.26335
5136.65 3.87751
5137.78 3.68684
5138.91 3.57640
5141.16 3.45440
5145.66 3.34063
5150.16 3.27543
5159.17 3.17847
5168.17 3.09140
5177.17 3.00429
5186.18 2.91431
5204.19 2.72086
5240.20 2.25992
5276.22 1.66431
5294.23 1.30320
5312.24 0.899666
5330.25 0.474766
5339.25 0.276383
5348.26 0.117462
5352.76 0.0670295
5357.26 0.0485326
5359.51 0.0555988
5361.76 0.0765881
5364.01 0.114393
5366.27 0.172534
5368.52 0.255313
5370.77 0.368020
5375.27 0.710954
5379.77 1.27561
5384.27 2.18047
5388.78 3.62141
5393.28 5.93375
5397.78 9.72360
5402.28 16.1495
5406.78 27.5863
5411.29 49.3054
5413.54 67.4405
5415.79 93.9013
5418.04 133.070
5420.29 190.935
5424.15 343.835
5428.00 480.335
5431.86 426.812
5435.71 294.832
5440.26 186.996
5444.81 127.582
5449.36 93.6281
5451.63 82.0479
5452.20 79.5594
5452.77 77.2494
5453.05 76.1884
5453.34 75.2862
5453.48 74.9888
5453.62 75.0026
5453.69 75.3035
5453.76 76.0901
5453.83 78.0260
5453.87 79.9436
5453.90 82.8745
5453.95 88.8031
5454.00 92.7206
5454.05 88.5099
5454.10 82.2471
5454.16 77.5051
5454.21 75.0902
5454.27 73.7152
5454.33 72.8361
5454.45 71.7276
5454.56 70.9995
5454.80 69.9179
5455.03 69.0253
5455.49 67.4253
5455.96 65.9433
5457.82 60.6572
5461.54 52.2283
5468.98 40.8171
5476.43 33.5776
5483.87 28.6478
5498.76 22.4586
5513.65 18.7886
5528.53 16.3864
5543.42 14.7027
5573.20 12.5122
5602.97 11.1574
5632.75 10.2401
5692.30 9.07968
5751.85 8.37617
5811.40 7.90310
5930.49 7.30296
6049.59 6.93168
6168.69 6.67124
6287.79 6.46787
6347.34 6.37669
6377.12 6.33221
6392.00 6.31151
6399.45 6.30815
6403.17 6.33498
6404.10 6.36678
6405.03 6.45695
6405.50 6.57800
6405.96 6.89658
6406.19 7.29661
6406.43 8.25208
6406.54 9.33310
6406.66 11.5457
6406.72 13.6240
6406.78 17.0957
6406.83 23.2957
6406.89 34.7893
6406.95 52.1114
6407.00 63.4234
6407.06 51.8802
6407.11 34.9196
6407.15 26.6184
6407.19 21.0666
6407.22 17.3559
6407.26 14.8177
6407.34 11.7355
6407.41 10.0388
6407.57 8.36022
6407.72 7.59910
6408.02 6.94522
6408.32 6.68108
6408.93 6.47306
6409.53 6.39386
6410.75 6.33299
6411.96 6.30947
6416.81 6.28002
6426.51 6.25894
6445.90 6.22643
6484.69 6.16026
6523.48 6.08505
6562.27 5.99167
6601.06 5.86013
6620.46 5.76547
6639.86 5.63259
6649.55 5.54191
6659.25 5.42478
6668.95 5.26626
6678.65 5.03767
6683.50 4.87998
6688.34 4.67615
6693.19 4.40214
6698.04 4.01434
6700.47 3.75336
6702.89 3.42554
6705.32 3.00335
6707.74 2.44724
6708.95 2.10336
6710.16 1.71092
6711.38 1.27995
6712.59 0.870055
6713.19 0.734065
6713.80 0.733389
6714.41 1.03546
6714.71 1.40627
6715.01 2.03214
6715.32 3.06068
6715.62 4.74380
6715.92 7.53138
6716.22 12.2708
6716.53 20.6616
6716.68 27.2601
6716.83 36.3548
6716.98 49.2730
6717.13 67.6648
6717.29 94.4812
6717.44 132.917
6717.72 243.659
6718.00 346.414
6718.14 346.762
6718.28 312.958
6718.57 219.683
6718.80 160.091
6719.04 120.524
6719.27 94.3641
6719.51 76.5938
6719.98 54.7237
6720.45 42.3714
6720.92 34.6333
6721.39 29.4395
6722.34 23.0055
6723.28 19.2394
6724.22 16.7996
6725.17 15.1025
6726.11 13.8606
6727.99 12.1692
6729.88 11.0782
6731.76 10.3182
6733.65 9.75940
6737.42 8.99395
6741.19 8.49500
6744.96 8.14416
6748.73 7.88402
6756.27 7.52354
6763.81 7.28516
6771.36 7.11528
6778.90 6.98772
6793.98 6.80784
6809.06 6.68590
6824.15 6.59679
6839.23 6.52809
6869.39 6.42733
6899.56 6.35506
6914.64 6.32557
6929.73 6.29940
6944.81 6.27718
6952.35 6.27342
6956.12 6.29829
6957.06 6.32788
6958.01 6.41178
6958.48 6.52477
6958.95 6.82184
6959.18 7.19505
6959.42 8.08728
6959.54 9.09187
6959.66 11.1692
6959.71 13.1289
6959.77 16.4174
6959.83 22.3275
6959.89 33.2421
6959.95 49.4060
6960.00 60.3554
6960.06 49.5051
6960.11 33.3656
6960.15 25.1197
6960.19 19.6892
6960.23 16.1570
6960.27 13.7932
6960.36 10.9877
6960.44 9.47799
6960.60 8.01250
6960.77 7.35578
6961.09 6.80166
6961.42 6.58063
6962.08 6.40705
6962.73 6.34133
6965.35 6.27114
6970.60 6.24607
6981.08 6.22771
7002.06 6.20134
7023.03 6.17815
7044.01 6.15681
7085.96 6.11822
7106.93 6.10070
7117.42 6.09316
7122.66 6.09307
7125.28 6.10696
7126.59 6.16496
7127.25 6.36373
7127.41 6.53730
7127.58 6.93627
7127.74 8.18276
7127.82 10.0261
7127.86 11.8441
7127.90 14.8063
7127.95 20.0519
7128.00 23.5316
7128.05 20.0610
7128.10 14.8086
7128.14 11.6347
7128.19 9.77329
7128.28 7.97859
7128.46 6.82953
7128.82 6.32348
7129.54 6.15120
7130.97 6.09966
7133.85 6.08367
7139.60 6.07558
7151.11 6.06583
7174.12 6.04846
7220.14 6.01576
7312.18 5.95450
7496.27 5.83123
7588.31 5.75525
7634.34 5.70655
7680.36 5.64302
7726.38 5.54953
7749.39 5.48040
7772.40 5.38176
7783.91 5.31369
7795.41 5.22513
7806.92 5.10434
7818.42 4.92860
7824.18 4.80642
7829.93 4.64741
7835.68 4.43169
7841.43 4.12234
7844.31 3.91122
7847.19 3.64222
7850.06 3.28865
7852.94 2.80661
7854.38 2.49607
7855.82 2.12437
7857.25 1.68075
7858.69 1.17129
7860.13 0.692666
7860.85 0.598731
7861.21 0.659806
7861.57 0.858253
7861.93 1.28958
7862.29 2.11963
7862.65 3.67061
7862.83 4.89395
7863.01 6.56702
7863.19 8.90441
7863.37 12.1986
7863.55 16.9199
7863.72 23.7783
7863.90 34.0857
7864.08 49.8764
7864.26 74.5400
7864.44 112.851
7864.72 208.831
7865.00 298.771
7865.14 300.010
7865.28 271.595
7865.56 191.732
7865.76 146.367
7865.96 114.372
7866.16 91.8606
7866.36 75.9018
7866.75 55.4072
7867.15 43.3202
7867.55 35.5701
7867.95 30.2695
7868.75 23.6143
7869.55 19.6690
7870.34 17.0981
7871.14 15.3000
7871.94 13.9813
7873.53 12.1816
7875.13 11.0196
7876.72 10.2101
7878.32 9.61509
7881.51 8.80075
7884.70 8.27093
7887.89 7.89896
7891.08 7.62372
7897.46 7.24354
7903.84 6.99331
7910.22 6.81597
7916.60 6.68359
7929.37 6.49865
7942.13 6.37515
7967.65 6.21924
7993.17 6.12362
8018.70 6.05817
8069.74 5.97376
8095.27 5.94580
8120.79 5.92534
8146.31 5.91331
8171.84 5.91427
8184.60 5.92344
8197.36 5.94337
8210.12 5.98289
8222.88 6.06301
8229.26 6.13369
8235.64 6.24389
8242.02 6.42700
8248.40 6.76068
8251.60 7.04007
8254.79 7.46262
8257.98 8.14502
8261.17 9.35047
8262.76 10.3339
8264.36 11.7861
8265.95 14.0593
8267.55 17.9054
8269.14 25.1707
8269.94 31.4908
8270.74 41.3855
8271.54 58.0884
8272.33 89.0335
8272.73 115.086
8273.13 153.952
8273.53 213.584
8273.93 305.044
8274.46 484.986
8275.00 604.701
8275.54 484.666
8276.07 304.875
8276.40 227.741
8276.72 173.242
8277.37 107.648
8278.02 72.9938
8278.67 53.0744
8279.31 40.7034
8279.96 32.5723
8281.26 22.9170
8282.55 17.6492
8283.85 14.4772
8286.44 11.0155
8289.03 9.26969
8291.62 8.26925
8294.21 7.64294
8296.80 7.22489
8301.98 6.71842
8307.16 6.43441
8312.34 6.25877
8317.52 6.14221
8327.88 6.00081
8338.24 5.92036
8348.60 5.86919
8358.97 5.83384
8379.69 5.78758
8400.41 5.75751
8421.13 5.73525
8441.86 5.71723
8483.30 5.68788
8524.75 5.66374
8545.47 5.65433
8566.19 5.65226
8576.56 5.66255
8581.74 5.67726
8586.92 5.70863
8592.10 5.78349
8594.69 5.86238
8597.28 6.01066
8598.57 6.13776
8599.87 6.33325
8601.16 6.65477
8602.46 7.23484
8603.11 7.71623
8603.75 8.43627
8604.40 9.58390
8605.05 11.5632
8605.70 15.4166
8606.02 18.8625
8606.34 24.3970
8606.67 34.1239
8606.99 53.2687
8607.15 70.3743
8607.32 97.4600
8607.48 142.352
8607.64 217.412
8607.82 345.808
8608.00 432.481
8608.18 348.352
8608.36 220.602
8608.56 131.898
8608.76 85.0999
8608.97 59.3186
8609.17 44.0464
8609.37 34.3815
8609.57 27.9213
8609.97 20.1342
8610.37 15.8171
8610.77 13.1831
8611.58 10.2738
8612.38 8.78325
8613.19 7.91883
8613.99 7.37234
8614.79 7.00477
8616.40 6.55402
8618.01 6.29802
8619.62 6.13790
8621.22 6.03081
8624.44 5.90001
8627.65 5.82566
8634.08 5.74832
8640.51 5.71354
8646.94 5.70734
8650.16 5.72478
8653.37 5.79289
8654.98 5.89396
8656.59 6.17823
8657.39 6.55798
8657.79 6.92142
8658.19 7.55008
8658.60 8.78498
8658.80 9.90070
8659.00 11.7215
8659.20 14.9757
8659.30 17.6609
8659.40 21.5888
8659.50 27.7476
8659.60 37.7704
8659.70 55.2137
8659.80 86.4820
8659.90 135.409
8660.00 167.724
8660.10 135.199
8660.20 86.8728
8660.31 52.4729
8660.43 34.8243
8660.54 25.1489
8660.65 19.5255
8660.77 15.9609
8660.88 13.6129
8661.11 10.7855
8661.33 9.22887
8661.56 8.28428
8662.02 7.24646
8662.47 6.71943
8662.92 6.41559
8663.83 6.09661
8665.65 5.85220
8667.46 5.76050
8671.09 5.68942
8674.72 5.66097
8681.98 5.63546
8689.25 5.62230
8703.77 5.60601
8718.29 5.59432
8747.34 5.57557
8776.38 5.55930
8834.47 5.52934
8892.57 5.50046
9008.75 5.44211
9124.93 5.38006
9241.11 5.31136
9357.30 5.23177
9415.39 5.18556
9444.43 5.16016
9473.48 5.13288
9531.57 5.07466
9546.09 5.06419
9560.62 5.07026
9567.88 5.09811
9571.51 5.13190
9575.14 5.19880
9578.77 5.34874
9580.58 5.50023
9582.40 5.77608
9583.31 6.00687
9584.22 6.35559
9585.12 6.91745
9586.03 7.90535
9586.48 8.70825
9586.94 9.88971
9587.39 11.7287
9587.85 14.8054
9588.30 20.5494
9588.53 25.4713
9588.75 33.0720
9588.98 45.6128
9589.21 68.1301
9589.43 112.910
9589.55 151.713
9589.66 208.675
9589.83 331.114
9590.00 412.895
9590.17 331.456
9590.34 209.110
9590.45 152.551
9590.56 113.863
9590.79 69.2686
9591.01 46.5342
9591.23 33.8518
9591.46 26.0946
9591.68 21.0768
9592.13 15.1921
9592.57 12.0122
9593.02 10.1105
9593.91 8.05079
9594.81 7.01658
9595.70 6.42582
9596.59 6.05617
9597.49 5.80927
9599.27 5.50923
9601.06 5.33988
9604.63 5.16252
9608.21 5.07313
9611.78 5.01897
9618.93 4.95249
9633.22 4.86667
9647.51 4.78157
9661.80 4.66305
9668.95 4.57582
9676.10 4.45143
9683.24 4.25490
9686.82 4.10486
9690.39 3.88962
9692.18 3.74239
9693.96 3.55412
9695.75 3.30489
9697.54 2.96132
9698.43 2.73674
9699.32 2.46367
9700.22 2.12905
9701.11 1.72444
9702.00 1.28294
9702.45 1.11455
9702.90 1.12269
9703.12 1.29173
9703.34 1.69053
9703.57 2.51678
9703.79 4.17701
9703.90 5.57601
9704.01 7.60294
9704.13 10.5896
9704.24 15.0365
9704.35 21.9521
9704.46 32.8075
9704.57 50.5874
9704.68 79.3226
9704.84 146.950
9705.00 211.244
9705.08 212.604
9705.16 193.052
9705.32 136.951
9705.42 107.172
9705.53 85.3904
9705.74 58.2663
9705.95 43.2635
9706.16 34.2068
9706.37 28.3115
9706.58 24.2380
9707.00 19.0791
9707.42 15.9911
9707.84 13.9709
9708.68 11.5100
9709.52 10.0837
9710.35 9.16183
9711.19 8.51889
9712.03 8.04602
9713.71 7.39814
9715.39 6.97641
9717.07 6.68013
9718.75 6.46062
9722.10 6.15689
9725.46 5.95645
9728.82 5.81392
9732.17 5.70712
9738.89 5.55689
9745.60 5.45547
9759.03 5.32509
9772.45 5.24354
9785.88 5.19062
9792.59 5.17705
9799.31 5.18829
9802.66 5.22554
9806.02 5.35054
9807.70 5.53006
9808.54 5.70778
9809.38 6.02536
9810.21 6.67372
9810.63 7.28473
9811.05 8.32304
9811.47 10.3065
9811.68 12.0460
9811.89 14.7797
9812.10 19.4583
9812.31 28.2833
9812.42 35.8290
9812.52 47.2640
9812.63 65.1577
9812.73 92.9808
9812.87 146.158
9813.00 181.447
9813.14 146.180
9813.27 93.5344
9813.36 68.3084
9813.45 51.4514
9813.54 40.0563
9813.63 32.1888
9813.82 22.4993
9814.00 17.1483
9814.18 13.8910
9814.36 11.7942
9814.73 9.34302
9815.09 8.02124
9815.46 7.23165
9816.19 6.37667
9816.92 5.94653
9817.65 5.70013
9819.11 5.44126
9820.56 5.31389
9822.02 5.24089
9824.94 5.16254
9830.78 5.09549
9836.61 5.06266
9848.28 5.02285
9859.95 4.99375
9883.29 4.94538
9906.64 4.90214
9953.32 4.82094
10000.0 4.74141
10055.9 4.64724
10083.8 4.60365
10111.7 4.56968
10125.7 4.56141
10139.6 4.56564
10153.6 4.59436
10167.6 4.67620
10174.6 4.75831
10181.5 4.89400
10188.5 5.12923
10195.5 5.57047
10199.0 5.94456
10202.5 6.51306
10206.0 7.43109
10209.5 9.04409
10213.0 12.2522
10214.7 15.1975
10216.4 20.0331
10218.2 28.8713
10219.1 36.1994
10219.9 47.1846
10220.8 64.8215
10221.7 94.3708
10222.6 148.026
10223.4 249.664
10224.2 397.782
10225.0 497.259
10225.8 399.793
10226.6 252.240
10227.1 184.970
10227.6 139.270
10228.6 85.3067
10229.6 57.3376
10230.6 41.4334
10231.6 31.5711
10232.6 25.1879
10234.6 17.6418
10236.6 13.5195
10238.6 11.0490
10242.6 8.34380
10246.6 6.96650
10250.6 6.16897
10254.6 5.66293
10258.6 5.32008
10266.7 4.89036
10274.7 4.63530
10282.7 4.46501
10290.7 4.34116
10306.7 4.16443
10322.8 4.03336
10338.8 3.92213
10354.8 3.81941
10386.9 3.61809
10418.9 3.40436
10483.0 2.88597
10547.2 2.15582
10579.2 1.66685
10611.3 1.07233
10643.3 0.405737
10651.4 0.252346
10659.4 0.124654
10663.4 0.0769183
10667.4 0.0451907
10671.4 0.0349293
10675.4 0.0532757
10679.4 0.109954
10683.4 0.217965
10687.4 0.395024
10691.4 0.664741
10695.4 1.06250
10699.4 1.63614
10703.5 2.45542
10707.5 3.61950
10711.5 5.28783
10715.5 7.69439
10719.5 11.2114
10723.5 16.4239
10727.5 24.3479
10731.5 36.5939
10735.5 55.9538
10739.5 86.4197
10745.8 164.207
10752.0 240.484
10755.1 244.128
10758.3 223.388
10764.5 160.660
10767.3 136.340
10770.2 116.555
10771.6 108.223
10772.3 104.490
10773.0 101.162
10773.7 98.3415
10774.0 97.3316
10774.4 96.8365
10774.8 97.4793
10774.9 98.7394
10775.1 101.123
10775.3 106.160
10775.5 116.213
10775.5 125.991
10775.6 141.925
10775.7 169.072
10775.8 213.339
10775.9 287.026
10776.0 341.116
10776.1 288.346
10776.2 214.389
10776.3 173.426
10776.4 146.143
10776.4 128.932
10776.5 117.641
10776.7 104.373
10776.8 97.4945
10777.0 92.9137
10777.1 89.8203
10777.5 85.9144
10777.8 83.2600
10778.1 81.3139
10778.7 78.2437
10779.3 75.7447
10780.0 73.5391
10781.2 69.6669
10782.5 66.2131
10783.7 63.0932
10786.3 57.6586
10791.3 49.0929
10796.3 42.7023
10806.4 33.9297
10816.4 28.2948
10826.5 24.4168
10836.5 21.6148
10856.6 17.8670
10876.8 15.5004
10896.9 13.8820
10937.1 11.8251
10977.3 10.5790
11017.5 9.74587
11098.0 8.70229
11178.4 8.07321
11258.9 7.65010
11299.1 7.48564
11319.2 7.41210
11339.3 7.34360
11359.4 7.27995
11379.5 7.22243
11389.6 7.19872
11399.6 7.18804
11404.7 7.20100
11409.7 7.26814
11412.2 7.37740
11413.5 7.49112
11414.7 7.69961
11416.0 8.14631
11416.6 8.58324
11417.2 9.34027
11417.9 10.8805
11418.2 12.3357
11418.5 14.6945
11418.8 19.2190
11419.0 23.1083
11419.1 28.6602
11419.3 38.2690
11419.4 53.9775
11419.6 86.0580
11419.7 113.420
11419.7 152.358
11419.9 236.602
11420.0 298.866
11420.1 238.080
11420.3 153.594
11420.4 107.309
11420.5 77.3172
11420.6 58.2467
11420.6 46.7513
11420.8 32.1465
11421.0 24.2511
11421.2 19.3604
11421.4 16.4180
11421.8 13.0057
11422.2 11.1455
11422.6 10.0714
11423.3 8.89501
11424.1 8.30660
11424.9 7.96955
11426.4 7.61566
11428.0 7.44126
11429.5 7.34116
11432.6 7.23367
11438.7 7.14240
11444.9 7.09864
11457.2 7.04701
11469.5 7.00999
11494.2 6.94898
11518.8 6.89533
11543.4 6.84585
11568.1 6.79951
11617.3 6.71423
11666.6 6.63709
11715.9 6.56793
11740.5 6.53859
11765.2 6.52214
11777.5 6.53249
11783.6 6.55290
11789.8 6.59943
11792.9 6.64295
11796.0 6.71317
11799.0 6.83336
11802.1 7.05831
11803.7 7.24977
11805.2 7.54254
11806.7 8.01980
11808.3 8.87009
11809.1 9.56648
11809.8 10.5976
11810.6 12.2128
11811.4 14.9423
11812.1 20.0713
11812.5 24.5666
11812.9 31.3683
11813.3 42.9799
11813.7 63.4666
11814.1 104.303
11814.2 139.952
11814.4 192.491
11814.7 307.835
11815.0 382.359
11815.3 306.050
11815.6 195.557
11815.8 140.641
11816.0 105.486
11816.3 64.9550
11816.7 44.4287
11817.1 32.9215
11817.5 25.9066
11817.9 21.3403
11818.6 15.9756
11819.4 13.0722
11820.1 11.3275
11820.9 10.1977
11821.7 9.42398
11823.2 8.46065
11824.7 7.90482
11826.2 7.55410
11827.7 7.31793
11830.8 7.02784
11833.8 6.86162
11836.9 6.75640
11839.9 6.68479
11846.0 6.59447
11852.1 6.54011
11864.2 6.47636
11876.4 6.43779
11888.6 6.40989
11912.9 6.36788
11937.2 6.33402
11961.5 6.30396
12010.2 6.24939
12058.8 6.19863
12107.5 6.14971
12156.1 6.10154
12180.5 6.08170
12186.6 6.08259
12192.6 6.10049
12195.7 6.13467
12198.7 6.24420
12200.2 6.40321
12201.8 6.85328
12202.5 7.45751
12202.9 8.03638
12203.3 9.03949
12203.7 10.9967
12203.8 12.7523
12204.0 15.5915
12204.2 20.5923
12204.4 30.5079
12204.5 40.0329
12204.6 53.7219
12204.7 79.3982
12204.8 122.529
12204.9 194.740
12205.0 241.113
12205.1 196.399
12205.2 124.630
12205.3 88.5591
12205.4 66.5728
12205.4 50.0539
12205.5 40.3354
12205.7 27.7342
12205.8 21.2603
12205.9 17.0660
12206.1 14.5387
12206.4 11.4627
12206.7 9.76651
12207.0 8.79288
12207.5 7.73114
12208.1 7.18703
12208.7 6.87958
12209.9 6.55430
12212.2 6.30046
12214.5 6.20275
12219.2 6.12423
12223.9 6.09118
12233.2 6.05918
12242.5 6.04063
12261.2 6.01552
12270.5 6.02280
12272.9 6.04537
12275.2 6.12292
12276.4 6.24012
12277.5 6.57590
12278.1 7.04235
12278.7 8.26017
12279.0 9.77459
12279.1 11.1950
12279.3 13.3408
12279.4 17.4099
12279.6 24.9288
12279.6 32.7667
12279.7 43.8799
12279.8 62.1858
12279.8 93.3958
12279.9 146.405
12280.0 183.119
12280.1 148.270
12280.2 95.7196
12280.2 61.0952
12280.3 40.2796
12280.4 28.9720
12280.5 22.9379
12280.6 18.5771
12280.7 15.9661
12280.8 12.5521
12281.0 10.6412
12281.2 9.46675
12281.5 8.15796
12282.2 7.07812
12282.9 6.66098
12284.3 6.33061
12285.6 6.20355
12288.4 6.10163
12291.1 6.06035
12302.0 6.00574
12323.9 5.96915
12367.6 5.92130
12455.1 5.83430
12542.6 5.74495
12630.0 5.64875
12805.0 5.41872
12892.4 5.27225
12936.2 5.18685
12958.0 5.14058
12969.0 5.11801
12974.4 5.11367
12977.2 5.14038
12978.5 5.26128
12979.2 5.67017
12979.5 6.79343
12979.7 9.06506
12979.8 12.4354
12979.8 15.2372
12979.9 20.7292
12979.9 29.3346
12980.0 36.4779
12980.1 29.4266
12980.1 20.8390
12980.2 14.5222
12980.2 11.5031
12980.3 8.31325
12980.5 6.38341
12981.0 5.51491
12981.8 5.21058
12983.5 5.11707
12986.9 5.08400
12993.7 5.06068
13007.3 5.02482
13034.5 4.95179
13088.8 4.78439
13143.1 4.57746
13197.5 4.31305
13251.8 3.96096
13306.1 3.46716
13333.3 3.13743
13360.5 2.72624
13374.1 2.48121
13387.6 2.20510
13401.2 1.90134
13408.0 1.77874
13409.7 1.78637
13411.4 1.88743
13412.3 2.06098
13413.1 2.55742
13413.5 3.21141
13414.0 4.77295
13414.2 6.53081
13414.4 10.1658
13414.5 13.8036
13414.6 19.3511
13414.7 30.4105
13414.8 51.6962
13414.9 80.4140
13415.0 102.229
13415.1 80.7090
13415.2 52.0519
13415.3 32.1499
13415.4 21.1378
13415.5 14.9161
13415.6 11.4682
13415.8 7.28304
13416.0 5.32455
13416.4 3.48364
13416.8 2.69930
13417.5 2.05026
13418.3 1.78495
13419.9 1.55347
13421.4 1.43833
13427.7 1.17899
13440.1 0.763223
13452.6 0.366782
13458.8 0.198320
13465.1 0.0816565
13468.2 0.0568657
13471.3 0.0663453
13474.4 0.123174
13477.5 0.245014
13480.6 0.458153
13483.8 0.797443
13486.9 1.31777
13490.0 2.09317
13493.1 3.24553
13496.2 4.94633
13499.3 7.48912
13502.4 11.3107
13505.6 17.1844
13508.7 26.3132
13511.8 40.8031
13514.9 63.6357
13520.0 125.554
13525.0 189.663
13527.5 194.840
13530.1 180.059
13535.1 131.703
13540.4 92.2855
13545.7 68.0601
13551.0 53.0355
13556.3 43.2342
13561.6 36.4894
13566.9 31.6532
13577.5 25.2707
13588.1 21.3113
13598.7 18.6519
13619.9 15.3384
13641.2 13.3777
13662.4 12.0908
13673.0 11.6019
13683.6 11.1893
13688.9 11.0098
13694.2 10.8576
13696.8 10.8058
13699.5 10.8134
13700.8 10.8950
13702.1 11.1828
13702.8 11.5962
13703.5 12.6628
13703.8 13.9507
13704.1 16.8541
13704.3 19.9852
13704.5 25.4810
13704.5 30.7620
13704.6 37.8851
13704.7 48.7492
13704.8 65.6125
13704.9 98.7424
13705.0 121.293
13705.1 99.1999
13705.2 66.1792
13705.4 41.9248
13705.5 29.1516
13705.6 22.6106
13705.8 18.9269
13706.1 15.2104
13706.3 13.4860
13706.9 11.9876
13707.4 11.3758
13708.6 10.8651
13709.7 10.6517
13711.9 10.4534
13714.1 10.3455
13718.6 10.1987
13723.0 10.0823
13731.9 9.88142
13740.8 9.70470
13758.6 9.39875
13776.4 9.14084
13811.9 8.72754
13847.5 8.41044
13883.1 8.15883
13918.7 7.95406
13936.5 7.86531
13954.2 7.78486
13972.0 7.71970
13980.9 7.73610
13983.1 7.78510
13985.4 7.94296
13986.5 8.16845
13987.6 8.79045
13988.1 9.61282
13988.4 10.3884
13988.7 11.6488
13989.0 14.1042
13989.1 16.2421
13989.3 19.5945
13989.4 25.2405
13989.5 35.6794
13989.6 44.4154
13989.7 57.3696
13989.7 77.0676
13989.8 104.946
13989.9 161.941
13990.0 203.670
13990.1 163.091
13990.2 106.358
13990.3 63.4403
13990.4 41.3219
13990.6 29.7733
13990.7 23.6118
13990.8 19.3903
13990.9 16.6340
13991.1 13.4864
13991.4 11.6872
13991.6 10.6458
13992.1 9.49024
13993.0 8.53893
13993.9 8.17428
13995.8 7.88762
13997.7 7.77561
14001.4 7.68184
14005.2 7.63823
14012.6 7.58878
14020.1 7.55453
14035.1 7.49920
14050.0 7.45093
14079.9 7.36499
14094.9 7.32973
14102.4 7.33768
14104.3 7.36470
14106.1 7.45483
14107.1 7.58761
14108.0 7.95799
14108.5 8.45699
14108.9 9.71106
14109.2 11.3068
14109.4 14.8176
14109.5 18.6960
14109.6 25.3790
14109.7 31.5724
14109.7 41.1162
14109.8 56.3194
14109.9 76.2047
14109.9 120.788
14110.0 146.475
14110.1 121.831
14110.1 77.5601
14110.2 51.6875
14110.3 35.3712
14110.4 26.2993
14110.5 21.4474
14110.6 15.6929
14110.8 12.8347
14111.1 10.2261
14111.4 9.11234
14112.0 8.19892
14112.6 7.83913
14113.8 7.55693
14115.0 7.44771
14119.8 7.32299
14129.4 7.26667
14148.6 7.21378
14187.0 7.13365
14225.4 7.06460
14263.9 7.00289
14340.7 6.89626
14417.6 6.80666
14571.3 6.66286
14725.0 6.55058
15032.4 6.38049
15109.3 6.34516
15186.2 6.31176
15263.0 6.27978
15301.5 6.26411
15320.7 6.25721
15330.3 6.26026
15335.1 6.29323
15337.5 6.43912
15338.1 6.58719
15338.7 6.98459
15339.0 7.49118
15339.3 8.73200
15339.4 10.1527
15339.6 13.1606
15339.7 16.3243
15339.7 21.0951
15339.8 31.3988
15339.9 50.6331
15339.9 78.7229
15340.0 95.3552
15340.1 79.2581
15340.1 50.9721
15340.2 38.3361
15340.2 30.2797
15340.3 19.9490
15340.4 14.9353
15340.5 12.2073
15340.7 9.53533
15340.8 8.32789
15341.2 7.30136
15341.6 6.89546
15342.3 6.56645
15343.0 6.44005
15345.8 6.30530
15351.5 6.26435
15362.9 6.24819
15385.7 6.23563
15431.3 6.21715
15522.5 6.18339
15613.7 6.15069
15659.3 6.13431
15682.1 6.12740
15693.5 6.13397
15699.2 6.18610
15700.6 6.24516
15702.0 6.41399
15702.7 6.64423
15703.4 7.26018
15703.8 8.05840
15704.1 9.94736
15704.3 12.1562
15704.5 16.8536
15704.6 21.4167
15704.7 29.3138
15704.8 44.1279
15704.8 71.5780
15704.9 109.620
15705.0 138.106
15705.1 110.494
15705.2 72.6462
15705.2 50.0261
15705.3 37.2240
15705.4 27.9217
15705.4 22.7905
15705.5 16.3292
15705.7 12.9768
15705.9 9.81518
15706.2 8.43041
15706.7 7.27757
15707.2 6.82595
15708.3 6.46398
15709.3 6.32756
15713.4 6.18153
15721.7 6.13624
15738.3 6.11737
15771.4 6.10165
15837.6 6.07775
15970.1 6.03297
16102.6 5.98843
16235.0 5.94305
16500.0 5.84625
16632.4 5.79274
16698.7 5.76402
16731.8 5.74903
16748.3 5.74195
16756.6 5.74233
16760.8 5.76124
16762.8 5.84707
16763.9 6.16433
16764.1 6.46021
16764.4 7.18585
16764.5 8.01791
16764.6 9.78197
16764.8 14.4392
16764.8 19.3856
16764.9 30.5705
16764.9 44.2077
16765.0 55.5416
16765.1 44.5071
16765.1 30.7058
16765.2 22.1838
16765.2 17.6966
16765.3 12.6747
16765.4 8.82505
16765.6 7.46120
16765.8 6.83504
16766.1 6.29584
16766.4 6.07609
16767.7 5.83343
16770.3 5.76182
16775.4 5.73908
16785.7 5.72804
16806.3 5.71613
16847.6 5.69506
16930.0 5.65150
17012.4 5.60384
17053.6 5.57809
17074.3 5.56615
17084.6 5.56953
17089.7 5.61519
17091.0 5.66719
17092.3 5.81636
17092.9 6.02188
17093.6 6.56272
17093.9 7.24513
17094.2 8.89427
17094.4 10.7536
17094.5 14.6138
17094.6 18.2711
17094.7 24.4416
17094.8 35.6417
17094.8 44.6125
17094.9 59.2041
17094.9 92.6614
17095.0 113.614
17095.1 93.2562
17095.1 59.9607
17095.2 42.8040
17095.3 32.7997
17095.4 20.7180
17095.5 15.0373
17095.6 12.0033
17095.8 9.07521
17096.0 7.76825
17096.5 6.66656
17096.9 6.22545
17097.8 5.87892
17098.7 5.74682
17102.2 5.60646
17109.2 5.56173
17123.2 5.53992
17151.3 5.51593
17207.5 5.47185
17263.7 5.42491
17291.7 5.40116
17305.8 5.39604
17312.8 5.42449
17316.3 5.56084
17317.2 5.69908
17318.1 6.06900
17318.5 6.54011
17318.9 7.69575
17319.2 9.02307
17319.4 11.8454
17319.5 14.5878
17319.6 19.3353
17319.7 28.2367
17319.8 43.8077
17319.9 68.1752
17320.0 82.5733
17320.1 68.4303
17320.2 44.1365
17320.3 33.6065
17320.3 25.4819
17320.5 16.6382
17320.6 12.4354
17320.7 10.3019
17321.0 8.09477
17321.3 7.09255
17321.8 6.22886
17322.4 5.88904
17323.5 5.61878
17324.5 5.51598
17328.9 5.40631
17337.6 5.36817
17355.0 5.34194
17372.4 5.32278
17381.2 5.32087
17385.5 5.35400
17387.7 5.50686
17388.2 5.66221
17388.8 6.06375
17389.0 6.55966
17389.3 7.72062
17389.5 9.04341
17389.6 11.4646
17389.7 17.5656
17389.8 23.9846
17389.9 33.2963
17389.9 51.3750
17390.0 61.7684
17390.1 51.7427
17390.1 33.7740
17390.2 24.4355
17390.3 18.6862
17390.4 12.3389
17390.5 9.56264
17390.7 8.22516
17390.9 6.85235
17391.2 6.27846
17391.7 5.78923
17392.2 5.59804
17394.2 5.38598
17398.3 5.32045
17406.4 5.29302
17422.6 5.26809
17455.0 5.22559
17487.5 5.18137
17503.7 5.15836
17511.8 5.14884
17515.8 5.15506
17517.9 5.20354
17518.9 5.39058
17519.4 5.99325
17519.6 7.44975
17519.8 10.0911
17519.8 12.8680
17519.9 18.6783
17519.9 26.3735
17520.0 32.3183
17520.1 26.5501
17520.1 18.7743
17520.2 13.0622
17520.3 9.92867
17520.4 7.34887
17520.7 5.94023
17521.2 5.38568
17522.3 5.20602
17524.6 5.14970
17529.0 5.12743
17537.9 5.10877
17555.7 5.07816
17591.2 5.01484
17626.7 4.94483
17662.3 4.86651
17697.8 4.77849
17733.3 4.68122
17751.1 4.63273
17768.9 4.59908
17777.8 4.60867
17782.2 4.63567
17786.6 4.70044
17791.1 4.86071
17793.3 5.02911
17795.5 5.34035
17796.6 5.60166
17797.7 5.99589
17798.9 6.62701
17800.0 7.72320
17801.1 9.86595
17801.6 11.8118
17802.2 14.9050
17802.7 20.4636
17803.3 31.2951
17803.6 41.2261
17803.9 57.1612
17804.1 84.0125
17804.4 127.956
17804.7 201.869
17805.0 251.368
17805.3 200.768
17805.6 127.805
17806.0 76.5174
17806.3 50.2337
17806.6 35.5885
17806.9 26.8353
17807.3 21.1224
17807.6 17.4171
17808.3 12.9183
17808.9 10.3763
17809.6 8.84487
17810.9 7.13938
17812.3 6.25426
17813.6 5.74134
17814.9 5.41187
17816.2 5.18955
17818.9 4.91114
17821.5 4.74751
17826.8 4.56467
17832.1 4.46173
17837.4 4.39159
17848.0 4.29060
17890.4 3.98241
17911.7 3.81734
17932.9 3.62997
17975.3 3.15445
17996.5 2.84416
18017.7 2.46452
18038.9 1.99260
18060.1 1.40350
18081.3 0.695964
18091.9 0.339793
18097.2 0.190271
18102.5 0.0892537
18107.8 0.0805592
18110.5 0.133573
18113.1 0.243740
18115.8 0.432131
18118.4 0.728227
18121.1 1.17383
18123.7 1.82907
18126.4 2.78184
18129.0 4.16278
18131.7 6.16935
18134.3 9.10479
18137.0 13.4403
18139.6 19.9086
18142.3 29.6231
18144.9 44.1377
18150.0 89.8509
18155.0 139.264
18157.5 144.786
18160.1 135.328
18165.1 101.011
18170.4 71.9134
18175.8 53.7359
18181.1 42.3641
18186.5 34.9077
18191.8 29.7449
18197.1 26.0233
18207.8 21.0765
18218.5 17.9857
18229.1 15.8975
18250.5 13.2784
18271.8 11.7152
18293.2 10.6826
18303.8 10.2881
18314.5 9.95192
18325.2 9.66904
18330.5 9.57875
18333.2 9.68766
18333.9 9.84609
18334.5 10.2877
18334.9 10.8805
18335.2 12.3036
18335.4 13.9923
18335.5 17.3221
18335.6 20.9622
18335.7 26.5806
18335.8 36.8037
18335.8 45.0145
18335.9 58.7580
18335.9 89.3256
18336.0 108.828
18336.1 89.8912
18336.1 59.4720
18336.2 39.2577
18336.3 28.0844
18336.4 21.9659
18336.5 18.7208
18336.6 14.7296
18336.8 12.9175
18337.1 11.2194
18337.4 10.5035
18338.0 9.91681
18338.6 9.68095
18341.1 9.39201
18346.1 9.22299
18356.0 9.01700
18365.9 8.84499
18375.8 8.69175
18395.6 8.42658
18415.5 8.20413
18435.3 8.01447
18455.1 7.85123
18475.0 7.71684
18484.9 7.70076
18487.3 7.73999
18489.8 7.88422
18491.1 8.09766
18492.3 8.69398
18492.9 9.47595
18493.5 11.4518
18493.9 13.7928
18494.0 15.8978
18494.2 18.9683
18494.3 24.4415
18494.5 33.7602
18494.6 52.1513
18494.7 69.3493
18494.8 91.6822
18494.9 144.832
18495.0 177.164
18495.1 145.907
18495.2 93.0588
18495.3 65.6644
18495.4 48.4894
18495.5 36.5479
18495.6 29.5998
18495.8 21.0913
18496.0 16.8379
18496.2 14.1990
18496.3 12.6160
18496.7 10.7419
18497.5 9.16490
18498.2 8.53196
18499.7 8.02961
18501.2 7.83283
18504.1 7.67150
18507.1 7.60024
18513.0 7.52542
18518.9 7.47765
18530.8 7.40450
18542.6 7.34265
18566.3 7.23441
18590.0 7.13939
18637.4 6.97679
18684.8 6.84085
18732.2 6.72419
18779.6 6.62292
18803.3 6.57887
18827.0 6.54584
18838.9 6.54361
18850.7 6.58373
18856.6 6.66357
18859.6 6.75034
18862.6 6.91440
18865.5 7.26890
18867.0 7.61790
18868.5 8.23750
18870.0 9.48747
18870.7 10.6467
18871.4 12.5874
18872.2 16.1824
18872.6 19.2376
18872.9 23.9108
18873.3 31.5103
18873.7 44.8523
18874.0 70.4598
18874.2 92.7050
18874.4 122.813
18874.7 193.595
18875.0 241.539
18875.3 195.303
18875.6 124.951
18876.0 74.3601
18876.3 49.0154
18876.6 35.1495
18877.0 26.9676
18877.3 21.8013
18877.7 18.3526
18878.3 14.1994
18879.0 11.8977
18879.7 10.4929
18881.1 8.93813
18882.4 8.13648
18883.8 7.67417
18885.1 7.38050
18886.5 7.18169
18889.2 6.93529
18892.0 6.79361
18897.4 6.64091
18902.9 6.56152
18908.3 6.51254
18919.2 6.45285
18941.0 6.38565
18962.8 6.33949
19006.4 6.26489
19050.0 6.19867
19137.2 6.07507
19159.0 6.04672
19180.8 6.02641
19191.7 6.02985
19202.6 6.07773
19208.1 6.16653
19210.8 6.26294
19213.5 6.44485
19216.2 6.84076
19217.6 7.22999
19219.0 7.92046
19220.3 9.30834
19221.0 10.5882
19221.7 12.7150
19222.4 16.6063
19222.7 19.8682
19223.0 24.7867
19223.4 32.6246
19223.7 45.9833
19224.1 70.5156
19224.4 118.489
19224.7 188.052
19225.0 234.300
19225.3 190.642
19225.6 121.751
19225.8 85.6627
19226.1 62.8101
19226.3 47.9695
19226.5 38.0421
19227.0 26.0695
19227.5 19.7856
19227.9 15.9783
19228.4 13.6000
19229.3 10.8397
19230.2 9.34825
19231.2 8.46769
19232.1 7.89281
19233.0 7.50366
19234.9 7.01333
19236.7 6.73082
19240.4 6.42885
19244.1 6.27583
19247.8 6.18597
19255.2 6.08561
19262.7 6.03015
19270.1 5.99356
19284.9 5.94451
19314.5 5.87949
19344.1 5.82743
19403.4 5.73106
19462.7 5.63322
19521.9 5.52839
19581.2 5.41272
19610.8 5.34954
19640.5 5.28220
19670.1 5.21217
19684.9 5.18841
19692.3 5.23470
19694.2 5.29878
19696.0 5.48540
19697.0 5.73883
19697.9 6.39127
19698.4 7.21241
19698.8 9.08597
19699.0 11.0932
19699.3 14.9971
19699.4 18.6300
19699.5 23.8393
19699.6 33.1550
19699.7 48.3057
19699.9 74.8749
19700.0 92.0831
19700.1 75.3502
19700.3 48.9053
19700.4 30.8875
19700.6 21.1718
19700.7 15.8870
19700.9 12.9490
19701.2 9.61232
19701.4 8.06168
19702.0 6.64900
19702.6 6.06520
19703.8 5.58501
19705.0 5.39648
19707.3 5.24693
19709.6 5.18646
19719.0 5.10288
19737.7 5.03002
19775.2 4.90173
19812.7 4.76047
19850.1 4.59863
19925.1 4.18555
19962.5 3.91427
20000.0 3.57905
20000.0 8.37167
25000.0 8.42271
30000.0 8.48180
35000.0 8.54299
40000.0 8.60352
50000.0 8.71815
60000.0 8.82174
70000.0 8.91412
80000.0 8.99598
99999.9 9.13222
100000 9.15145
144665 9.27960
150000 9.29231
200000 9.28411
206067 9.27196
206246 9.27158
206247 9.27158
206269 9.27153
206270 9.27153
226973 9.22989
250000 9.18782
300000 9.04007
420000 8.53291
420000 8.53291
485906 8.31328
485910 8.31327
485956 8.31313
485957 8.31313
490000 8.30075
500000 8.27056
541007 8.13330
541010 8.13329
541231 8.13257
541232 8.13257
562500 8.06546
599694 7.95399
600000 7.95310
600000 7.95310
616012 7.89260
625000 7.85932
664748 7.71769
664817 7.71745
686670 7.64317
686674 7.64316
687500 7.64039
700000 7.59901
701411 7.59396
701701 7.59292
726686 7.50511
726690 7.50509
726762 7.50484
726763 7.50484
726989 7.50406
728303 7.49952
728606 7.49848
742370 7.45151
742471 7.45117
742526 7.45098
750000 7.42584
760838 7.38984
760917 7.38958
773939 7.34700
786380 7.30698
786385 7.30696
786486 7.30664
794556 7.28103
795510 7.27802
795512 7.27801
800000 7.26389
803275 7.25311
812500 7.22299
829228 7.16924
829321 7.16894
849653 7.10507
875000 7.02753
880259 7.01173
880260 7.01173
880356 7.01144
880457 7.01115
880460 7.01113
897344 6.96085
897445 6.96056
900000 6.95323
937500 6.84397
957664 6.78726
957665 6.78726
957770 6.78697
957772 6.78696
957873 6.78668
999999 6.67245
1.00000E+06 6.67245
1.00334E+06 6.66422
1.03516E+06 6.58710
1.03520E+06 6.58701
1.03527E+06 6.58683
1.03528E+06 6.58682
1.05014E+06 6.55162
1.05024E+06 6.55138
1.06781E+06 6.51041
1.06790E+06 6.51020
1.06793E+06 6.51013
1.06907E+06 6.50750
1.07026E+06 6.50475
1.07444E+06 6.49513
1.08510E+06 6.47075
1.08511E+06 6.47072
1.08552E+06 6.46979
1.10397E+06 6.42817
1.10417E+06 6.42772
1.12832E+06 6.37429
1.12840E+06 6.37411
1.12842E+06 6.37408
1.12854E+06 6.37382
1.12855E+06 6.37379
1.12863E+06 6.37361
1.12874E+06 6.37337
1.13815E+06 6.35288
1.14747E+06 6.33274
1.14757E+06 6.33252
1.15997E+06 6.30599
1.16056E+06 6.30472
1.16240E+06 6.30081
1.20000E+06 6.22219
1.20722E+06 6.20861
1.23549E+06 6.15619
1.25000E+06 6.12975
1.27630E+06 6.08258
1.27630E+06 6.08258
1.28180E+06 6.07283
1.28625E+06 6.06499
1.29736E+06 6.04551
1.29797E+06 6.04443
1.31599E+06 6.01321
1.31614E+06 6.01295
1.32392E+06 5.99961
1.36676E+06 5.92747
1.38426E+06 5.89866
1.39062E+06 5.88828
1.40000E+06 5.87306
1.42417E+06 5.83274
1.44069E+06 5.80557
1.44085E+06 5.80531
1.44706E+06 5.79517
1.44823E+06 5.79328
1.45226E+06 5.78672
1.45722E+06 5.77869
1.46206E+06 5.77089
1.47807E+06 5.74523
1.50000E+06 5.71056
1.50000E+06 5.71055
1.51345E+06 5.68902
1.51355E+06 5.68887
1.52556E+06 5.66981
1.52566E+06 5.66965
1.52607E+06 5.66900
1.52610E+06 5.66895
1.53138E+06 5.66063
1.54768E+06 5.63510
1.55700E+06 5.62063
1.55718E+06 5.62035
1.55738E+06 5.62004
1.56128E+06 5.61401
1.56819E+06 5.60336
1.56930E+06 5.60165
1.58139E+06 5.58316
1.59060E+06 5.56916
1.59061E+06 5.56915
1.59645E+06 5.56029
1.63724E+06 5.49941
1.63742E+06 5.49915
1.63815E+06 5.49807
1.64300E+06 5.49094
1.64310E+06 5.49079
1.64512E+06 5.48783
1.64522E+06 5.48768
1.66248E+06 5.46252
1.66258E+06 5.46237
1.68775E+06 5.42615
1.70000E+06 5.40873
1.70089E+06 5.40744
1.72514E+06 5.37300
1.72861E+06 5.36811
1.75000E+06 5.33818
1.76071E+06 5.32331
1.76082E+06 5.32316
1.76122E+06 5.32260
1.77662E+06 5.30139
1.78140E+06 5.29484
1.78353E+06 5.29194
1.78827E+06 5.28547
1.80160E+06 5.26738
1.81907E+06 5.24387
1.86620E+06 5.18155
1.88390E+06 5.15855
1.88422E+06 5.15814
1.88433E+06 5.15800
1.88916E+06 5.15175
1.90028E+06 5.13745
1.90953E+06 5.12562
1.92736E+06 5.10297
1.92740E+06 5.10291
1.95860E+06 5.06380
1.98040E+06 5.03685
1.98524E+06 5.03090
1.98566E+06 5.03038
1.99911E+06 5.01394
1.99921E+06 5.01382
2.00000E+06 5.01286
2.00596E+06 5.00597
2.01000E+06 5.00132
2.01000E+06 5.00131
2.01148E+06 4.99961
2.02126E+06 4.98838
2.02296E+06 4.98643
2.03444E+06 4.97334
2.03829E+06 4.96897
2.03830E+06 4.96895
2.03839E+06 4.96885
2.04592E+06 4.96031
2.05320E+06 4.95209
2.05353E+06 4.95172
2.05740E+06 4.94737
2.05859E+06 4.94604
2.05902E+06 4.94556
2.06060E+06 4.94377
2.06888E+06 4.93449
2.07511E+06 4.92753
2.08036E+06 4.92168
2.08961E+06 4.91141
2.09184E+06 4.90894
2.09403E+06 4.90653
2.09450E+06 4.90600
2.09893E+06 4.90111
2.10603E+06 4.89329
2.11313E+06 4.88549
2.11764E+06 4.88056
2.12022E+06 4.87774
2.12262E+06 4.87513
2.12648E+06 4.87092
2.12659E+06 4.87080
2.12731E+06 4.87002
2.13441E+06 4.86230
2.14150E+06 4.85463
2.14860E+06 4.84696
2.15220E+06 4.84309
2.15570E+06 4.83933
2.16279E+06 4.83173
2.16988E+06 4.82415
2.17698E+06 4.81659
2.17781E+06 4.81571
2.18407E+06 4.80906
2.19117E+06 4.80155
2.19827E+06 4.79406
2.20342E+06 4.78865
2.20536E+06 4.78661
2.20769E+06 4.78416
2.21245E+06 4.77918
2.21955E+06 4.77176
2.22664E+06 4.76438
2.22903E+06 4.76190
2.22950E+06 4.76141
2.22964E+06 4.76126
2.23374E+06 4.75701
2.24084E+06 4.74967
2.24264E+06 4.74781
2.24671E+06 4.74362
2.24691E+06 4.74341
2.24793E+06 4.74236
2.25000E+06 4.74023
2.25502E+06 4.73507
2.25800E+06 4.73201
2.26212E+06 4.72779
2.26533E+06 4.72451
2.26860E+06 4.72117
2.26921E+06 4.72055
2.27631E+06 4.71332
2.28341E+06 4.70611
2.28760E+06 4.70187
2.29050E+06 4.69893
2.29759E+06 4.69178
2.30469E+06 4.68464
2.30660E+06 4.68272
2.30765E+06 4.68167
2.31178E+06 4.67753
2.31864E+06 4.67067
2.31888E+06 4.67043
2.31985E+06 4.66946
2.31985E+06 4.66946
2.32088E+06 4.66843
2.32598E+06 4.66335
2.33307E+06 4.65631
2.33863E+06 4.65080
2.34016E+06 4.64928
2.34726E+06 4.64227
2.35435E+06 4.63529
2.35740E+06 4.63229
2.35744E+06 4.63226
2.36145E+06 4.62832
2.36362E+06 4.62619
2.36774E+06 4.62216
2.36785E+06 4.62205
2.36815E+06 4.62177
2.36855E+06 4.62137
2.37564E+06 4.61446
2.38273E+06 4.60756
2.38983E+06 4.60067
2.39520E+06 4.59548
2.39692E+06 4.59382
2.40402E+06 4.58697
2.41112E+06 4.58014
2.41821E+06 4.57335
2.41836E+06 4.57321
2.41870E+06 4.57287
2.41891E+06 4.57267
2.42150E+06 4.57020
2.42530E+06 4.56657
2.42972E+06 4.56235
2.43240E+06 4.55980
2.43406E+06 4.55822
2.43949E+06 4.55307
2.43999E+06 4.55259
2.44473E+06 4.54809
2.44659E+06 4.54633
2.44903E+06 4.54403
2.44953E+06 4.54356
2.44953E+06 4.54356
2.45162E+06 4.54158
2.45172E+06 4.54149
2.45280E+06 4.54047
2.45369E+06 4.53963
2.46078E+06 4.53295
2.46405E+06 4.52988
2.46627E+06 4.52779
2.46787E+06 4.52629
2.47497E+06 4.51965
2.47524E+06 4.51939
2.48206E+06 4.51302
2.48916E+06 4.50641
2.49494E+06 4.50104
2.49626E+06 4.49982
2.50000E+06 4.49635
2.50335E+06 4.49378
2.50679E+06 4.49114
2.50709E+06 4.49091
2.51044E+06 4.48836
2.51101E+06 4.48793
2.51754E+06 4.48294
2.52000E+06 4.48106
2.52000E+06 4.48106
2.52050E+06 4.48068
2.52463E+06 4.47753
2.52629E+06 4.47627
2.52781E+06 4.47512
2.53173E+06 4.47215
2.53212E+06 4.47185
2.53883E+06 4.46677
2.54592E+06 4.46142
2.54725E+06 4.46041
2.54735E+06 4.46034
2.55301E+06 4.45608
2.55473E+06 4.45479
2.55483E+06 4.45471
2.55607E+06 4.45378
2.55790E+06 4.45241
2.56011E+06 4.45075
2.56054E+06 4.45043
2.56055E+06 4.45042
2.56092E+06 4.45014
2.56110E+06 4.45001
2.56112E+06 4.44999
2.56112E+06 4.44999
2.56712E+06 4.44550
2.56720E+06 4.44544
2.57430E+06 4.44013
2.58140E+06 4.43485
2.58849E+06 4.42959
2.58908E+06 4.42915
2.59437E+06 4.42525
2.59437E+06 4.42524
2.59457E+06 4.42509
2.59558E+06 4.42434
2.60268E+06 4.41909
2.60977E+06 4.41386
2.61615E+06 4.40917
2.61687E+06 4.40865
2.62128E+06 4.40542
2.62159E+06 4.40519
2.62397E+06 4.40345
2.63106E+06 4.39827
2.63803E+06 4.39320
2.63815E+06 4.39311
2.63955E+06 4.39210
2.63955E+06 4.39210
2.64107E+06 4.39098
2.64168E+06 4.39054
2.64525E+06 4.38795
2.64645E+06 4.38708
2.65234E+06 4.38280
2.65944E+06 4.37766
2.66044E+06 4.37694
2.66172E+06 4.37602
2.66654E+06 4.37254
2.67363E+06 4.36744
2.67699E+06 4.36502
2.68072E+06 4.36235
2.68782E+06 4.35727
2.69226E+06 4.35410
2.69491E+06 4.35221
2.70201E+06 4.34716
2.70753E+06 4.34325
2.70911E+06 4.34213
2.71620E+06 4.33711
2.72280E+06 4.33246
2.72329E+06 4.33211
2.73039E+06 4.32712
2.73748E+06 4.32215
2.73807E+06 4.32173
2.74458E+06 4.31718
2.75168E+06 4.31223
2.75334E+06 4.31108
2.75877E+06 4.30730
2.76586E+06 4.30239
2.76861E+06 4.30048
2.76923E+06 4.30006
2.76943E+06 4.29992
2.77296E+06 4.29747
2.77363E+06 4.29701
2.78005E+06 4.29257
2.78715E+06 4.28767
2.78973E+06 4.28589
2.79029E+06 4.28551
2.79069E+06 4.28524
2.79301E+06 4.28365
2.79425E+06 4.28279
2.79783E+06 4.28033
2.79783E+06 4.28033
2.80134E+06 4.27793
2.80843E+06 4.27307
2.81553E+06 4.26822
2.81657E+06 4.26752
2.82262E+06 4.26339
2.82972E+06 4.25857
2.83530E+06 4.25479
2.83594E+06 4.25436
2.83682E+06 4.25376
2.84391E+06 4.24897
2.85081E+06 4.24432
2.85100E+06 4.24420
2.85810E+06 4.23942
2.86519E+06 4.23467
2.86636E+06 4.23389
2.86636E+06 4.23389
2.87229E+06 4.22992
2.87936E+06 4.22520
2.87939E+06 4.22518
2.88098E+06 4.22412
2.88100E+06 4.22411
2.88648E+06 4.22046
2.88681E+06 4.22024
2.89357E+06 4.21575
2.90038E+06 4.21124
2.90067E+06 4.21105
2.90103E+06 4.21081
2.90103E+06 4.21081
2.90325E+06 4.20934
2.90325E+06 4.20933
2.90776E+06 4.20636
2.91486E+06 4.20168
2.92196E+06 4.19700
2.92416E+06 4.19556
2.92905E+06 4.19235
2.93614E+06 4.18771
2.94324E+06 4.18308
2.94507E+06 4.18189
2.95033E+06 4.17846
2.95743E+06 4.17385
2.96453E+06 4.16924
2.96597E+06 4.16831
2.97162E+06 4.16466
2.97871E+06 4.16009
2.98581E+06 4.15552
2.98688E+06 4.15483
2.98755E+06 4.15440
2.99000E+06 4.15283
2.99000E+06 4.15283
2.99290E+06 4.15097
2.99685E+06 4.14844
2.99690E+06 4.14840
2.99695E+06 4.14836
2.99695E+06 4.14836
3.00000E+06 4.14641
3.03030E+06 4.13251
3.03120E+06 4.13209
3.03125E+06 4.13207
3.03160E+06 4.13192
3.03190E+06 4.13177
3.03292E+06 4.13131
3.04000E+06 4.12809
3.06250E+06 4.11789
3.09375E+06 4.10386
3.09632E+06 4.10271
3.09773E+06 4.10207
3.12500E+06 4.08996
3.12520E+06 4.08987
3.12523E+06 4.08987
3.15625E+06 4.07623
3.18750E+06 4.06263
3.19817E+06 4.05801
3.21619E+06 4.05026
3.21875E+06 4.04916
3.22371E+06 4.04704
3.25000E+06 4.03579
3.28125E+06 4.02256
3.30646E+06 4.01198
3.30712E+06 4.01170
3.31250E+06 4.00945
3.34375E+06 3.99648
3.37500E+06 3.98362
3.40452E+06 3.97160
3.40608E+06 3.97097
3.40625E+06 3.97090
3.41362E+06 3.96792
3.43750E+06 3.95830
3.46410E+06 3.94767
3.46875E+06 3.94581
3.50000E+06 3.93341
3.50000E+06 3.93341
3.53125E+06 3.92567
3.53530E+06 3.92467
3.53610E+06 3.92447
3.53680E+06 3.92430
3.53760E+06 3.92410
3.56250E+06 3.91796
3.57924E+06 3.91385
3.58087E+06 3.91346
3.59375E+06 3.91032
3.61959E+06 3.90405
3.62153E+06 3.90358
3.62500E+06 3.90275
3.65625E+06 3.89525
3.65927E+06 3.89453
3.66094E+06 3.89413
3.66458E+06 3.89325
3.68750E+06 3.88781
3.71875E+06 3.88045
3.72848E+06 3.87817
3.72850E+06 3.87817
3.75000E+06 3.87316
3.78125E+06 3.86593
3.81250E+06 3.85876
3.84211E+06 3.85203
3.84375E+06 3.85166
3.87500E+06 3.84463
3.90625E+06 3.83766
3.92106E+06 3.83438
3.93750E+06 3.83075
3.96875E+06 3.82390
4.00000E+06 3.81712
4.02000E+06 3.81543
4.02000E+06 3.81543
4.06250E+06 3.81187
4.12500E+06 3.80673
4.18750E+06 3.80171
4.21930E+06 3.79919
4.25000E+06 3.79678
4.31250E+06 3.79197
4.37500E+06 3.78725
4.43750E+06 3.78263
4.45062E+06 3.78168
4.50000E+06 3.77811
4.51000E+06 3.77858
4.51000E+06 3.77858
4.56250E+06 3.78106
4.62500E+06 3.78400
4.68750E+06 3.78693
4.69462E+06 3.78726
4.75000E+06 3.78986
4.81250E+06 3.79278
4.82331E+06 3.79329
4.87500E+06 3.79571
4.93750E+06 3.79865
4.95200E+06 3.79933
5.00000E+06 3.80160
5.00000E+06 3.80160
5.12500E+06 3.82194
5.21019E+06 3.83558
5.25000E+06 3.84190
5.37500E+06 3.86152
5.48524E+06 3.87854
5.50000E+06 3.88080
5.50152E+06 3.88104
5.62500E+06 3.89977
5.66944E+06 3.90645
5.68506E+06 3.90878
5.75000E+06 3.91846
5.87500E+06 3.93688
6.00000E+06 3.95507
6.02000E+06 3.95886
6.02000E+06 3.95887
6.25328E+06 4.00241
6.39579E+06 4.02819
6.48074E+06 4.04330
6.56924E+06 4.05888
6.88521E+06 4.11309
6.88694E+06 4.11338
6.88766E+06 4.11350
6.89675E+06 4.11502
6.99205E+06 4.13084
7.00000E+06 4.13215
7.01668E+06 4.13425
7.03335E+06 4.13633
7.04000E+06 4.13717
7.04000E+06 4.13717
7.04941E+06 4.13834
7.06546E+06 4.14035
7.08698E+06 4.14303
7.10850E+06 4.14570
7.13002E+06 4.14837
7.15154E+06 4.15102
7.17306E+06 4.15368
7.19458E+06 4.15632
7.21610E+06 4.15896
7.23762E+06 4.16159
7.26460E+06 4.16488
7.29158E+06 4.16816
7.31856E+06 4.17142
7.34555E+06 4.17468
7.37253E+06 4.17793
7.39951E+06 4.18117
7.42649E+06 4.18439
7.44533E+06 4.18664
7.45347E+06 4.18761
7.45430E+06 4.18770
7.45598E+06 4.18790
7.48331E+06 4.19115
7.50688E+06 4.19392
7.53044E+06 4.19668
7.54412E+06 4.19827
7.54566E+06 4.19846
7.54755E+06 4.19868
7.56445E+06 4.20065
7.58271E+06 4.20277
7.60097E+06 4.20489
7.61923E+06 4.20701
7.63750E+06 4.20913
7.65576E+06 4.21124
7.67402E+06 4.21334
7.69228E+06 4.21544
7.71054E+06 4.21754
7.71191E+06 4.21769
7.73734E+06 4.22061
7.75650E+06 4.22280
7.77567E+06 4.22498
7.79483E+06 4.22716
7.81399E+06 4.22933
7.83315E+06 4.23150
7.85232E+06 4.23366
7.87148E+06 4.23583
7.89064E+06 4.23798
7.89065E+06 4.23798
7.91799E+06 4.24104
7.94533E+06 4.24409
7.97266E+06 4.24712
8.00000E+06 4.25015
8.00000E+06 4.25015
8.05977E+06 4.25410
8.11954E+06 4.25802
8.17930E+06 4.26191
8.23907E+06 4.26579
8.29411E+06 4.26932
8.33674E+06 4.27206
8.37937E+06 4.27479
8.38459E+06 4.27512
8.42982E+06 4.27800
8.47504E+06 4.28086
8.48528E+06 4.28151
8.53426E+06 4.28457
8.58324E+06 4.28761
8.58822E+06 4.28793
8.64442E+06 4.29139
8.70061E+06 4.29483
8.73003E+06 4.29662
8.73046E+06 4.29665
8.73143E+06 4.29671
8.73609E+06 4.29700
8.73885E+06 4.29716
8.82787E+06 4.30256
8.91563E+06 4.30785
8.93361E+06 4.30894
8.99000E+06 4.31229
8.99000E+06 4.31229
9.00000E+06 4.31288
9.12011E+06 4.31481
9.24021E+06 4.31674
9.25057E+06 4.31691
9.25523E+06 4.31698
9.31639E+06 4.31797
9.32621E+06 4.31814
9.39440E+06 4.31923
9.39472E+06 4.31924
9.39988E+06 4.31933
9.40010E+06 4.31934
9.47852E+06 4.32061
9.48683E+06 4.32074
9.62468E+06 4.32288
9.62972E+06 4.32297
9.74004E+06 4.32470
9.74409E+06 4.32476
9.77649E+06 4.32527
9.78944E+06 4.32546
9.84274E+06 4.32624
9.89603E+06 4.32703
9.89837E+06 4.32707
9.94919E+06 4.32785
1.00000E+07 4.32865
1.00300E+07 4.32732
1.00300E+07 4.32732
1.00305E+07 4.32729
1.00610E+07 4.32598
1.00915E+07 4.32471
1.01220E+07 4.32349
1.01525E+07 4.32231
1.01830E+07 4.32118
1.02136E+07 4.32009
1.02441E+07 4.31905
1.02746E+07 4.31805
1.03051E+07 4.31709
1.03356E+07 4.31617
1.03661E+07 4.31530
1.03966E+07 4.31448
1.04271E+07 4.31369
1.04576E+07 4.31295
1.04881E+07 4.31225
1.05000E+07 4.31197
1.05277E+07 4.31133
1.05554E+07 4.31073
1.05831E+07 4.31016
1.06108E+07 4.30963
1.06384E+07 4.30913
1.06661E+07 4.30867
1.06938E+07 4.30824
1.07215E+07 4.30784
1.07563E+07 4.30739
1.07911E+07 4.30699
1.08259E+07 4.30664
1.08608E+07 4.30635
1.08956E+07 4.30611
1.09304E+07 4.30592
1.09652E+07 4.30578
1.10000E+07 4.30569
1.10743E+07 4.30046
1.11485E+07 4.29544
1.11988E+07 4.29216
1.12491E+07 4.28897
1.13091E+07 4.28529
1.13691E+07 4.28175
1.14291E+07 4.27834
1.14891E+07 4.27506
1.15000E+07 4.27448
1.15732E+07 4.27069
1.16463E+07 4.26709
1.17195E+07 4.26368
1.17926E+07 4.26046
1.18321E+07 4.25880
1.18715E+07 4.25719
1.19358E+07 4.25470
1.20000E+07 4.25234
1.20000E+07 4.25234
1.21029E+07 4.24323
1.22058E+07 4.23444
1.23087E+07 4.22596
1.24117E+07 4.21779
1.25146E+07 4.20992
1.26175E+07 4.20235
1.27204E+07 4.19509
1.28233E+07 4.18812
1.28314E+07 4.18758
1.29157E+07 4.18211
1.30000E+07 4.17683
1.31250E+07 4.16255
1.32500E+07 4.14863
1.33750E+07 4.13505
1.35000E+07 4.12183
1.36035E+07 4.11114
1.37069E+07 4.10068
1.38342E+07 4.08813
1.39615E+07 4.07593
1.39800E+07 4.07419
1.39800E+07 4.07419
1.40000E+07 4.07231
1.41806E+07 4.04757
1.43611E+07 4.02346
1.43671E+07 4.02266
1.43694E+07 4.02237
1.45000E+07 4.00532
1.45009E+07 4.00521
1.45019E+07 4.00508
1.45039E+07 4.00482
1.45058E+07 4.00456
1.45078E+07 4.00430
1.45117E+07 4.00381
1.45156E+07 4.00329
1.45195E+07 4.00279
1.45234E+07 4.00229
1.45312E+07 4.00128
1.45390E+07 4.00027
1.45468E+07 3.99926
1.45625E+07 3.99723
1.45781E+07 3.99522
1.45937E+07 3.99321
1.46250E+07 3.98921
1.46562E+07 3.98522
1.46875E+07 3.98125
1.47187E+07 3.97730
1.47500E+07 3.97335
1.47812E+07 3.96945
1.48125E+07 3.96554
1.48750E+07 3.95778
1.49597E+07 3.94740
1.50000E+07 3.94250
1.50926E+07 3.92991
1.51852E+07 3.91744
1.54015E+07 3.88865
1.56177E+07 3.86053
1.56321E+07 3.85868
1.56503E+07 3.85634
1.56847E+07 3.85195
1.57274E+07 3.84652
1.58773E+07 3.82766
1.60000E+07 3.81247
1.61365E+07 3.79749
1.61510E+07 3.79591
1.62958E+07 3.78026
1.63869E+07 3.77053
1.64472E+07 3.76414
1.67032E+07 3.73744
1.67087E+07 3.73687
1.67104E+07 3.73671
1.69056E+07 3.71683
1.69900E+07 3.70828
1.69900E+07 3.70828
1.70000E+07 3.70728
1.72289E+07 3.68994
1.72426E+07 3.68891
1.74015E+07 3.67714
1.76685E+07 3.65778
1.79355E+07 3.63895
1.79355E+07 3.63895
1.79482E+07 3.63804
1.79483E+07 3.63803
1.80000E+07 3.63437
1.82500E+07 3.61649
1.85000E+07 3.59904
1.87500E+07 3.58201
1.90000E+07 3.56542
1.95000E+07 3.53197
2.00000E+07 3.50000