Mo-100(n,tot) ENDF/B-VII.1
Energy(eV) XS(b)
1.00000E-05 15.3123
1.25000E-05 14.2553
1.50000E-05 13.4750
2.00000E-05 12.3798
2.75000E-05 11.3378
3.50000E-05 10.6520
4.25000E-05 10.1569
5.00000E-05 9.77783
6.25000E-05 9.30513
7.50000E-05 8.95620
0.000100000 8.46642
0.000125000 8.13217
0.000150000 7.88544
0.000200000 7.53911
0.000275000 7.20958
0.000350000 6.99270
0.000425000 6.83614
0.000500000 6.71628
0.000625000 6.56680
0.000750000 6.45646
0.00100000 6.30157
0.00125000 6.19587
0.00150000 6.11785
0.00200000 6.00833
0.00275000 5.90412
0.00350000 5.83553
0.00425000 5.78602
0.00500000 5.74812
0.00625000 5.70084
0.00750000 5.66594
0.0100000 5.61696
0.0125000 5.58352
0.0150000 5.55884
0.0200000 5.52419
0.0253000 5.49935
0.0314750 5.47874
0.0376500 5.46343
0.0500000 5.44182
0.0625000 5.42683
0.0750000 5.41576
0.100000 5.40020
0.125000 5.38955
0.150000 5.38168
0.200000 5.37058
0.275000 5.35995
0.350000 5.35287
0.500000 5.34371
0.750000 5.33479
1.00000 5.32920
1.50000 5.32201
2.00000 5.31718
2.75000 5.31184
3.50000 5.30764
5.00000 5.30085
7.50000 5.29162
10.0000 5.28354
15.0000 5.26885
20.0000 5.25518
27.5000 5.23566
35.0000 5.21688
50.0000 5.18054
73.5800 5.12461
79.4749 5.11072
85.3699 5.09720
88.3174 5.09106
89.7912 5.08851
91.2649 5.08686
92.7387 5.08747
93.4755 5.08991
94.2124 5.09589
94.5809 5.10157
94.9493 5.11077
95.3177 5.12649
95.6862 5.15579
95.8704 5.18070
96.0546 5.21881
96.2388 5.28114
96.4230 5.39315
96.5151 5.48597
96.6073 5.62522
96.6994 5.84777
96.7915 6.23566
96.8836 7.00298
96.9296 7.70376
96.9757 8.86119
97.0218 10.9699
97.0448 12.7346
97.0678 15.3941
97.0908 19.6402
97.1139 26.9000
97.1369 40.3281
97.1599 66.3959
97.1800 103.222
97.2000 127.789
97.2201 103.242
97.2401 66.4204
97.2617 41.5301
97.2832 28.1847
97.3048 20.7415
97.3264 16.2971
97.3479 13.4692
97.3695 11.5740
97.4126 9.28411
97.4557 8.01311
97.4989 7.23833
97.5851 6.38389
97.6713 5.94892
97.7576 5.69811
97.8438 5.54052
97.9301 5.43509
98.1026 5.30712
98.2751 5.23530
98.4476 5.19092
98.6201 5.16153
98.9650 5.12608
99.3100 5.10612
99.6550 5.09362
100.000 5.08514
100.781 5.07331
101.563 5.06626
102.344 5.06133
103.125 5.05748
104.688 5.05135
106.250 5.04620
109.375 5.03699
112.500 5.02829
125.000 4.99379
150.000 4.91906
200.000 4.72367
220.418 4.61315
240.836 4.47163
261.254 4.28145
281.673 4.00926
291.882 3.82290
302.091 3.58380
312.300 3.26602
322.509 2.82468
327.613 2.53463
332.718 2.17986
337.822 1.74353
342.927 1.21850
345.479 0.936827
348.032 0.679908
349.308 0.585872
350.584 0.543204
351.222 0.553058
351.541 0.568831
351.860 0.593385
352.179 0.628136
352.498 0.674706
352.817 0.735034
353.136 0.811392
353.455 0.906499
353.774 1.02349
354.412 1.33920
355.050 1.79910
355.688 2.46255
356.326 3.41921
356.964 4.80712
357.603 6.84817
358.241 9.91091
358.879 14.6437
359.517 22.2544
360.155 35.1864
360.793 58.9298
361.112 78.6257
361.431 107.820
361.750 153.224
362.069 228.381
362.388 363.700
362.548 474.496
362.707 637.093
362.867 886.047
363.026 1285.93
363.186 1959.17
363.345 3114.72
363.523 5123.09
363.700 6579.24
363.878 5405.75
364.055 3469.77
364.188 2450.86
364.321 1779.74
364.453 1337.36
364.586 1037.87
364.852 676.497
365.117 477.871
365.383 357.767
365.648 279.756
366.179 187.690
366.710 137.196
367.241 106.329
367.772 85.9495
368.303 71.7088
369.365 53.4561
370.428 42.4945
371.490 35.3091
372.552 30.2942
374.676 23.8396
376.800 19.9212
378.924 17.3182
381.048 15.4762
385.297 13.0598
389.545 11.5564
393.793 10.5360
398.041 9.80036
406.538 8.81325
415.034 8.18294
423.531 7.74618
432.028 7.42582
449.021 6.98728
466.014 6.70094
483.007 6.49928
491.504 6.41999
495.752 6.38543
497.876 6.36999
500.000 6.35684
501.840 6.34971
502.759 6.34972
503.679 6.35553
504.599 6.37577
505.059 6.39924
505.518 6.44465
505.748 6.48394
505.978 6.54460
506.208 6.64462
506.438 6.82574
506.553 6.97675
506.668 7.20448
506.783 7.57078
506.898 8.21427
506.956 8.73691
507.013 9.50592
507.071 10.7032
507.128 12.7093
507.185 16.4600
507.214 19.6878
507.243 24.6675
507.272 32.9443
507.300 47.8389
507.315 60.0675
507.329 77.6986
507.344 104.039
507.358 142.773
507.379 224.668
507.400 279.261
507.421 224.644
507.442 142.745
507.456 104.680
507.470 78.7245
507.498 48.8981
507.526 33.7698
507.554 25.3465
507.582 20.2097
507.610 16.8891
507.666 12.9973
507.722 10.9044
507.778 9.65449
507.834 8.84988
507.889 8.30205
508.001 7.62560
508.113 7.23978
508.225 6.99910
508.337 6.83899
508.560 6.64532
508.784 6.53696
509.007 6.46994
509.231 6.42543
509.678 6.37124
510.125 6.34014
511.019 6.30599
511.914 6.28696
512.808 6.27401
514.596 6.25553
516.385 6.24120
518.173 6.22871
521.750 6.20657
525.327 6.18720
528.904 6.17206
530.693 6.16900
531.587 6.17079
532.481 6.17802
533.375 6.19883
533.822 6.22185
534.270 6.26563
534.493 6.30323
534.717 6.36105
534.940 6.45620
535.164 6.62811
535.276 6.77128
535.387 6.98703
535.499 7.33376
535.611 7.94214
535.667 8.43570
535.723 9.16109
535.779 10.2887
535.834 12.1780
535.890 15.6939
535.918 18.7090
535.946 23.3427
535.974 31.0044
536.002 44.6810
536.030 71.7581
536.044 95.3525
536.058 129.687
536.079 204.044
536.100 253.324
536.121 203.706
536.142 129.734
536.158 92.4059
536.173 68.0878
536.188 52.0066
536.204 41.2302
536.234 28.2836
536.265 21.2785
536.296 17.0891
536.326 14.4091
536.388 11.3209
536.449 9.67790
536.510 8.70614
536.572 8.08386
536.633 7.66178
536.756 7.14225
536.878 6.84712
537.001 6.66349
537.124 6.54154
537.369 6.39428
537.614 6.31199
537.860 6.26113
538.105 6.22734
538.596 6.18619
539.086 6.16253
540.067 6.13647
541.049 6.12187
542.030 6.11188
543.993 6.09752
547.918 6.07641
551.843 6.05858
559.694 6.02666
567.544 5.99773
583.245 5.94624
598.946 5.90145
630.348 5.82681
661.750 5.76666
693.152 5.71674
724.553 5.67430
740.254 5.65533
755.955 5.63772
763.806 5.62953
771.656 5.62219
775.582 5.61945
779.507 5.61916
781.469 5.62234
782.451 5.62653
783.432 5.63503
784.413 5.65437
784.904 5.67413
785.395 5.71052
785.885 5.78835
786.131 5.86536
786.376 6.00423
786.499 6.11985
786.621 6.29419
786.744 6.57481
786.867 7.06866
786.928 7.47094
786.989 8.06311
787.051 8.98743
787.112 10.5454
787.173 13.4785
787.204 16.0160
787.235 19.9580
787.265 26.5719
787.296 38.6503
787.311 48.7507
787.327 63.5461
787.342 85.8837
787.357 119.627
787.379 188.229
787.400 233.690
787.422 187.903
787.443 119.646
787.456 90.1463
787.469 69.3260
787.495 44.3752
787.521 31.1510
787.547 23.5755
787.573 18.8633
787.599 15.7752
787.651 12.1056
787.702 10.1062
787.754 8.90188
787.858 7.58866
787.962 6.92726
788.066 6.54848
788.170 6.31166
788.273 6.15381
788.481 5.96309
788.689 5.85662
788.896 5.79116
789.104 5.74805
789.519 5.69648
789.934 5.66790
790.764 5.63874
791.595 5.62466
792.425 5.61660
794.085 5.60772
797.407 5.59932
800.728 5.59433
807.370 5.58684
814.013 5.58033
827.297 5.56828
840.582 5.55688
867.152 5.53540
893.722 5.51531
920.291 5.49635
946.861 5.47838
973.430 5.46137
1000.00 5.44566
1017.65 5.43678
1026.48 5.43352
1035.31 5.43215
1044.14 5.43549
1048.55 5.44155
1052.96 5.45485
1055.17 5.46703
1057.38 5.48641
1059.58 5.51921
1061.79 5.58019
1062.89 5.63216
1064.00 5.71201
1065.10 5.84387
1066.20 6.08420
1066.76 6.28673
1067.31 6.59577
1067.86 7.10151
1068.41 8.01237
1068.69 8.77285
1068.96 9.92215
1069.24 11.7786
1069.51 15.0509
1069.65 17.7340
1069.79 21.7119
1069.93 27.9706
1070.07 38.6423
1070.20 59.0506
1070.27 77.0263
1070.34 105.600
1070.41 154.748
1070.48 248.770
1070.51 331.815
1070.55 455.830
1070.58 652.144
1070.62 965.124
1070.66 1535.87
1070.70 1914.11
1070.74 1520.81
1070.79 953.166
1070.83 559.415
1070.88 352.627
1070.93 239.037
1070.97 171.908
1071.02 129.517
1071.07 101.242
1071.16 67.2597
1071.26 48.4987
1071.35 37.0995
1071.54 24.6174
1071.72 18.2424
1071.91 14.5779
1072.10 12.2813
1072.29 10.7551
1072.66 8.89740
1073.04 7.86220
1073.41 7.22552
1073.79 6.80633
1074.54 6.30574
1075.29 6.03036
1076.04 5.86247
1076.79 5.75285
1078.29 5.62269
1079.79 5.55129
1081.29 5.50777
1082.80 5.47917
1085.80 5.44476
1088.80 5.42524
1091.80 5.41275
1094.80 5.40400
1100.81 5.39219
1106.81 5.38407
1118.82 5.37217
1130.83 5.36249
1142.84 5.35360
1166.86 5.33649
1190.88 5.31933
1214.90 5.30216
1226.90 5.29446
1232.91 5.29160
1238.91 5.29061
1244.92 5.29458
1247.92 5.30134
1250.92 5.31611
1252.42 5.32968
1253.93 5.35132
1255.43 5.38810
1256.93 5.45675
1257.68 5.51542
1258.43 5.60565
1259.18 5.75494
1259.93 6.02708
1260.31 6.25685
1260.68 6.60630
1261.06 7.17702
1261.43 8.20377
1261.62 9.05934
1261.81 10.3487
1261.99 12.4229
1262.18 16.0475
1262.28 19.0029
1262.37 23.3548
1262.46 30.1375
1262.56 41.3850
1262.65 62.5754
1262.70 80.7881
1262.74 109.003
1262.79 155.762
1262.84 240.254
1262.86 311.153
1262.89 409.783
1262.91 554.726
1262.93 766.990
1262.97 1226.10
1263.00 1518.58
1263.04 1212.31
1263.07 756.295
1263.11 460.078
1263.14 300.962
1263.18 209.341
1263.21 153.335
1263.25 116.259
1263.28 91.9001
1263.35 62.0381
1263.42 45.0409
1263.49 34.7537
1263.63 23.2356
1263.78 17.3391
1263.92 13.9273
1264.06 11.7789
1264.20 10.3482
1264.48 8.59641
1264.76 7.61424
1265.04 7.00896
1265.32 6.61090
1265.89 6.13299
1266.45 5.86928
1267.02 5.70791
1267.58 5.60226
1268.71 5.47626
1269.83 5.40662
1270.96 5.36385
1272.09 5.33549
1274.34 5.30088
1276.59 5.28073
1281.10 5.25777
1285.61 5.24392
1290.12 5.23352
1299.13 5.21628
1308.15 5.19993
1317.16 5.18262
1335.20 5.14055
1353.23 5.07838
1362.24 5.03206
1371.26 4.96563
1380.27 4.85962
1384.78 4.77753
1389.29 4.65767
1391.54 4.57403
1393.80 4.46479
1396.05 4.31591
1398.30 4.10092
1399.43 3.95322
1400.56 3.76371
1401.69 3.51232
1402.81 3.16504
1403.38 2.93822
1403.94 2.66357
1404.50 2.32964
1405.07 1.93831
1405.35 1.73568
1405.63 1.56224
1405.91 1.49770
1406.05 1.56529
1406.19 1.76642
1406.33 2.21026
1406.48 3.10419
1406.55 3.84738
1406.62 4.88674
1406.69 6.37503
1406.76 8.54358
1406.83 11.8368
1406.90 16.8564
1406.97 25.0812
1407.04 38.9557
1407.07 50.0324
1407.11 65.0542
1407.14 86.5324
1407.18 118.311
1407.21 167.249
1407.25 246.072
1407.28 378.666
1407.32 605.640
1407.36 1028.55
1407.40 1348.39
1407.44 1131.81
1407.48 748.007
1407.52 507.064
1407.55 358.171
1407.59 265.227
1407.62 206.109
1407.70 135.079
1407.77 97.6118
1407.84 74.8846
1407.91 60.3623
1408.05 43.0049
1408.20 33.3631
1408.34 27.3694
1408.48 23.3419
1408.63 20.4775
1408.91 16.7162
1409.20 14.3847
1409.48 12.8124
1409.77 11.6869
1410.34 10.1920
1410.91 9.25000
1411.49 8.60476
1412.06 8.13702
1413.20 7.50361
1414.34 7.09629
1415.49 6.81272
1416.63 6.60421
1418.92 6.31770
1421.21 6.13028
1423.49 5.99792
1425.78 5.89943
1430.36 5.76221
1434.93 5.67079
1439.51 5.60516
1444.08 5.55547
1453.23 5.48451
1462.38 5.43541
1480.68 5.36952
1498.98 5.32473
1517.28 5.29011
1553.88 5.23483
1590.48 5.18699
1627.08 5.14142
1645.38 5.12036
1654.53 5.11170
1663.68 5.10669
1668.25 5.10714
1672.83 5.11160
1677.40 5.12369
1681.98 5.15211
1684.27 5.17889
1686.55 5.22214
1688.84 5.29628
1691.13 5.43541
1692.27 5.55454
1693.42 5.73819
1694.56 6.04169
1695.70 6.59468
1696.27 7.05997
1696.85 7.76825
1697.42 8.92271
1697.99 10.9882
1698.28 12.7001
1698.56 15.2676
1698.85 19.3706
1699.13 26.5239
1699.42 40.6841
1699.56 53.6248
1699.71 75.0218
1699.85 114.045
1699.92 147.017
1699.99 196.092
1700.06 275.670
1700.13 410.121
1700.21 658.088
1700.28 1137.77
1700.34 1814.27
1700.40 2263.96
1700.46 1802.94
1700.53 1129.18
1700.59 668.211
1700.66 425.981
1700.73 289.249
1700.80 208.999
1700.86 157.246
1700.93 123.092
1701.06 81.7224
1701.20 58.5712
1701.33 44.5551
1701.60 29.0209
1701.87 21.0898
1702.14 16.5372
1702.41 13.6762
1702.68 11.7623
1703.22 9.43781
1703.76 8.13843
1704.30 7.33650
1704.83 6.80861
1705.91 6.17643
1706.99 5.82654
1708.06 5.61235
1709.14 5.47151
1711.29 5.30243
1713.45 5.20772
1715.60 5.14844
1717.76 5.10818
1722.06 5.05670
1726.37 5.02419
1730.68 5.00055
1734.99 4.98155
1743.60 4.95031
1752.22 4.92354
1756.52 4.91192
1760.83 4.90438
1762.98 4.90622
1765.14 4.92423
1766.22 4.95536
1766.75 4.98813
1767.29 5.04906
1767.83 5.18031
1768.10 5.31006
1768.37 5.54353
1768.50 5.73809
1768.64 6.02826
1768.77 6.49657
1768.91 7.30922
1769.04 8.93818
1769.11 10.4241
1769.18 12.8899
1769.24 17.5066
1769.28 21.4347
1769.31 27.2355
1769.35 36.9092
1769.38 53.2670
1769.41 85.3626
1769.45 148.162
1769.47 235.823
1769.50 291.498
1769.53 232.495
1769.56 148.172
1769.58 103.376
1769.60 74.5924
1769.62 56.0179
1769.64 43.6635
1769.68 29.0922
1769.72 21.2996
1769.77 16.7009
1769.81 13.7775
1769.89 10.4532
1769.97 8.67141
1770.06 7.63094
1770.14 6.95770
1770.22 6.50719
1770.39 5.94992
1770.56 5.63376
1770.73 5.43726
1770.89 5.30678
1771.23 5.14954
1771.56 5.06176
1772.23 4.97168
1772.90 4.92803
1773.56 4.90300
1774.90 4.87553
1777.57 4.84957
1780.24 4.83406
1785.59 4.80977
1790.93 4.78712
1801.62 4.73989
1812.31 4.68704
1833.69 4.55502
1855.06 4.36587
1865.75 4.23539
1876.44 4.06634
1887.13 3.83793
1897.81 3.51161
1903.16 3.28969
1908.50 3.00775
1913.85 2.63886
1919.19 2.14020
1921.86 1.82300
1924.54 1.44915
1927.21 1.01718
1929.88 0.560893
1931.22 0.369389
1931.88 0.304906
1932.55 0.279405
1933.22 0.316210
1933.89 0.452641
1934.22 0.576035
1934.56 0.750099
1934.89 0.989372
1935.22 1.31319
1935.56 1.74757
1935.89 2.32807
1936.23 3.10397
1936.56 4.14488
1936.89 5.55109
1937.23 7.47050
1937.56 10.1272
1937.90 13.8715
1938.23 19.2713
1938.56 27.2887
1938.90 39.6399
1939.23 59.5860
1939.57 93.8068
1939.90 157.237
1940.07 209.721
1940.23 286.196
1940.40 399.645
1940.57 567.745
1940.83 970.326
1941.10 1290.75
1941.37 1097.12
1941.63 728.262
1941.86 503.780
1942.09 361.671
1942.32 271.185
1942.55 211.383
1943.00 140.726
1943.46 102.378
1943.91 79.2157
1944.37 64.0835
1945.28 45.9887
1946.19 35.8358
1947.11 29.4741
1948.02 25.1715
1948.93 22.0943
1950.75 18.0268
1952.58 15.4862
1954.40 13.7624
1956.23 12.5219
1959.87 10.8645
1963.52 9.81300
1967.17 9.08891
1970.82 8.56087
1978.11 7.84343
1985.41 7.37917
1992.71 7.05420
2000.00 6.81391
2016.49 6.44823
2032.98 6.21665
2041.22 6.12973
2049.47 6.05621
2057.71 5.99452
2061.83 5.97360
2062.87 5.97466
2063.90 5.99022
2064.41 6.01756
2064.93 6.09902
2065.18 6.21148
2065.44 6.51388
2065.57 6.90558
2065.64 7.27515
2065.70 7.89118
2065.76 9.07554
2065.80 10.0917
2065.83 11.6810
2065.86 14.3524
2065.89 19.2877
2065.91 23.4223
2065.92 29.5699
2065.94 38.9718
2065.96 54.3015
2065.98 82.6993
2066.00 102.568
2066.02 82.7076
2066.04 54.2000
2066.07 35.5933
2066.09 25.0879
2066.11 19.0830
2066.13 15.4358
2066.15 13.0880
2066.18 11.4998
2066.22 9.56404
2066.26 8.48060
2066.31 7.81621
2066.39 7.08538
2066.48 6.70592
2066.57 6.48852
2066.74 6.25760
2067.10 6.08030
2067.45 6.01401
2068.15 5.96235
2068.85 5.94111
2071.65 5.90784
2077.26 5.87237
2082.86 5.84270
2088.47 5.81560
2099.68 5.76699
2110.89 5.72430
2155.74 5.59280
2200.59 5.49832
2245.44 5.42303
2290.29 5.35812
2312.72 5.32800
2335.14 5.29916
2357.57 5.27230
2368.78 5.26064
2379.99 5.25209
2385.60 5.25030
2391.21 5.25185
2396.81 5.25976
2402.42 5.28133
2405.22 5.30265
2408.02 5.33783
2410.83 5.39901
2413.63 5.51507
2415.03 5.61502
2416.43 5.76946
2417.84 6.02549
2419.24 6.49306
2419.94 6.88686
2420.64 7.48666
2421.34 8.46457
2422.04 10.2147
2422.39 11.6668
2422.74 13.8370
2423.09 17.3120
2423.44 23.3424
2423.79 35.2816
2423.97 46.1282
2424.14 63.9841
2424.32 96.3330
2424.41 123.436
2424.49 163.604
2424.58 227.961
2424.67 335.559
2424.76 533.597
2424.84 905.322
2424.92 1446.57
2425.00 1808.00
2425.08 1447.42
2425.16 906.469
2425.21 656.757
2425.26 488.657
2425.36 291.079
2425.47 190.465
2425.57 133.950
2425.67 99.4901
2425.78 77.0753
2425.98 50.8837
2426.19 36.6734
2426.39 28.1742
2426.80 18.9801
2427.22 14.3606
2427.63 11.7291
2428.04 10.0857
2428.45 8.99109
2429.27 7.66767
2430.10 6.92913
2430.92 6.47501
2431.74 6.17597
2433.39 5.81746
2435.03 5.61850
2436.68 5.49600
2438.32 5.41475
2441.61 5.31581
2444.90 5.25878
2448.19 5.22171
2451.48 5.19536
2458.07 5.15896
2464.65 5.13308
2477.81 5.09305
2490.97 5.05762
2504.14 5.02172
2530.46 4.93843
2556.79 4.82109
2569.95 4.73641
2583.11 4.61766
2589.69 4.53681
2596.28 4.43265
2602.86 4.29208
2609.44 4.09011
2612.73 3.95119
2616.02 3.77204
2619.31 3.53191
2622.60 3.19352
2624.25 2.96679
2625.89 2.68348
2627.54 2.32189
2629.18 1.85327
2630.01 1.57057
2630.83 1.25877
2631.65 0.942134
2632.47 0.714381
2632.89 0.721179
2633.09 0.791641
2633.30 0.933805
2633.50 1.18311
2633.71 1.58919
2633.91 2.23890
2634.12 3.26072
2634.32 4.89603
2634.53 7.55756
2634.74 12.0418
2634.94 19.9453
2635.04 26.2290
2635.15 35.0976
2635.25 47.9734
2635.35 67.0792
2635.46 97.1607
2635.56 146.312
2635.66 230.216
2635.76 374.227
2635.88 645.473
2636.00 864.756
2636.12 741.576
2636.24 495.616
2636.37 307.892
2636.51 205.450
2636.65 147.358
2636.78 112.158
2636.92 89.0390
2637.05 73.1522
2637.32 53.3040
2637.60 41.6531
2637.87 34.2042
2638.41 25.3948
2638.95 20.4659
2639.49 17.3776
2640.04 15.2750
2640.58 13.7654
2641.67 11.7486
2642.75 10.4751
2643.84 9.60139
2644.92 8.96651
2647.09 8.10751
2649.26 7.55496
2651.43 7.16991
2653.60 6.88626
2657.94 6.49602
2662.28 6.24037
2664.45 6.14386
2666.62 6.06515
2667.71 6.03527
2668.79 6.02283
2669.34 6.03808
2669.88 6.11208
2670.15 6.22800
2670.42 6.55775
2670.56 7.00045
2670.63 7.42387
2670.69 8.14304
2670.76 9.56141
2670.80 10.8356
2670.83 12.9020
2670.86 16.5605
2670.88 19.5322
2670.90 23.8803
2670.91 30.5382
2670.93 41.2755
2670.95 59.4996
2670.96 88.6670
2670.98 138.428
2671.00 171.696
2671.02 138.651
2671.04 88.9451
2671.05 57.0536
2671.07 39.1832
2671.09 28.8778
2671.11 22.5768
2671.13 18.5001
2671.14 15.7317
2671.18 12.4121
2671.22 10.4791
2671.25 9.31865
2671.32 7.99970
2671.39 7.31958
2671.46 6.92355
2671.61 6.50341
2671.89 6.17711
2672.17 6.05156
2672.74 5.94914
2673.31 5.90311
2674.45 5.85257
2675.58 5.81860
2680.13 5.72085
2684.67 5.64574
2689.22 5.58328
2698.31 5.48330
2707.40 5.40510
2725.58 5.28575
2743.76 5.19286
2780.13 5.03771
2816.49 4.88582
2852.86 4.70604
2889.22 4.45760
2907.40 4.28394
2925.58 4.05154
2934.68 3.90201
2943.77 3.72086
2948.31 3.61593
2952.86 3.50251
2955.13 3.44679
2957.40 3.40652
2958.54 3.41203
2959.11 3.43573
2959.68 3.49453
2960.24 3.64142
2960.53 3.79614
2960.81 4.08297
2961.10 4.69194
2961.24 5.28510
2961.38 6.33169
2961.45 7.18246
2961.52 8.43497
2961.59 10.3852
2961.66 13.6582
2961.73 19.7611
2961.77 25.0826
2961.81 33.0737
2961.84 46.6599
2961.88 70.3894
2961.89 90.2397
2961.91 119.111
2961.93 161.989
2961.95 221.689
2961.97 355.353
2962.00 440.648
2962.03 355.702
2962.05 222.130
2962.08 141.209
2962.10 94.6708
2962.13 66.3155
2962.15 49.4928
2962.18 38.0856
2962.21 30.6045
2962.26 21.3228
2962.31 15.9525
2962.36 12.6452
2962.46 8.98824
2962.56 7.08549
2962.66 5.99040
2962.76 5.29066
2962.86 4.82436
2963.07 4.25040
2963.27 3.92420
2963.68 3.58177
2964.08 3.41002
2964.49 3.30753
2965.30 3.18721
2966.92 3.05459
2968.55 2.95936
2971.79 2.78531
2975.04 2.60256
2981.53 2.17093
2988.03 1.61256
2991.27 1.27340
2994.52 0.894705
2997.77 0.499085
2999.39 0.318440
3001.01 0.181408
3001.83 0.144636
3002.64 0.142823
3003.45 0.192186
3004.26 0.316444
3005.07 0.551860
3005.88 0.953721
3006.70 1.60965
3007.51 2.66130
3008.32 4.35467
3009.13 7.12384
3009.94 11.7942
3010.75 20.0410
3011.16 26.5493
3011.57 35.6852
3011.97 48.8499
3012.38 68.3575
3012.78 98.4721
3013.19 146.752
3013.60 227.109
3014.00 362.224
3014.50 629.902
3015.00 852.917
3015.50 736.909
3016.00 496.065
3016.48 332.098
3016.97 233.393
3017.45 173.085
3017.94 134.434
3018.42 108.271
3018.90 89.8393
3019.87 66.0938
3020.84 51.8657
3021.80 42.5921
3023.74 31.4846
3025.67 25.2103
3027.61 21.2497
3029.54 18.5484
3031.47 16.6008
3035.34 13.9982
3039.21 12.3515
3043.08 11.2214
3046.95 10.4008
3054.69 9.29347
3058.55 8.90471
3062.42 8.58931
3066.29 8.33459
3068.23 8.23050
3070.16 8.14751
3072.09 8.10284
3073.06 8.11136
3074.03 8.16774
3074.99 8.34009
3075.48 8.53164
3075.96 8.89153
3076.20 9.19688
3076.45 9.66014
3076.69 10.4067
3076.93 11.7089
3077.17 14.3037
3077.29 16.6786
3077.41 20.6080
3077.53 27.7767
3077.59 33.8436
3077.65 42.8500
3077.72 57.4906
3077.78 82.1543
3077.84 127.574
3077.90 215.234
3077.95 340.093
3078.00 420.865
3078.05 337.568
3078.11 213.252
3078.15 140.795
3078.20 97.6000
3078.25 71.4130
3078.29 55.0889
3078.39 36.3923
3078.48 26.7892
3078.57 21.2193
3078.67 17.7840
3078.85 13.9038
3079.04 11.8744
3079.23 10.6931
3079.41 9.94126
3079.60 9.43257
3079.97 8.80479
3080.34 8.44521
3081.09 8.06322
3081.83 7.86698
3082.58 7.74707
3084.07 7.60141
3085.56 7.50802
3087.05 7.43682
3090.03 7.32460
3093.01 7.23242
3096.00 7.15167
3101.96 7.01241
3107.92 6.89418
3113.88 6.79163
3125.81 6.62155
3137.73 6.48558
3149.66 6.37406
3173.51 6.20126
3197.36 6.07292
3209.29 6.02025
3221.21 5.97364
3233.14 5.93256
3245.06 5.89819
3251.03 5.88615
3256.99 5.88622
3259.97 5.90236
3261.46 5.92297
3262.95 5.96440
3264.44 6.05836
3265.19 6.15414
3265.93 6.33019
3266.31 6.47901
3266.68 6.70603
3267.05 7.07660
3267.42 7.73919
3267.61 8.29030
3267.80 9.11184
3267.98 10.4212
3268.17 12.6940
3268.36 17.1956
3268.45 21.2654
3268.54 27.9420
3268.63 39.9742
3268.68 50.0612
3268.73 64.7801
3268.77 88.4356
3268.82 127.184
3268.87 198.216
3268.91 329.623
3268.96 525.388
3269.00 654.115
3269.04 525.869
3269.09 330.232
3269.12 227.749
3269.15 161.535
3269.19 119.298
3269.22 91.4636
3269.29 58.9459
3269.36 41.7161
3269.43 31.6086
3269.49 25.2095
3269.63 17.9365
3269.77 14.0739
3269.90 11.8006
3270.04 10.3519
3270.17 9.37873
3270.44 8.17557
3270.72 7.49627
3270.99 7.07394
3271.26 6.79343
3271.80 6.45485
3272.34 6.26606
3273.43 6.07303
3274.51 5.98017
3275.60 5.92779
3277.77 5.87219
3282.11 5.82497
3286.45 5.80159
3295.14 5.77241
3303.82 5.75044
3321.19 5.71363
3338.55 5.68152
3355.92 5.65248
3373.28 5.62581
3408.02 5.57806
3442.75 5.53607
3477.48 5.49857
3512.21 5.46576
3529.58 5.45535
3533.92 5.45666
3538.26 5.46617
3540.43 5.48142
3542.60 5.52521
3543.69 5.58534
3544.23 5.64477
3544.77 5.75210
3545.32 5.97877
3545.59 6.20070
3545.86 6.59792
3546.13 7.42325
3546.27 8.21634
3546.40 9.58914
3546.54 12.3306
3546.60 14.8451
3546.67 18.9391
3546.74 26.5211
3546.77 32.9008
3546.81 42.5724
3546.84 58.1229
3546.88 85.0043
3546.91 135.454
3546.94 233.313
3546.97 368.845
3547.00 461.385
3547.03 368.999
3547.06 233.507
3547.08 168.765
3547.10 125.915
3547.12 95.4598
3547.14 75.5359
3547.17 50.4033
3547.21 36.7505
3547.25 28.2371
3547.29 22.8601
3547.37 16.4748
3547.44 13.0426
3547.52 10.9933
3547.67 8.77663
3547.83 7.66866
3547.98 7.03744
3548.29 6.38350
3548.60 6.07016
3548.91 5.89722
3549.52 5.72576
3550.75 5.61757
3551.99 5.61387
3553.22 5.68557
3553.83 5.77226
3554.45 5.93688
3555.07 6.29048
3555.37 6.63798
3555.68 7.25746
3555.84 7.76654
3555.99 8.52432
3556.14 9.72237
3556.30 11.7784
3556.45 15.7484
3556.53 19.2803
3556.61 24.9540
3556.68 34.8654
3556.76 54.2982
3556.80 71.8905
3556.84 98.9685
3556.88 144.968
3556.91 220.286
3556.96 349.287
3557.00 435.346
3557.04 349.397
3557.09 220.428
3557.11 161.399
3557.14 122.043
3557.20 74.8791
3557.25 50.6373
3557.31 37.1301
3557.36 28.6739
3557.41 23.2456
3557.52 16.7759
3557.63 13.2701
3557.74 11.1656
3557.96 8.87763
3558.18 7.72429
3558.40 7.06837
3558.83 6.38505
3559.27 6.05406
3559.71 5.86952
3560.58 5.68070
3561.45 5.59041
3562.32 5.54009
3564.07 5.48813
3567.56 5.44777
3571.05 5.43115
3578.03 5.41527
3585.01 5.40642
3591.99 5.40090
3598.97 5.40108
3602.46 5.40835
3605.95 5.43656
3607.69 5.47994
3608.57 5.52474
3609.44 5.60789
3610.31 5.78781
3610.75 5.96715
3611.18 6.29263
3611.62 6.97921
3611.84 7.64681
3612.06 8.82944
3612.17 9.79594
3612.28 11.2271
3612.38 13.4736
3612.49 17.2888
3612.60 24.5340
3612.66 30.9370
3612.71 40.8434
3612.77 57.9986
3612.82 89.5955
3612.85 117.563
3612.88 158.411
3612.90 221.787
3612.93 322.899
3612.97 515.345
3613.00 641.624
3613.04 516.250
3613.07 324.040
3613.10 206.202
3613.14 137.506
3613.17 97.2819
3613.21 73.0087
3613.24 56.6101
3613.27 45.4263
3613.34 31.8291
3613.41 24.0132
3613.48 19.2556
3613.61 13.9210
3613.74 11.1465
3613.88 9.53497
3614.01 8.51710
3614.15 7.83761
3614.42 7.00260
3614.69 6.53379
3615.23 6.05019
3615.77 5.81851
3616.30 5.68950
3617.38 5.55769
3619.54 5.45914
3621.69 5.42215
3626.01 5.39237
3630.32 5.37917
3638.94 5.36484
3647.56 5.35520
3682.06 5.32557
3716.55 5.29918
3751.04 5.27375
3889.01 5.17413
4026.98 5.06819
4095.96 5.00861
4130.45 4.97615
4147.70 4.95951
4156.32 4.95307
4160.64 4.95865
4162.79 4.99675
4163.33 5.03725
4163.87 5.15027
4164.14 5.30237
4164.41 5.70503
4164.54 6.21906
4164.68 7.47158
4164.75 8.94195
4164.81 12.0596
4164.85 15.1809
4164.88 20.5004
4164.91 31.0670
4164.93 40.0624
4164.95 52.5806
4164.97 80.9204
4165.00 100.324
4165.03 81.0033
4165.05 52.6838
4165.08 37.1565
4165.10 27.2323
4165.12 21.0168
4165.14 17.1293
4165.18 12.4037
4165.23 9.98314
4165.27 8.53826
4165.31 7.64861
4165.40 6.62222
4165.58 5.76857
4165.75 5.43303
4166.10 5.17203
4166.44 5.07442
4167.14 5.00107
4167.83 4.97400
4170.61 4.94469
4176.16 4.93171
4187.27 4.91755
4209.49 4.89126
4231.70 4.86352
4253.92 4.83359
4298.36 4.76464
4342.79 4.67693
4387.22 4.55393
4409.44 4.46719
4431.66 4.34811
4442.77 4.26835
4453.87 4.16674
4464.98 4.03108
4476.09 3.83800
4481.65 3.70597
4487.20 3.53627
4492.75 3.30929
4498.31 2.98943
4501.09 2.77481
4503.86 2.50578
4506.64 2.16037
4509.42 1.70722
4510.81 1.42899
4512.19 1.11456
4513.58 0.776842
4514.97 0.479923
4515.67 0.409838
4516.36 0.484980
4516.71 0.625487
4517.05 0.881980
4517.40 1.31586
4517.75 2.02706
4518.10 3.18874
4518.44 5.09416
4518.79 8.30676
4519.14 13.9533
4519.31 18.3819
4519.48 24.5059
4519.66 33.2727
4519.83 46.0130
4520.01 65.3228
4520.18 95.1978
4520.35 143.310
4520.53 220.389
4520.76 388.338
4521.00 531.465
4521.24 464.351
4521.48 315.813
4521.62 244.921
4521.77 193.362
4522.06 128.663
4522.35 92.5791
4522.65 70.9066
4522.94 56.8248
4523.23 47.1979
4523.82 35.1013
4524.40 28.0011
4524.99 23.4191
4526.16 17.9566
4527.33 14.8691
4528.50 12.9094
4529.67 11.5646
4530.84 10.5895
4533.18 9.27408
4535.52 8.43238
4537.86 7.84958
4540.19 7.42346
4544.87 6.84592
4547.21 6.64548
4549.55 6.48916
4551.89 6.38009
4553.06 6.35250
4554.23 6.36054
4555.40 6.45045
4555.99 6.56877
4556.57 6.80565
4557.16 7.33280
4557.45 7.85992
4557.74 8.80187
4557.89 9.58312
4558.04 10.7387
4558.18 12.5617
4558.33 15.6762
4558.47 21.6404
4558.55 26.8971
4558.62 35.2553
4558.69 49.6361
4558.77 77.1628
4558.80 101.477
4558.84 137.907
4558.88 197.838
4558.91 294.681
4558.96 468.457
4559.00 583.767
4559.04 468.969
4559.09 294.998
4559.13 181.036
4559.18 119.186
4559.23 83.2080
4559.27 61.9136
4559.32 47.9249
4559.36 38.6849
4559.45 27.3811
4559.54 20.9743
4559.63 17.0512
4559.81 12.7221
4560.00 10.4917
4560.18 9.20607
4560.36 8.38948
4560.54 7.84328
4560.90 7.17255
4561.27 6.79067
4561.99 6.38835
4562.72 6.18463
4563.44 6.06230
4564.89 5.91868
4567.80 5.76766
4570.70 5.67308
4573.60 5.59987
4576.51 5.53838
4582.31 5.43683
4588.12 5.35396
4593.92 5.28380
4605.53 5.16908
4617.15 5.07664
4628.76 4.99810
4651.98 4.86341
4675.20 4.73687
4686.81 4.66821
4698.42 4.58815
4710.04 4.48286
4715.84 4.41087
4721.65 4.31323
4724.55 4.24814
4727.45 4.16531
4730.36 4.05474
4733.26 3.89733
4734.71 3.78958
4736.16 3.65114
4737.61 3.46591
4739.06 3.20541
4739.79 3.03094
4740.52 2.81272
4741.24 2.53374
4741.97 2.17116
4742.69 1.70457
4743.06 1.44737
4743.42 1.23937
4743.78 1.31206
4743.96 1.69979
4744.14 2.73105
4744.23 3.74979
4744.33 5.40102
4744.42 8.15012
4744.51 12.8527
4744.55 16.5686
4744.60 21.5834
4744.64 28.6278
4744.69 38.7684
4744.73 54.1778
4744.78 77.2296
4744.82 113.182
4744.87 170.238
4744.93 299.100
4745.00 411.007
4745.07 359.382
4745.13 245.421
4745.17 189.679
4745.22 148.746
4745.30 98.2192
4745.38 70.5954
4745.47 54.2751
4745.55 43.6287
4745.63 36.4355
4745.80 27.3748
4745.97 22.0421
4746.14 18.6276
4746.47 14.5558
4746.80 12.2469
4747.14 10.7850
4747.47 9.77795
4747.81 9.04891
4748.48 8.06350
4749.15 7.43191
4749.81 6.99370
4750.48 6.67220
4751.82 6.23234
4753.16 5.94540
4754.50 5.74314
4755.84 5.59259
4758.51 5.38255
4761.19 5.24192
4763.86 5.14022
4766.54 5.06256
4771.89 4.94995
4777.24 4.87080
4782.59 4.81496
4785.27 4.81196
4785.94 4.82935
4786.61 4.88853
4786.94 4.97336
4787.28 5.20498
4787.44 5.50542
4787.61 6.26196
4787.69 7.16854
4787.78 9.16851
4787.82 11.2523
4787.86 15.1379
4787.88 18.4211
4787.90 23.3378
4787.92 30.9109
4787.94 41.9180
4787.97 64.2112
4788.00 79.0700
4788.03 64.2024
4788.06 41.9067
4788.08 28.3857
4788.11 20.4970
4788.13 15.8000
4788.16 12.8611
4788.21 9.59856
4788.26 7.97465
4788.37 6.44213
4788.47 5.79092
4788.68 5.25433
4788.88 5.04480
4789.30 4.88258
4789.71 4.82063
4791.37 4.74861
4794.68 4.70838
4801.30 4.65956
4814.55 4.58165
4827.80 4.51409
4841.04 4.45131
4894.03 4.20526
4947.01 3.91468
5000.00 3.50992
5020.65 3.29552
5041.31 3.02896
5061.96 2.68569
5082.62 2.22462
5092.94 1.92963
5103.27 1.57642
5113.60 1.15289
5123.92 0.659709
5129.09 0.403685
5134.25 0.177509
5136.83 0.0977653
5139.41 0.0639378
5140.71 0.0737431
5142.00 0.108815
5143.29 0.176984
5144.58 0.288562
5145.87 0.457727
5147.16 0.703489
5148.45 1.05218
5149.74 1.54072
5151.03 2.22177
5152.32 3.17200
5153.61 4.50557
5154.90 6.39528
5156.20 9.11887
5157.49 13.1237
5158.78 19.1718
5160.07 28.6088
5161.36 43.9816
5162.65 70.2658
5163.94 117.548
5165.23 204.771
5166.62 363.136
5168.00 500.636
5169.39 439.823
5170.78 300.526
5172.02 210.110
5173.25 152.789
5174.49 116.274
5175.73 92.1021
5178.20 63.3448
5180.67 47.5655
5183.15 37.9095
5185.62 31.5222
5190.57 23.7483
5195.51 19.2832
5200.46 16.4266
5205.41 14.4579
5210.35 13.0257
5220.25 11.0891
5230.14 9.84506
5235.09 9.37752
5240.04 8.98505
5242.51 8.81619
5244.98 8.67609
5246.22 8.63243
5247.46 8.65356
5248.07 8.74836
5248.69 9.07098
5249.00 9.52658
5249.16 9.97122
5249.31 10.7439
5249.47 12.2813
5249.54 13.6709
5249.62 15.9493
5249.70 20.1236
5249.74 23.5999
5249.77 28.6496
5249.81 36.8026
5249.85 50.0978
5249.89 74.5894
5249.93 119.846
5249.96 186.221
5250.00 231.271
5250.04 186.136
5250.07 119.739
5250.10 88.8881
5250.12 68.1438
5250.17 43.5238
5250.21 31.0520
5250.26 24.1866
5250.31 19.9003
5250.35 17.1209
5250.45 13.8964
5250.54 12.1385
5250.63 11.0974
5250.82 9.96260
5251.19 9.05498
5251.56 8.70043
5252.31 8.41022
5253.06 8.28021
5254.55 8.13745
5256.04 8.04016
5259.03 7.88313
5262.01 7.74628
5267.98 7.50397
5273.95 7.29127
5285.89 6.93017
5297.83 6.63170
5321.70 6.15617
5345.58 5.77890
5393.34 5.15753
5441.09 4.56401
5464.97 4.23237
5488.85 3.84803
5512.72 3.37723
5536.60 2.76664
5548.54 2.38340
5560.48 1.92965
5572.42 1.39165
5584.36 0.773818
5590.33 0.458030
5596.30 0.184742
5599.28 0.0921380
5602.26 0.0583946
5603.76 0.0752633
5605.25 0.123668
5606.74 0.213030
5608.23 0.355776
5609.73 0.568634
5611.22 0.873645
5612.71 1.30171
5614.20 1.89441
5615.70 2.71187
5617.19 3.83785
5618.68 5.39667
5620.17 7.57334
5621.67 10.6539
5623.16 15.0820
5624.65 21.5884
5626.14 31.4033
5627.63 46.6891
5629.13 71.2966
5630.62 112.216
5632.11 180.963
5634.06 328.118
5636.00 461.237
5637.95 411.967
5639.89 285.807
5641.33 213.969
5642.77 164.195
5644.21 129.966
5645.64 105.953
5648.52 75.6846
5651.40 58.1301
5654.28 47.0101
5657.15 39.4749
5662.91 30.1001
5668.66 24.6073
5674.41 21.0507
5680.17 18.5805
5685.92 16.7745
5697.43 14.3232
5708.94 12.7453
5720.44 11.6492
5723.32 11.4268
5726.20 11.2229
5729.07 11.0499
5730.51 11.0351
5730.87 11.0885
5731.23 11.2696
5731.41 11.5236
5731.59 12.1916
5731.68 13.0142
5731.77 14.9324
5731.82 17.0071
5731.86 21.0950
5731.88 24.8566
5731.91 30.5664
5731.93 39.9566
5731.95 56.0168
5731.98 82.7749
5732.00 100.923
5732.03 82.6282
5732.05 55.7414
5732.07 43.3031
5732.08 34.4933
5732.12 24.7133
5732.15 19.6697
5732.18 16.9572
5732.25 14.2060
5732.32 12.9608
5732.45 11.8786
5732.58 11.4377
5732.85 11.0834
5733.11 10.9409
5734.18 10.7506
5736.31 10.5977
5740.57 10.3655
5744.83 10.1590
5749.09 9.97027
5766.12 9.34892
5800.20 8.51349
5834.27 7.97447
5868.35 7.59548
5902.42 7.31347
5919.46 7.19827
5936.49 7.09749
5953.53 7.01179
5962.05 6.97664
5970.57 6.95065
5979.09 6.94450
5983.35 6.95882
5987.60 7.00118
5989.73 7.04345
5991.86 7.11286
5993.99 7.23234
5996.12 7.45503
5997.19 7.64353
5998.25 7.93024
5999.32 8.39489
6000.38 9.21704
6000.91 9.88931
6001.45 10.8812
6001.98 12.4372
6002.51 15.0652
6003.04 20.0383
6003.31 24.3519
6003.58 31.1080
6003.84 42.4826
6004.11 63.5400
6004.24 81.2092
6004.37 107.506
6004.51 147.731
6004.64 209.398
6004.82 330.845
6005.00 411.750
6005.18 330.169
6005.36 208.909
6005.48 153.149
6005.60 114.932
6005.83 70.7522
6006.07 48.1711
6006.30 35.5484
6006.54 27.8205
6006.77 22.8166
6007.25 16.9356
6007.72 13.7651
6008.19 11.8680
6009.13 9.81248
6010.07 8.78004
6011.01 8.18995
6011.95 7.82012
6012.89 7.57314
6014.78 7.27227
6016.66 7.10154
6018.54 6.99408
6020.43 6.92107
6024.19 6.82857
6027.96 6.77164
6031.72 6.73189
6035.49 6.70148
6043.02 6.65539
6050.55 6.61940
6065.62 6.56118
6080.68 6.51275
6095.75 6.47288
6103.28 6.45940
6110.81 6.46141
6114.58 6.48290
6116.46 6.50945
6118.34 6.56208
6120.23 6.67990
6121.17 6.79915
6122.11 7.01673
6122.58 7.19962
6123.05 7.47738
6123.52 7.92840
6123.99 8.73002
6124.23 9.39204
6124.46 10.3746
6124.70 11.9381
6124.93 14.6191
6125.17 19.8484
6125.29 24.5363
6125.41 32.0453
6125.52 45.3947
6125.64 71.7005
6125.70 95.6804
6125.76 134.242
6125.82 199.523
6125.88 309.941
6125.94 493.655
6126.00 613.539
6126.06 490.508
6126.13 309.901
6126.19 188.400
6126.26 123.232
6126.32 86.2974
6126.39 63.9858
6126.45 49.6752
6126.52 40.0198
6126.65 28.2805
6126.78 21.6874
6126.91 17.6884
6127.17 13.2594
6127.43 10.9898
6127.69 9.68426
6127.95 8.85996
6128.21 8.31036
6128.73 7.64179
6129.25 7.26680
6130.29 6.88254
6131.34 6.69893
6132.38 6.59651
6134.46 6.49079
6136.54 6.43852
6138.63 6.40763
6142.79 6.37171
6151.13 6.33331
6159.46 6.30745
6176.13 6.26554
6192.80 6.22838
6226.14 6.16060
6259.47 6.09862
6292.81 6.04119
6326.15 5.98837
6342.82 5.96490
6359.49 5.94777
6367.82 5.94761
6371.99 5.95411
6376.15 5.97166
6380.32 6.01722
6382.41 6.06630
6384.49 6.15894
6385.53 6.23840
6386.57 6.36084
6387.61 6.56271
6388.66 6.92862
6389.18 7.23464
6389.70 7.69737
6390.22 8.44434
6390.74 9.76434
6391.00 10.8431
6391.26 12.4307
6391.52 14.9256
6391.78 19.1294
6392.04 27.0971
6392.17 33.9919
6392.30 44.7786
6392.43 62.9093
6392.56 96.3878
6392.63 124.406
6392.69 166.003
6392.76 229.446
6392.82 327.338
6392.91 520.018
6393.00 649.729
6393.09 520.663
6393.18 328.155
6393.25 222.004
6393.32 156.240
6393.40 114.330
6393.47 87.4057
6393.61 56.0466
6393.76 39.6108
6393.90 30.0356
6394.05 24.0018
6394.34 17.1387
6394.63 13.5422
6394.92 11.4292
6395.21 10.0842
6395.50 9.17823
6396.08 8.06384
6396.66 7.43373
6397.24 7.04164
6397.81 6.78177
6398.97 6.46817
6400.13 6.29298
6401.29 6.18483
6402.45 6.11309
6404.77 6.02603
6407.09 5.97639
6411.72 5.92276
6416.36 5.89383
6421.00 5.87486
6430.27 5.84908
6448.81 5.81356
6467.36 5.78427
6504.45 5.73065
6541.53 5.67918
6615.71 5.57719
6652.80 5.52687
6671.35 5.51029
6675.98 5.51502
6680.62 5.54242
6682.94 5.58793
6685.25 5.72512
6686.41 5.91880
6686.99 6.11211
6687.57 6.46162
6688.15 7.19454
6688.44 7.90466
6688.73 9.14933
6688.88 10.1626
6689.02 11.6534
6689.17 13.9734
6689.31 17.8647
6689.46 25.1128
6689.53 31.3705
6689.60 40.8908
6689.67 56.7998
6689.75 84.8889
6689.82 140.208
6689.85 187.951
6689.89 257.627
6689.95 409.373
6690.00 510.902
6690.06 410.230
6690.11 258.702
6690.16 168.176
6690.21 115.539
6690.26 83.0858
6690.31 62.9804
6690.41 40.1446
6690.51 28.5003
6690.61 21.8326
6690.70 17.6795
6690.90 13.0225
6691.10 10.5901
6691.30 9.17016
6691.50 8.27010
6691.69 7.66643
6692.09 6.92441
6692.48 6.50602
6693.27 6.07363
6694.06 5.86520
6694.85 5.74870
6696.44 5.62857
6699.60 5.53653
6702.76 5.49993
6709.09 5.46659
6715.41 5.44817
6740.71 5.39970
6791.31 5.31370
6841.90 5.22086
6892.50 5.11536
6943.10 4.99081
6993.70 4.83718
7019.00 4.74445
7031.65 4.69284
7044.29 4.63714
7056.94 4.57706
7069.59 4.51359
7082.24 4.46144
7085.41 4.46550
7088.57 4.51449
7090.15 4.60150
7090.94 4.69379
7091.73 4.86607
7092.52 5.23706
7092.92 5.60284
7093.31 6.25732
7093.71 7.60597
7093.90 8.88749
7094.10 11.0812
7094.30 15.3535
7094.40 19.1713
7094.50 25.2504
7094.60 36.0044
7094.69 57.2363
7094.74 76.5252
7094.79 106.596
7094.84 156.513
7094.89 241.991
7094.95 385.677
7095.00 480.617
7095.05 386.431
7095.11 242.939
7095.15 166.954
7095.19 118.220
7095.24 87.2236
7095.28 66.8410
7095.37 43.0781
7095.45 30.6192
7095.54 23.2115
7095.62 18.5276
7095.79 13.2041
7095.97 10.3842
7096.14 8.73201
7096.31 7.67123
7096.48 6.95736
7096.82 6.07722
7097.17 5.57692
7097.85 5.05746
7098.54 4.80457
7099.22 4.66139
7100.59 4.51047
7103.34 4.38584
7106.08 4.32717
7111.56 4.25589
7117.05 4.20005
7128.02 4.09300
7138.99 3.97774
7160.93 3.69808
7182.87 3.31326
7193.84 3.05839
7204.81 2.74094
7215.78 2.33507
7226.75 1.80225
7232.24 1.47293
7237.72 1.09544
7243.21 0.676865
7248.69 0.267484
7251.43 0.119910
7252.80 0.0838326
7254.18 0.0907861
7255.55 0.162773
7256.92 0.333214
7258.29 0.654528
7259.66 1.21091
7261.03 2.14303
7262.40 3.69130
7263.77 6.29416
7265.15 10.7921
7266.52 18.9208
7267.20 25.4012
7267.89 34.5123
7268.57 47.6125
7269.26 66.7501
7269.95 95.1762
7270.63 137.177
7271.82 250.077
7273.00 353.424
7274.19 317.540
7275.38 221.390
7276.76 142.962
7278.13 98.9196
7279.51 73.4006
7280.89 57.5516
7282.27 47.0556
7283.64 39.7265
7286.40 30.3525
7289.15 24.7308
7291.90 21.0419
7297.41 16.5626
7302.92 13.9785
7308.43 12.3111
7313.94 11.1506
7319.44 10.2979
7330.46 9.12806
7341.47 8.36090
7352.49 7.81522
7363.51 7.40358
7385.54 6.81217
7407.57 6.39146
7451.63 5.77225
7495.69 5.23797
7517.72 4.95190
7539.76 4.62454
7561.79 4.22365
7583.82 3.69622
7594.83 3.35837
7605.85 2.95195
7611.36 2.72119
7616.86 2.48319
7619.62 2.37829
7622.37 2.32864
7623.75 2.37730
7624.44 2.45512
7625.13 2.61547
7625.82 2.96907
7626.16 3.31234
7626.50 3.90992
7626.85 5.08665
7627.02 6.15957
7627.19 7.93814
7627.36 11.2171
7627.45 14.0106
7627.54 18.3163
7627.62 25.4303
7627.71 38.2938
7627.75 48.8648
7627.79 64.3128
7627.84 87.4331
7627.88 122.005
7627.94 191.858
7628.00 234.987
7628.06 184.764
7628.12 114.676
7628.18 73.7242
7628.23 49.5856
7628.28 35.1015
7628.34 26.1373
7628.44 16.0199
7628.55 10.9123
7628.66 8.02133
7628.76 6.24284
7628.98 4.27700
7629.19 3.28215
7629.41 2.71443
7629.83 2.12770
7630.69 1.68589
7631.55 1.51296
7633.26 1.34936
7634.97 1.26453
7636.69 1.25653
7637.54 1.31487
7638.40 1.47226
7639.26 1.86901
7639.68 2.27901
7640.11 3.01788
7640.54 4.51852
7640.76 5.90424
7640.97 8.21365
7641.18 12.4645
7641.29 16.0570
7641.40 21.5261
7641.50 30.3719
7641.61 45.8016
7641.72 75.1802
7641.77 100.007
7641.83 135.033
7641.91 215.604
7642.00 268.582
7642.09 214.798
7642.17 134.018
7642.23 98.4740
7642.28 73.8762
7642.39 44.4364
7642.50 29.1578
7642.61 20.5329
7642.72 15.1719
7642.83 11.6931
7643.04 7.56232
7643.26 5.31020
7643.48 3.96125
7643.91 2.48331
7644.35 1.72681
7644.78 1.28429
7645.65 0.799128
7646.52 0.540216
7647.39 0.378543
7649.12 0.191747
7650.86 0.115071
7652.60 0.141394
7654.34 0.304246
7655.20 0.457059
7656.07 0.673541
7656.94 0.971464
7657.81 1.37354
7659.55 2.62250
7661.28 4.82257
7663.02 8.75187
7664.76 16.0271
7665.63 21.9074
7666.50 30.2456
7667.37 42.3184
7668.23 60.0770
7669.10 86.6096
7669.97 126.078
7671.49 234.781
7673.00 337.858
7674.52 307.968
7676.03 217.528
7677.68 145.608
7679.34 103.446
7680.99 78.2112
7682.64 62.2051
7684.29 51.4425
7685.95 43.8619
7689.25 34.1334
7692.55 28.4554
7694.21 26.6020
7695.86 25.3750
7697.51 25.0355
7698.34 25.4744
7699.16 26.7470
7699.99 29.7856
7700.40 32.6850
7700.82 37.4383
7701.23 45.7395
7701.64 61.6254
7701.85 75.3281
7702.06 96.0363
7702.26 128.632
7702.47 179.688
7702.73 277.080
7703.00 342.800
7703.27 278.746
7703.53 181.581
7703.76 125.364
7703.99 91.2775
7704.23 70.3128
7704.46 56.8517
7704.92 41.4708
7705.38 33.4446
7705.84 28.7155
7706.30 25.6830
7707.23 22.1011
7708.15 20.0731
7709.07 18.7615
7710.92 17.1134
7712.77 16.0609
7714.61 15.2885
7718.31 14.1632
7722.00 13.3370
7725.69 12.6837
7733.08 11.6924
7740.47 10.9643
7747.85 10.4024
7762.63 9.58740
7777.40 9.02199
7792.18 8.60510
7821.72 8.02828
7851.27 7.64480
7880.82 7.36892
7895.59 7.25771
7910.37 7.16058
7925.14 7.08143
7928.84 7.07033
7932.53 7.07772
7934.38 7.10646
7936.22 7.20636
7937.15 7.35294
7938.07 7.76794
7938.53 8.33032
7938.76 8.87601
7938.99 9.83274
7939.22 11.7634
7939.34 13.5673
7939.46 16.5768
7939.57 22.2670
7939.63 27.1822
7939.69 34.6690
7939.74 47.3174
7939.80 69.8185
7939.83 88.5903
7939.86 116.037
7939.89 157.088
7939.92 217.140
7939.96 342.609
7940.00 427.750
7940.04 342.960
7940.08 217.580
7940.12 149.177
7940.15 105.703
7940.19 78.3597
7940.22 60.9652
7940.29 40.3685
7940.35 29.5022
7940.42 23.1444
7940.49 19.1258
7940.62 14.5418
7940.76 12.1197
7940.89 10.7072
7941.16 9.19717
7941.43 8.44753
7941.69 8.02423
7942.23 7.58563
7943.30 7.25439
7944.38 7.13085
7946.52 7.03340
7948.67 6.99173
7952.97 6.94844
7957.26 6.92035
7974.44 6.83773
7991.61 6.76872
8008.79 6.70656
8043.14 6.59703
8077.49 6.50216
8111.84 6.41794
8146.19 6.34149
8180.55 6.27166
8197.72 6.24529
8206.31 6.26353
8208.46 6.29655
8210.60 6.39863
8211.68 6.54360
8212.75 6.94947
8213.29 7.49656
8213.56 8.02466
8213.82 8.95228
8214.09 10.8184
8214.23 12.5390
8214.36 15.4186
8214.50 20.7654
8214.56 25.3288
8214.63 32.3472
8214.70 43.8610
8214.76 64.3592
8214.83 104.596
8214.86 139.836
8214.90 189.600
8214.95 301.008
8215.00 373.562
8215.05 299.158
8215.10 190.143
8215.16 116.000
8215.21 76.0309
8215.27 53.6578
8215.32 40.2634
8215.38 31.7274
8215.43 25.9951
8215.54 19.1035
8215.65 15.2280
8215.76 12.8632
8215.98 10.2612
8216.20 8.92734
8216.42 8.16035
8216.86 7.35312
8217.30 6.95823
8217.74 6.73619
8218.61 6.50791
8220.37 6.33625
8222.12 6.27179
8225.63 6.21990
8229.14 6.19664
8243.18 6.15211
8271.26 6.08989
8299.34 6.02663
8327.42 5.95390
8355.50 5.85939
8369.54 5.79527
8383.58 5.70858
8397.62 5.57717
8404.64 5.47845
8411.66 5.33667
8415.17 5.23867
8418.68 5.11128
8422.19 4.93816
8425.70 4.68823
8427.45 4.51612
8429.21 4.29437
8430.96 3.99801
8432.72 3.58273
8433.59 3.30649
8434.47 2.96414
8435.35 2.53137
8436.23 1.97997
8437.10 1.29690
8437.98 0.688446
8438.42 0.880507
8438.64 1.47081
8438.86 2.88924
8438.97 4.19497
8439.08 6.19251
8439.19 9.29465
8439.30 14.1680
8439.41 22.2084
8439.52 35.7114
8439.63 59.6793
8439.74 102.332
8439.87 190.914
8440.00 275.123
8440.07 277.306
8440.13 252.004
8440.26 178.782
8440.35 139.830
8440.44 111.189
8440.62 75.7502
8440.79 56.0515
8440.97 44.2347
8441.14 36.4990
8441.32 31.1844
8441.67 24.4177
8442.02 20.3776
8442.37 17.7277
8442.72 15.8704
8443.07 14.5065
8443.77 12.6372
8444.47 11.4282
8445.18 10.5835
8445.88 9.96287
8447.28 9.11208
8448.68 8.55773
8450.09 8.16828
8451.49 7.87977
8454.30 7.48069
8457.10 7.21761
8459.91 7.03073
8462.71 6.89083
8468.33 6.69449
8473.94 6.56237
8479.55 6.46651
8485.16 6.39311
8496.39 6.28640
8507.61 6.21055
8530.06 6.10426
8552.51 6.02700
8574.96 5.96267
8619.86 5.84541
8664.76 5.71407
8687.21 5.62920
8709.66 5.51608
8732.11 5.34562
8743.33 5.21782
8754.56 5.03461
8760.17 4.90829
8765.78 4.74461
8771.39 4.52327
8777.01 4.20628
8779.81 3.98989
8782.62 3.71382
8785.42 3.34992
8788.23 2.85109
8789.63 2.52769
8791.04 2.13710
8792.44 1.66422
8793.84 1.10506
8795.25 0.529892
8795.95 0.348257
8796.30 0.346629
8796.65 0.462712
8797.00 0.782069
8797.35 1.45793
8797.70 2.78070
8797.88 3.84446
8798.05 5.32518
8798.23 7.41672
8798.40 10.3719
8798.58 14.6616
8798.75 20.9353
8798.93 30.4230
8799.10 44.9345
8799.28 67.6509
8799.45 103.253
8799.73 193.213
8800.00 279.473
8800.14 281.886
8800.27 256.305
8800.55 182.123
8800.75 138.377
8800.95 107.782
8801.15 86.4356
8801.36 71.3988
8801.76 52.2070
8802.17 40.9654
8802.57 33.7517
8802.97 28.8323
8803.78 22.6371
8804.59 18.9601
8805.40 16.5596
8806.21 14.8794
8807.02 13.6431
8808.64 11.9526
8810.26 10.8575
8811.88 10.0925
8813.49 9.52885
8816.73 8.75511
8819.97 8.24989
8823.20 7.89404
8826.44 7.62996
8832.91 7.26367
8839.39 7.02119
8845.86 6.84831
8852.33 6.71842
8865.28 6.53518
8878.22 6.41097
8904.12 6.25055
8930.01 6.14964
8942.96 6.11257
8955.90 6.08349
8968.85 6.06559
8975.32 6.06469
8981.79 6.07596
8988.27 6.11695
8991.50 6.16490
8994.74 6.25804
8996.36 6.33886
8997.98 6.46385
8999.60 6.67029
9001.21 7.04471
9002.02 7.35744
9002.83 7.82861
9003.64 8.58622
9004.45 9.91700
9005.26 12.5791
9005.66 15.0415
9006.07 19.1480
9006.47 26.7819
9006.68 33.2728
9006.88 43.2357
9007.08 59.6391
9007.28 88.6299
9007.48 145.232
9007.59 193.673
9007.69 263.885
9007.84 418.955
9008.00 522.562
9008.16 419.454
9008.31 264.522
9008.43 183.717
9008.55 132.146
9008.67 98.5282
9008.79 76.3280
9009.03 49.9743
9009.27 35.8595
9009.51 27.5202
9009.75 22.2139
9010.23 16.1222
9010.70 12.9019
9011.18 10.9992
9011.66 9.78316
9012.14 8.96076
9013.09 7.94749
9014.05 7.37227
9015.00 7.01364
9015.96 6.77521
9017.87 6.48651
9019.78 6.32447
9021.69 6.22379
9023.60 6.15646
9027.43 6.07359
9031.25 6.02514
9038.89 5.97039
9046.54 5.93863
9054.18 5.91628
9069.47 5.88349
9100.05 5.83484
9130.63 5.79384
9191.79 5.71852
9222.37 5.68144
9237.66 5.66324
9245.30 5.65672
9249.12 5.66431
9251.03 5.71055
9251.99 5.89255
9252.23 6.06991
9252.47 6.53437
9252.59 7.11816
9252.71 8.50668
9252.77 10.0763
9252.83 13.2494
9252.89 21.3483
9252.92 30.4508
9252.94 46.6365
9252.97 71.2520
9253.00 87.6782
9253.03 71.2896
9253.06 46.6836
9253.08 33.5675
9253.10 25.2472
9253.14 16.4353
9253.19 12.3412
9253.23 10.2070
9253.32 8.11810
9253.41 7.18785
9253.58 6.40703
9253.75 6.09671
9254.45 5.76511
9255.84 5.67205
9258.63 5.64432
9264.21 5.63081
9275.36 5.61450
9297.66 5.58364
9319.96 5.55129
9342.26 5.51662
9386.86 5.43724
9431.46 5.33706
9476.06 5.20011
9498.36 5.10827
9520.66 4.99100
9542.96 4.83426
9554.11 4.73368
9565.26 4.61182
9576.41 4.46126
9581.99 4.37223
9587.56 4.27254
9598.71 4.05412
9601.50 4.01970
9604.29 4.06127
9605.68 4.19188
9606.38 4.34286
9607.07 4.63352
9607.77 5.26462
9608.12 5.88570
9608.47 6.98077
9608.82 9.18524
9608.99 11.2162
9609.16 14.6045
9609.34 20.8601
9609.43 26.1647
9609.51 34.2680
9609.60 47.4333
9609.69 70.5382
9609.77 114.907
9609.82 152.787
9609.86 205.728
9609.93 327.235
9610.00 408.441
9610.07 327.702
9610.14 206.311
9610.19 150.294
9610.23 112.620
9610.32 68.1847
9610.41 45.5113
9610.50 32.8646
9610.59 25.0397
9610.68 19.9938
9610.87 14.0206
9611.05 10.7751
9611.23 8.83983
9611.59 6.73025
9611.95 5.66074
9612.32 5.04427
9613.04 4.38644
9613.76 4.05071
9614.49 3.84789
9615.94 3.60535
9618.84 3.32556
9621.74 3.10789
9624.63 2.89107
9627.53 2.65598
9633.33 2.08881
9636.23 1.73891
9639.13 1.33537
9642.03 0.880788
9644.92 0.416566
9646.37 0.227379
9647.82 0.137886
9648.55 0.167562
9649.27 0.282415
9650.00 0.528167
9650.72 0.976106
9651.45 1.74534
9652.17 3.03508
9652.90 5.19749
9653.62 8.87751
9654.34 15.3567
9655.07 27.2435
9655.43 36.8218
9655.79 50.2531
9656.16 69.2615
9656.52 96.0275
9657.26 180.952
9658.00 263.015
9658.37 265.939
9658.74 242.246
9659.48 172.723
9660.16 123.918
9660.84 92.4410
9661.52 72.1234
9662.19 58.5087
9663.55 42.0707
9664.90 32.8764
9666.26 27.1488
9667.61 23.3019
9670.32 18.5277
9673.03 15.7241
9675.74 13.8981
9678.45 12.6215
9681.16 11.6819
9686.57 10.3960
9691.99 9.56005
9697.41 8.97426
9702.83 8.54139
9713.66 7.94485
9724.50 7.55314
9735.34 7.27599
9746.17 7.06933
9767.84 6.78105
9789.52 6.58937
9800.35 6.51650
9811.19 6.45717
9816.61 6.43503
9822.02 6.42695
9824.73 6.44009
9827.44 6.50000
9828.80 6.59224
9830.15 6.85488
9830.83 7.20788
9831.17 7.54813
9831.50 8.14072
9831.84 9.32023
9832.01 10.3978
9832.18 12.1827
9832.35 15.4750
9832.44 18.2532
9832.52 22.4158
9832.61 29.1945
9832.69 40.7861
9832.77 62.8719
9832.86 106.664
9832.93 166.572
9833.00 206.834
9833.07 166.437
9833.14 106.497
9833.20 75.4115
9833.25 55.2055
9833.30 42.1692
9833.36 33.6335
9833.46 23.4181
9833.57 17.9376
9833.68 14.6731
9833.79 12.6181
9834.00 10.2573
9834.21 9.00447
9834.43 8.26858
9834.86 7.47845
9835.29 7.08687
9835.72 6.86457
9836.57 6.63408
9838.29 6.45849
9840.00 6.39103
9843.43 6.33373
9846.87 6.30530
9860.59 6.24269
9874.31 6.19781
9888.03 6.15927
9915.48 6.09448
9929.20 6.06851
9936.07 6.06488
9939.50 6.09749
9941.21 6.24589
9941.64 6.39563
9942.07 6.79901
9942.28 7.32141
9942.50 8.62736
9942.61 10.1726
9942.71 13.6027
9942.77 17.1528
9942.82 23.5623
9942.87 37.0824
9942.90 49.3981
9942.93 67.3382
9942.96 104.186
9943.00 128.807
9943.04 104.320
9943.07 67.5060
9943.10 48.4530
9943.13 36.1554
9943.19 22.8734
9943.24 16.5839
9943.30 13.2545
9943.41 9.97856
9943.52 8.50853
9943.74 7.26423
9943.96 6.77022
9944.41 6.38392
9944.85 6.23880
9946.63 6.08782
9950.19 6.04196
9957.31 6.01931
9971.54 5.99362
10000.0 5.95182
10026.2 5.91841
10052.4 5.88867
10078.6 5.86211
10104.8 5.83890
10131.0 5.82051
10144.1 5.81485
10157.2 5.81457
10170.3 5.82755
10176.8 5.84643
10183.4 5.88592
10186.7 5.92147
10189.9 5.97741
10193.2 6.07175
10196.5 6.24532
10198.1 6.39246
10199.8 6.61702
10201.4 6.98343
10203.0 7.63445
10203.8 8.17411
10204.7 8.98051
10205.5 10.2616
10206.3 12.4384
10207.1 16.7109
10207.5 20.5395
10207.9 26.7341
10208.3 37.6648
10208.8 59.4209
10209.0 79.7008
10209.2 110.656
10209.4 162.126
10209.6 249.194
10209.8 394.620
10210.0 491.435
10210.2 395.295
10210.4 250.056
10210.7 159.665
10210.9 109.438
10211.1 77.9655
10211.3 59.2142
10211.7 37.7441
10212.1 26.8991
10212.5 20.7265
10212.9 16.8976
10213.7 12.6059
10214.5 10.3871
10215.4 9.09437
10216.2 8.27599
10217.0 7.73089
10218.6 7.05589
10220.3 6.67492
10221.9 6.43863
10223.5 6.28257
10226.8 6.09277
10230.1 5.98648
10233.4 5.92026
10236.6 5.87582
10243.2 5.82069
10249.7 5.78811
10262.8 5.75047
10275.9 5.72789
10289.0 5.71147
10315.2 5.68634
10367.5 5.64669
10393.7 5.62927
10406.8 5.62771
10413.4 5.66575
10415.0 5.71358
10416.6 5.85659
10417.5 6.06075
10418.3 6.63659
10418.7 7.41401
10418.9 8.18863
10419.1 9.48000
10419.3 12.1847
10419.4 14.5532
10419.5 18.4236
10419.6 25.3496
10419.7 31.0363
10419.7 39.4462
10419.8 52.5147
10419.8 74.0456
10419.9 111.795
10419.9 185.882
10420.0 290.459
10420.0 366.495
10420.1 292.233
10420.1 186.218
10420.2 113.794
10420.2 70.4435
10420.3 47.9423
10420.3 36.8798
10420.4 28.4312
10420.4 23.7330
10420.5 17.3909
10420.7 13.8773
10420.8 11.7347
10421.0 9.36789
10421.2 8.11843
10421.4 7.43350
10421.9 6.70705
10422.8 6.14136
10423.7 5.92955
10425.4 5.76833
10427.2 5.70722
10430.8 5.65887
10434.3 5.63897
10448.5 5.61053
10477.0 5.58702
10533.9 5.55271
10562.3 5.53792
10590.8 5.52702
10605.0 5.52652
10619.2 5.53979
10626.3 5.56497
10629.9 5.59185
10633.4 5.64190
10637.0 5.74969
10638.8 5.85624
10640.5 6.04626
10641.4 6.20430
10642.3 6.44149
10643.2 6.82090
10644.1 7.48349
10645.0 8.79959
10645.4 10.0245
10645.9 12.0145
10646.3 15.7623
10646.5 18.8658
10646.8 23.5727
10647.0 31.1484
10647.2 44.2740
10647.4 69.0289
10647.5 89.5462
10647.6 118.564
10647.8 189.647
10648.0 234.170
10648.2 185.368
10648.4 118.241
10648.5 80.9320
10648.7 59.0035
10648.8 44.8403
10648.9 35.3983
10649.2 23.9434
10649.5 18.0617
10649.8 14.4722
10650.1 12.2747
10650.7 9.70567
10651.2 8.35305
10651.8 7.55646
10652.4 7.04881
10652.9 6.70580
10654.1 6.28567
10655.2 6.04806
10657.5 5.80385
10659.8 5.68613
10662.0 5.62058
10666.6 5.55339
10671.2 5.52054
10675.7 5.50148
10684.8 5.47984
10703.0 5.45755
10721.3 5.44272
10794.1 5.39420
10867.0 5.34596
10903.5 5.32182
10921.7 5.31634
10926.2 5.32194
10930.8 5.34538
10933.1 5.38232
10935.3 5.49132
10936.5 5.64492
10937.6 6.07480
10938.2 6.65396
10938.5 7.22695
10938.8 8.19903
10939.0 10.2207
10939.2 12.0306
10939.3 15.0316
10939.5 20.5247
10939.5 25.1436
10939.6 32.1405
10939.7 43.3800
10939.7 62.7922
10939.8 99.2315
10939.9 134.536
10939.9 176.080
10939.9 275.420
10940.0 346.315
10940.1 276.137
10940.1 175.516
10940.2 115.949
10940.2 76.2302
10940.3 53.6887
10940.3 41.9489
10940.5 27.2761
10940.6 19.8520
10940.7 15.3294
10940.8 12.8035
10941.0 9.94933
10941.2 8.41172
10941.5 7.55896
10941.9 6.63326
10942.4 6.18014
10942.8 5.92475
10943.7 5.66352
10945.5 5.46495
10947.3 5.39194
10950.9 5.33568
10954.5 5.31332
10968.8 5.28175
10997.5 5.25261
11026.2 5.22736
11040.6 5.21917
11047.7 5.23887
11051.3 5.35262
11052.2 5.47553
11053.1 5.81732
11053.6 6.28285
11054.0 7.52712
11054.2 9.16504
11054.5 13.0119
11054.6 17.3628
11054.7 26.4401
11054.7 36.1144
11054.8 49.7727
11054.9 80.0673
11054.9 132.203
11055.0 205.738
11055.0 259.081
11055.1 206.691
11055.1 132.075
11055.1 88.6676
11055.2 63.2827
11055.2 47.3135
11055.3 36.8868
11055.3 28.3902
11055.4 23.7875
11055.4 17.8690
11055.5 14.0365
11055.6 11.9190
11055.8 9.46042
11056.1 7.28354
11056.4 6.45541
11057.1 5.80083
11057.8 5.55514
11059.1 5.36908
11060.5 5.29940
11065.8 5.22339
11076.5 5.19232
11097.9 5.16430
11140.7 5.11494
11183.5 5.05954
11226.3 4.99213
11269.1 4.90231
11290.6 4.84158
11312.0 4.76077
11333.4 4.64111
11344.1 4.55309
11354.8 4.42858
11360.1 4.34346
11365.5 4.23364
11370.8 4.08548
11376.2 3.87309
11378.8 3.72730
11381.5 3.54088
11384.2 3.29184
11386.9 2.94598
11388.2 2.71636
11389.5 2.43264
11390.9 2.07651
11392.2 1.63039
11393.6 1.08566
11394.9 0.639193
11395.6 0.861370
11395.9 1.40879
11396.2 2.62607
11396.4 3.74583
11396.6 5.44012
11396.7 8.04160
11396.9 11.8264
11397.1 18.2196
11397.2 28.0462
11397.4 45.6129
11397.6 73.5226
11397.8 137.163
11398.0 198.393
11398.1 199.984
11398.2 181.471
11398.5 129.838
11398.6 95.4134
11398.8 72.5038
11399.0 57.3252
11399.2 46.9508
11399.6 34.1880
11400.0 26.9171
11400.4 22.3431
11400.7 19.2479
11401.5 15.3860
11402.3 13.1072
11403.0 11.6193
11403.8 10.5775
11404.5 9.81006
11406.1 8.75905
11407.6 8.07544
11409.1 7.59630
11410.6 7.24419
11413.6 6.75524
11416.7 6.43404
11419.7 6.20657
11422.8 6.03718
11428.8 5.79921
11434.9 5.63963
11441.0 5.52389
11447.0 5.43524
11459.2 5.30602
11471.3 5.21381
11495.6 5.08346
11519.9 4.98834
11544.2 4.91231
11556.4 4.88175
11568.5 4.86283
11574.6 4.86590
11580.7 4.89885
11583.7 4.95164
11586.7 5.09581
11588.2 5.28247
11589.0 5.45849
11589.8 5.76283
11590.5 6.36596
11590.9 6.92398
11591.3 7.86728
11591.7 9.66355
11591.9 11.2486
11592.0 13.7843
11592.2 18.2057
11592.4 26.8945
11592.5 35.1923
11592.6 47.0638
11592.7 66.3559
11592.8 100.474
11592.9 157.452
11593.0 191.582
11593.1 154.156
11593.2 95.8327
11593.3 71.2498
11593.3 52.8739
11593.5 33.1861
11593.6 23.0703
11593.7 17.3647
11593.9 13.8833
11594.0 11.6223
11594.3 8.98370
11594.5 7.57447
11594.8 6.74100
11595.3 5.85395
11595.8 5.42192
11596.3 5.18243
11597.4 4.94367
11599.5 4.77747
11601.5 4.72293
11605.7 4.68443
11609.9 4.66792
11626.5 4.62580
11643.2 4.58865
11659.9 4.56265
11668.2 4.56017
11676.5 4.57252
11684.9 4.61338
11693.2 4.71463
11697.4 4.81100
11701.5 4.96543
11705.7 5.22629
11709.9 5.69946
11711.9 6.09235
11714.0 6.67355
11716.1 7.58539
11718.2 9.12649
11720.3 12.0410
11721.3 14.5482
11722.4 18.4469
11723.4 24.9402
11724.4 36.7625
11725.0 46.5150
11725.5 60.7945
11726.0 82.1988
11726.5 114.279
11727.3 181.108
11728.0 224.965
11728.8 180.139
11729.5 114.274
11730.0 83.7235
11730.5 62.8391
11731.4 38.8683
11732.4 26.5553
11733.4 19.7191
11734.4 15.5084
11735.3 12.7977
11737.3 9.59712
11739.2 7.86726
11741.2 6.82789
11745.1 5.69040
11749.0 5.10782
11752.9 4.76370
11756.8 4.53840
11760.7 4.37899
11768.5 4.16146
11776.3 4.01074
11791.9 3.78396
11807.5 3.58464
11823.1 3.37984
11854.3 2.89110
11869.9 2.58021
11885.4 2.20335
11901.0 1.73850
11916.6 1.16500
11932.2 0.497152
11940.0 0.187712
11943.9 0.0780175
11947.8 0.0372655
11949.8 0.0592866
11951.7 0.123401
11953.7 0.244724
11955.6 0.444196
11957.6 0.751209
11959.5 1.20765
11961.5 1.87422
11963.4 2.83467
11965.4 4.23343
11967.3 6.27483
11969.3 9.28879
11971.2 13.8112
11973.2 20.7334
11975.1 31.5594
11977.1 48.7952
11979.0 76.0743
11982.0 145.442
11985.0 214.206
11986.5 218.152
11988.0 200.250
11991.0 144.847
11993.5 107.687
11996.0 82.5744
11998.5 65.7009
12001.1 54.0509
12006.1 39.5532
12011.1 31.2334
12016.1 25.9550
12021.2 22.3732
12031.2 17.8759
12041.3 15.2079
12051.3 13.4589
12061.4 12.2303
12071.4 11.3238
12091.5 10.0775
12111.6 9.26662
12121.6 8.96192
12126.7 8.82969
12131.7 8.71174
12136.7 8.61228
12141.7 8.55349
12144.2 8.57020
12146.8 8.70793
12148.0 8.93498
12148.6 9.16593
12149.3 9.57284
12149.9 10.4113
12150.2 11.2106
12150.5 12.5176
12150.8 15.0579
12151.0 17.2737
12151.2 20.4840
12151.3 26.1605
12151.5 35.7361
12151.5 44.0491
12151.6 56.2577
12151.7 74.5873
12151.8 98.7511
12151.9 154.780
12152.0 188.628
12152.1 154.594
12152.2 98.1176
12152.3 74.3552
12152.4 56.0419
12152.5 36.4318
12152.7 26.4735
12152.8 20.8892
12153.0 17.4879
12153.1 15.2771
12153.4 12.6860
12153.7 11.2538
12154.0 10.4299
12154.6 9.53122
12155.3 9.07016
12155.9 8.80804
12157.1 8.52423
12159.5 8.28759
12161.9 8.17766
12166.7 8.05042
12171.6 7.96049
12181.2 7.81505
12190.9 7.69113
12210.2 7.48130
12229.5 7.30768
12268.2 7.03563
12306.8 6.83371
12345.4 6.68445
12364.8 6.63008
12384.1 6.59571
12393.7 6.59100
12403.4 6.60106
12413.1 6.63732
12422.7 6.72668
12427.6 6.81073
12432.4 6.94482
12437.2 7.16958
12442.0 7.57717
12444.5 7.91468
12446.9 8.41466
12449.3 9.20482
12451.7 10.5414
12454.1 13.0837
12455.3 15.2984
12456.5 18.7385
12457.7 24.5780
12459.0 35.4073
12459.6 44.5964
12460.2 58.0577
12460.8 78.5901
12461.4 109.968
12462.2 172.362
12463.0 214.107
12463.8 172.746
12464.6 110.469
12465.5 70.8520
12466.3 48.4874
12467.1 35.5146
12467.9 27.6267
12468.7 22.4301
12469.5 18.9307
12471.1 14.5965
12472.7 12.1367
12474.3 10.6291
12477.5 8.94339
12480.8 8.06969
12484.0 7.56075
12487.2 7.23554
12490.4 7.01539
12496.9 6.74108
12503.3 6.58043
12509.8 6.47573
12516.2 6.40172
12529.1 6.30134
12542.0 6.23130
12554.9 6.17257
12561.4 6.16140
12563.0 6.18461
12564.6 6.28425
12565.4 6.44714
12566.2 6.92484
12566.6 7.59432
12567.0 9.28906
12567.2 11.3062
12567.3 13.0457
12567.4 15.7373
12567.5 20.1734
12567.6 28.0927
12567.7 43.6468
12567.8 57.0330
12567.8 78.4722
12567.9 122.415
12568.0 155.308
12568.1 126.086
12568.2 82.9939
12568.2 55.2559
12568.3 39.7585
12568.4 30.2931
12568.4 24.2422
12568.5 19.7231
12568.6 17.0269
12568.7 13.6015
12568.9 11.4849
12569.0 10.2479
12569.3 8.77895
12569.6 8.00299
12569.9 7.54096
12570.5 7.04248
12571.6 6.62946
12572.8 6.46145
12575.1 6.31969
12577.4 6.25814
12582.0 6.19921
12586.6 6.16768
12595.8 6.12832
12605.0 6.09989
12623.5 6.05317
12632.7 6.03754
12637.3 6.07324
12638.4 6.12714
12639.6 6.29515
12640.2 6.53786
12640.7 7.19629
12641.0 8.06767
12641.2 8.92014
12641.3 10.2637
12641.5 12.9758
12641.5 15.1650
12641.6 18.5019
12641.7 23.9017
12641.7 33.3188
12641.8 51.2518
12641.9 68.9135
12641.9 92.3187
12641.9 142.139
12642.0 181.208
12642.1 144.270
12642.1 94.9052
12642.2 66.2307
12642.2 50.0937
12642.3 37.1547
12642.3 30.3508
12642.4 21.1993
12642.5 16.3491
12642.6 13.4994
12642.7 11.6906
12642.8 9.61478
12643.0 8.51418
12643.2 7.86045
12643.5 7.16631
12644.3 6.59901
12645.0 6.37725
12646.4 6.20066
12647.8 6.13084
12650.7 6.07154
12653.5 6.04458
12664.9 6.00034
12670.6 5.99478
12676.3 6.02151
12679.1 6.08415
12680.6 6.15606
12682.0 6.29700
12683.4 6.61462
12684.1 6.93188
12684.8 7.50078
12685.5 8.65367
12685.9 9.73922
12686.2 11.4923
12686.6 14.7854
12686.8 17.5527
12687.0 21.4438
12687.1 27.9079
12687.3 38.8311
12687.5 58.5829
12687.7 93.7288
12687.8 147.749
12688.0 186.212
12688.2 151.543
12688.3 98.4488
12688.5 67.7040
12688.6 49.0651
12688.8 36.6898
12688.9 29.2583
12689.2 20.3903
12689.5 15.8930
12689.8 13.1595
12690.1 11.4853
12690.6 9.51757
12691.2 8.46884
12691.8 7.84179
12692.9 7.15610
12694.1 6.80276
12695.2 6.59770
12697.5 6.37516
12699.8 6.26035
12702.0 6.19258
12706.6 6.11850
12711.2 6.08452
12715.7 6.08360
12718.0 6.11069
12720.3 6.20706
12721.5 6.34641
12722.6 6.73406
12723.2 7.24927
12723.5 7.75328
12723.7 8.59897
12724.0 10.3307
12724.2 11.8580
12724.3 14.3537
12724.5 19.2790
12724.5 23.1764
12724.6 29.0164
12724.7 38.2656
12724.7 53.9434
12724.8 82.6553
12724.8 109.900
12724.9 147.275
12724.9 233.446
12725.0 288.364
12725.1 233.285
12725.1 147.072
12725.2 101.883
12725.2 77.1553
12725.3 48.3783
12725.4 33.6210
12725.5 25.2744
12725.5 19.6615
12725.6 16.4794
12725.8 12.7037
12726.0 10.5469
12726.1 9.33911
12726.4 8.01302
12726.8 7.32510
12727.1 6.93488
12727.7 6.53554
12729.1 6.23200
12730.4 6.12069
12733.0 6.03487
12735.6 6.00081
12746.0 5.95245
12766.9 5.91194
12787.9 5.88262
12808.8 5.85709
12850.6 5.81169
12892.4 5.77065
12976.0 5.69537
13017.8 5.66135
13028.3 5.65665
13038.7 5.66448
13044.0 5.68805
13049.2 5.77241
13051.8 5.90114
13053.1 6.03322
13054.4 6.27350
13055.7 6.78263
13056.4 7.26955
13057.0 8.11396
13057.7 9.79543
13058.0 11.3149
13058.3 13.6912
13058.7 17.9939
13059.0 26.1830
13059.2 33.9776
13059.3 45.6317
13059.5 64.7167
13059.6 96.6836
13059.8 153.806
13060.0 190.325
13060.2 155.826
13060.4 99.2501
13060.5 65.6096
13060.7 45.0894
13060.9 33.1106
13061.1 25.7242
13061.3 20.9148
13061.4 17.6318
13061.8 13.5885
13062.2 11.2984
13062.5 9.88008
13063.2 8.28845
13064.0 7.46151
13064.7 6.97627
13065.4 6.66652
13066.1 6.45621
13067.6 6.19588
13069.0 6.04585
13071.9 5.88633
13074.8 5.80600
13077.6 5.75880
13083.4 5.70645
13094.9 5.65930
13106.4 5.63521
13129.5 5.60536
13152.5 5.58332
13198.6 5.54624
13244.6 5.51289
13290.7 5.48190
13336.8 5.45413
13359.8 5.44261
13382.9 5.43475
13405.9 5.43791
13417.4 5.46223
13423.2 5.53051
13424.6 5.58778
13426.0 5.72900
13426.8 5.90403
13427.5 6.34767
13427.8 6.90366
13428.2 8.29858
13428.4 9.99217
13428.6 13.9727
13428.7 18.3767
13428.7 27.3855
13428.8 37.0314
13428.8 49.8523
13428.9 71.2041
13428.9 113.733
13429.0 180.055
13429.0 216.048
13429.0 176.393
13429.1 107.731
13429.1 82.4312
13429.1 60.5121
13429.2 46.0237
13429.2 36.2378
13429.3 24.5553
13429.3 19.0834
13429.4 12.8654
13429.5 10.0089
13429.8 7.51898
13430.0 6.59459
13430.4 5.88266
13430.9 5.63840
13432.7 5.42057
13436.2 5.39128
13443.4 5.40101
13457.7 5.42454
13472.0 5.46075
13486.3 5.53231
13493.5 5.59611
13500.6 5.69636
13507.8 5.86415
13514.9 6.17150
13518.5 6.42954
13522.1 6.81844
13525.6 7.44619
13529.2 8.54507
13532.8 10.7431
13534.6 12.7659
13536.4 16.1076
13538.2 22.2772
13539.1 27.5221
13539.9 35.4096
13540.8 48.2930
13541.7 70.4400
13542.6 112.200
13543.5 195.522
13544.3 311.029
13545.0 387.024
13545.8 310.163
13546.5 196.526
13547.3 121.298
13548.0 79.9397
13548.8 56.4362
13549.6 42.2129
13550.3 33.0777
13551.1 26.9071
13552.7 19.3943
13554.2 15.1918
13555.7 12.6144
13558.8 9.75439
13561.9 8.28823
13565.0 7.43764
13568.1 6.90010
13571.1 6.53834
13577.3 6.09540
13583.5 5.84322
13589.6 5.68471
13595.8 5.57754
13608.1 5.44339
13620.4 5.36265
13632.7 5.30751
13645.0 5.26609
13669.7 5.20353
13694.3 5.15301
13743.6 5.05911
13792.9 4.95220
13842.1 4.80579
13866.8 4.70251
13879.1 4.63810
13891.4 4.56176
13903.7 4.46986
13916.0 4.36063
13922.2 4.30443
13928.4 4.27087
13931.4 4.29641
13933.0 4.34465
13934.5 4.45228
13936.1 4.70671
13936.8 4.96611
13937.6 5.43301
13938.4 6.38106
13938.8 7.27533
13939.1 8.73107
13939.5 11.4924
13939.7 13.7739
13939.9 17.2296
13940.1 22.7762
13940.3 32.3390
13940.5 50.2348
13940.6 65.8939
13940.7 88.0583
13940.8 138.963
13941.0 172.899
13941.2 139.752
13941.3 88.7819
13941.4 64.9990
13941.5 48.5936
13941.8 30.5273
13942.0 20.9579
13942.2 15.8616
13942.4 12.6104
13942.6 10.5953
13943.0 8.20402
13943.5 6.87159
13943.9 6.08591
13944.7 5.20741
13945.6 4.75330
13946.4 4.48266
13948.1 4.17610
13949.8 4.00026
13951.5 3.87683
13954.9 3.68865
13961.7 3.34847
13968.5 2.93282
13972.0 2.66496
13975.4 2.33769
13978.8 1.92833
13982.2 1.41026
13985.6 0.772960
13987.3 0.440899
13989.0 0.193604
13989.8 0.173750
13990.7 0.316078
13991.5 0.777137
13991.9 1.22473
13992.4 1.88576
13992.8 2.90078
13993.2 4.38813
13993.6 6.69354
13994.1 10.1505
13994.5 15.6971
13994.9 24.3740
13995.3 38.9011
13995.8 62.1326
13996.4 120.518
13997.0 178.226
13997.3 181.987
13997.6 167.387
13998.3 121.280
13998.7 96.9056
13999.1 78.6132
13999.9 55.1444
14000.7 41.7508
14001.5 33.4839
14002.3 28.0125
14003.1 24.1825
14004.7 19.2763
14006.3 16.2800
14007.8 14.3037
14011.0 11.8596
14014.2 10.4253
14017.4 9.48763
14020.6 8.82863
14023.8 8.34086
14030.2 7.66700
14036.6 7.22498
14042.9 6.91208
14049.3 6.67863
14062.1 6.35236
14074.9 6.13429
14100.4 5.85731
14125.9 5.68524
14138.7 5.62102
14151.4 5.56776
14164.2 5.52641
14177.0 5.50960
14183.3 5.53097
14186.5 5.56468
14189.7 5.63663
14192.9 5.80419
14194.5 5.97627
14196.1 6.28747
14196.9 6.54754
14197.7 6.93711
14198.5 7.55551
14199.3 8.59987
14200.1 10.6216
14200.5 12.4008
14200.9 15.2190
14201.3 20.0314
14201.7 29.1085
14201.9 36.8567
14202.1 48.5636
14202.3 66.7827
14202.5 93.4595
14202.7 146.428
14203.0 182.106
14203.3 147.942
14203.5 95.3651
14203.8 60.2534
14204.1 40.8484
14204.3 29.7851
14204.6 23.2711
14204.9 18.8841
14205.1 16.0113
14205.7 12.4048
14206.2 10.3690
14206.7 9.11095
14207.8 7.70227
14208.8 6.96659
14209.9 6.54015
14211.0 6.26765
14212.0 6.08227
14214.2 5.85098
14216.3 5.71716
14220.5 5.57163
14224.8 5.49466
14229.0 5.44662
14237.5 5.38700
14246.0 5.34830
14254.5 5.31869
14271.5 5.27188
14305.4 5.19805
14339.4 5.13433
14407.3 5.01545
14475.2 4.89149
14543.1 4.74207
14577.1 4.64609
14611.1 4.52164
14645.0 4.34146
14662.0 4.21080
14679.0 4.02803
14687.5 3.90429
14696.0 3.74598
14704.4 3.53475
14712.9 3.23673
14717.2 3.03566
14721.4 2.78239
14725.7 2.45230
14729.9 2.00953
14732.0 1.72696
14734.2 1.39433
14736.3 1.00451
14738.4 0.569770
14740.5 0.186168
14741.6 0.136239
14742.7 0.394096
14743.2 0.769812
14743.7 1.45708
14744.2 2.67418
14744.8 4.82669
14745.3 8.70924
14745.6 11.8250
14745.8 15.9674
14746.1 21.9802
14746.4 30.1518
14746.6 42.2081
14746.9 58.6040
14747.5 114.123
14748.0 169.010
14748.3 172.507
14748.6 158.219
14749.1 114.838
14749.6 83.8049
14750.1 63.4122
14750.6 50.0791
14751.1 41.0544
14752.1 30.0444
14753.1 23.8077
14754.1 19.8903
14755.1 17.2384
14757.1 13.9223
14759.1 11.9575
14761.1 10.6690
14763.1 9.76311
14765.1 9.09319
14769.1 8.17096
14773.1 7.56715
14777.1 7.14136
14781.1 6.82551
14789.1 6.38527
14797.1 6.09256
14805.1 5.88261
14813.1 5.72381
14829.1 5.49623
14845.1 5.33802
14877.1 5.12311
14909.1 4.97368
14941.0 4.85512
15005.0 4.65776
15069.0 4.47641
15132.9 4.28953
15164.9 4.19039
15196.9 4.08769
15228.9 3.98983
15236.9 3.97189
15244.9 3.96644
15248.9 3.97769
15252.9 4.02164
15254.9 4.08225
15256.9 4.23856
15257.9 4.43424
15258.9 4.92867
15259.4 5.54469
15259.9 7.08092
15260.1 8.93823
15260.3 10.6813
15260.4 13.2936
15260.5 18.3779
15260.6 27.9862
15260.7 36.7958
15260.8 51.2035
15260.8 76.3020
15260.9 126.754
15260.9 194.140
15261.0 242.105
15261.1 188.804
15261.1 119.201
15261.2 82.3773
15261.2 60.6138
15261.2 46.1072
15261.3 36.1988
15261.4 24.1914
15261.4 17.6103
15261.5 13.2981
15261.6 10.9068
15261.8 8.13843
15262.1 5.77226
15262.4 4.88943
15263.1 4.21988
15263.7 3.99685
15266.3 3.80944
15271.6 3.78231
15282.0 3.77595
15292.5 3.78120
15302.9 3.82271
15308.2 3.87363
15313.4 3.96455
15318.6 4.12978
15323.9 4.44835
15326.5 4.72204
15329.1 5.13796
15331.7 5.81308
15334.3 6.99308
15336.9 9.34016
15338.3 11.4800
15339.6 14.9661
15340.9 21.2993
15341.5 26.5000
15342.2 34.2355
15342.8 46.5869
15343.5 66.9359
15344.1 103.185
15344.8 170.185
15345.4 271.748
15346.0 338.289
15346.6 270.309
15347.2 170.587
15347.7 119.126
15348.2 85.7775
15348.6 64.0921
15349.1 49.8396
15350.0 32.6155
15350.9 23.2993
15351.8 17.7096
15352.7 14.1811
15354.5 10.1043
15356.4 7.92360
15358.2 6.63440
15360.0 5.79989
15361.8 5.23281
15365.5 4.52247
15369.1 4.10658
15372.8 3.83675
15376.4 3.64737
15383.7 3.39421
15391.0 3.22394
15398.3 3.09228
15405.6 2.98007
15420.2 2.78030
15434.8 2.58810
15464.0 2.17447
15493.2 1.67688
15522.4 1.05961
15551.6 0.349569
15558.9 0.192420
15566.2 0.0814107
15569.9 0.0627833
15573.5 0.102928
15575.3 0.180202
15577.2 0.389661
15578.1 0.658606
15579.0 1.35043
15579.4 2.22566
15579.7 3.02916
15579.9 4.29089
15580.1 6.68213
15580.2 8.80190
15580.4 11.7462
15580.5 16.9250
15580.6 25.1033
15580.7 39.9416
15580.8 68.0318
15580.9 109.022
15581.0 136.555
15581.1 109.518
15581.2 68.6582
15581.3 44.4046
15581.4 31.2548
15581.5 22.0685
15581.5 16.8152
15581.7 10.3558
15581.9 7.15469
15582.0 5.15908
15582.2 3.91376
15582.5 2.54211
15582.9 1.80720
15583.2 1.39456
15583.9 0.965971
15585.2 0.677309
15586.5 0.632254
15589.2 0.766780
15591.9 1.05806
15594.6 1.48958
15597.2 2.08899
15599.9 2.90664
15602.6 4.01221
15605.2 5.52110
15607.9 7.58514
15610.6 10.4317
15613.2 14.3966
15615.9 19.9794
15618.6 27.9178
15621.2 39.2675
15623.9 55.3310
15629.5 108.401
15635.0 162.851
15637.8 167.138
15640.6 154.457
15646.1 113.020
15649.6 91.1077
15653.0 74.4464
15659.9 52.7583
15666.9 40.2028
15673.8 32.3883
15680.7 27.1728
15687.6 23.5037
15701.4 18.7595
15715.3 15.8680
15729.1 13.9533
15736.0 13.2330
15739.5 12.9237
15742.9 12.6530
15746.4 12.4366
15749.9 12.3482
15751.6 12.4518
15752.5 12.6111
15753.3 12.9344
15754.2 13.6584
15754.6 14.3580
15755.1 15.5731
15755.5 17.9380
15755.7 20.1132
15755.9 23.4606
15756.1 29.6392
15756.3 41.3103
15756.5 52.3114
15756.6 70.1368
15756.7 100.589
15756.8 148.733
15756.9 232.887
15757.0 283.108
15757.1 231.118
15757.2 145.867
15757.4 88.4619
15757.5 57.5487
15757.6 41.4625
15757.8 32.8286
15757.9 27.0292
15758.0 23.4794
15758.3 19.0654
15758.6 16.5884
15758.9 15.1583
15759.4 13.5867
15760.0 12.7721
15760.5 12.3055
15761.6 11.7902
15762.7 11.5140
15763.8 11.3356
15765.9 11.1001
15770.3 10.7923
15774.7 10.5539
15783.4 10.1542
15792.1 9.81409
15809.5 9.25590
15827.0 8.82388
15844.4 8.50819
15853.1 8.40832
15861.9 8.37919
15866.2 8.41298
15870.6 8.50644
15874.9 8.70725
15879.3 9.12531
15881.5 9.49365
15883.7 10.0610
15885.8 10.9812
15888.0 12.5892
15890.2 15.7299
15891.3 18.5353
15892.4 23.0422
15893.5 30.8898
15894.6 46.1444
15895.1 59.7368
15895.6 80.5558
15896.2 114.225
15896.7 169.320
15897.4 267.547
15898.0 333.960
15898.6 269.718
15899.3 172.043
15899.7 123.395
15900.2 91.2194
15900.7 69.9249
15901.1 55.4704
15902.0 38.0483
15903.0 28.5200
15903.9 22.8054
15904.8 19.1263
15906.6 14.8617
15908.5 12.5536
15910.3 11.1747
15914.0 9.65517
15917.7 8.86893
15921.3 8.40200
15925.0 8.09428
15928.7 7.87562
15936.0 7.58051
15943.4 7.38387
15958.0 7.11731
15972.7 6.92457
15987.4 6.76318
16002.1 6.61819
16005.8 6.59313
16009.4 6.60949
16011.3 6.68651
16013.1 6.97956
16014.0 7.43272
16014.5 7.89480
16015.0 8.73216
16015.4 10.4473
16015.6 12.0468
16015.9 14.7221
16016.1 19.6378
16016.2 23.9813
16016.3 29.9731
16016.5 40.3800
16016.6 56.4793
16016.7 84.8008
16016.8 138.169
16016.9 218.903
16017.0 277.370
16017.1 225.509
16017.2 145.749
16017.3 95.9427
16017.4 65.0311
16017.5 47.2010
16017.7 36.2945
16017.8 29.2277
16017.9 24.4169
16018.1 18.4997
16018.3 15.1446
16018.5 13.0601
16019.0 10.7057
16019.4 9.46867
16019.9 8.73372
16020.7 7.93120
16021.6 7.51804
16022.5 7.27290
16024.2 7.00188
16026.0 6.85519
16027.8 6.76298
16031.3 6.65021
16038.3 6.52690
16045.3 6.44802
16059.4 6.33070
16073.4 6.23417
16101.6 6.06618
16129.7 5.91562
16185.9 5.64013
16242.1 5.37834
16298.4 5.11510
16354.6 4.84980
16382.7 4.73802
16396.8 4.70777
16410.8 4.72615
16424.9 4.87257
16431.9 5.06471
16438.9 5.44668
16446.0 6.27293
16449.5 7.06411
16453.0 8.40206
16456.5 10.9049
16458.3 13.0356
16460.0 16.2680
16461.8 21.5278
16463.5 30.6238
16465.3 47.9221
16467.1 82.3162
16468.5 130.363
16470.0 162.708
16471.5 131.278
16473.0 83.8916
16474.4 53.5373
16475.9 36.4792
16477.3 26.5377
16478.8 20.4046
16480.2 16.3828
16481.7 13.6536
16484.6 10.2776
16487.5 8.34409
16490.4 7.13754
16496.2 5.74837
16502.0 4.98859
16507.8 4.50728
16519.4 3.90292
16531.0 3.49012
16542.7 3.14168
16565.9 2.45517
16589.1 1.64027
16600.7 1.15395
16612.3 0.630079
16618.2 0.381159
16624.0 0.186138
16626.9 0.132849
16629.8 0.132408
16632.7 0.213798
16635.6 0.422953
16637.0 0.598380
16638.5 0.835665
16641.4 1.57184
16644.3 2.84750
16647.2 5.02664
16650.1 8.81616
16653.0 15.5104
16655.9 27.6862
16658.8 50.0459
16662.4 99.9196
16666.0 152.443
16667.8 157.335
16669.6 146.023
16673.2 107.626
16677.2 74.7715
16681.1 54.9112
16685.1 42.7491
16689.0 34.8787
16693.0 29.4853
16696.9 25.6309
16704.8 20.5498
16712.7 17.3931
16720.6 15.2665
16736.4 12.5974
16752.2 10.9936
16760.2 10.4096
16768.1 9.92465
16776.0 9.52069
16779.9 9.35010
16783.9 9.20806
16787.8 9.11909
16789.8 9.11832
16791.8 9.18602
16793.7 9.42172
16794.7 9.69158
16795.7 10.1965
16796.2 10.6314
16796.7 11.2736
16797.2 12.3166
16797.7 14.0686
16798.2 17.4876
16798.4 20.4988
16798.7 25.0285
16798.9 32.9823
16799.2 47.0650
16799.3 59.8966
16799.4 77.5863
16799.5 104.282
16799.7 145.423
16799.8 227.740
16800.0 284.152
16800.2 229.511
16800.3 147.219
16800.5 106.379
16800.6 79.4887
16800.7 61.5977
16800.8 49.4002
16801.1 34.6297
16801.3 26.5144
16801.6 21.4737
16801.8 18.3777
16802.3 14.7595
16802.8 12.7764
16803.2 11.6132
16804.2 10.3327
16805.2 9.66587
16806.1 9.27067
16808.1 8.82954
16810.0 8.58231
16811.9 8.41823
16815.8 8.19373
16819.7 8.02939
16823.6 7.89160
16831.3 7.65329
16846.8 7.23262
16862.2 6.81954
16877.7 6.34418
16885.5 6.04513
16893.2 5.66094
16900.9 5.11028
16904.8 4.71865
16908.7 4.18723
16910.6 3.83994
16912.5 3.41618
16914.5 2.88309
16916.4 2.20912
16918.3 1.35937
16920.3 0.488465
16921.2 0.406092
16921.7 0.725160
16922.2 1.61545
16922.5 2.48661
16922.7 3.75373
16922.9 5.65224
16923.2 8.50711
16923.4 12.8352
16923.7 19.4628
16923.9 29.6852
16924.1 45.3740
16924.4 66.3308
16924.6 93.9121
16925.0 145.795
16925.2 152.180
16925.4 142.472
16925.9 107.350
16926.3 79.6200
16926.7 61.5953
16927.1 49.6578
16927.5 41.4899
16928.3 31.2994
16929.1 25.5219
16929.9 21.8020
16930.7 19.2887
16932.3 16.0812
16933.9 14.1508
16935.5 12.8679
16937.1 11.9551
16938.7 11.2765
16942.0 10.3220
16945.2 9.68513
16948.4 9.22767
16951.6 8.88222
16958.1 8.38724
16964.5 8.04584
16977.3 7.59105
16990.2 7.28853
17003.1 7.06351
17028.8 6.73234
17054.5 6.48384
17067.4 6.37736
17080.3 6.27942
17093.1 6.18905
17106.0 6.10984
17112.4 6.08162
17118.9 6.08575
17122.1 6.13361
17125.3 6.31372
17126.9 6.58420
17127.7 6.85868
17128.5 7.34764
17129.3 8.36706
17129.7 9.31907
17130.1 10.9374
17130.5 14.0034
17130.7 16.6698
17130.9 20.8449
17131.1 27.8631
17131.3 40.8076
17131.4 51.6225
17131.5 67.6518
17131.6 92.0604
17131.7 131.662
17131.9 206.535
17132.0 259.701
17132.1 208.395
17132.3 133.964
17132.4 97.3337
17132.5 71.6563
17132.6 54.7497
17132.7 44.2913
17132.9 30.6543
17133.0 23.0872
17133.2 18.3165
17133.4 15.4100
17133.8 11.9984
17134.2 10.1160
17134.6 9.01960
17135.3 7.81866
17136.1 7.20137
17136.9 6.84495
17138.4 6.46786
17140.0 6.27662
17141.5 6.16471
17144.5 6.03883
17150.7 5.91902
17156.8 5.85105
17169.1 5.75472
17181.4 5.67468
17205.9 5.52818
17230.4 5.38680
17279.5 5.09984
17328.6 4.78907
17377.6 4.43232
17426.7 3.99931
17451.2 3.74025
17475.8 3.44219
17488.0 3.27524
17500.3 3.09556
17512.6 2.91383
17518.7 2.89007
17520.2 2.95287
17521.8 3.18187
17522.5 3.52073
17523.3 4.43879
17523.7 5.65541
17523.9 6.75575
17524.1 8.58222
17524.3 11.9231
17524.4 14.9071
17524.5 18.9622
17524.6 26.2012
17524.6 37.3761
17524.7 60.6585
17524.8 80.3060
17524.8 107.778
17524.9 171.926
17525.0 214.540
17525.1 173.248
17525.2 109.436
17525.2 69.1943
17525.3 46.1366
17525.4 32.7855
17525.5 25.4304
17525.6 19.8396
17525.6 16.0556
17525.8 11.6528
17525.9 8.97783
17526.1 7.42434
17526.4 5.60876
17527.0 4.11222
17527.6 3.52408
17528.9 3.04555
17530.1 2.84915
17532.6 2.66836
17535.0 2.56966
17544.9 2.31090
17554.7 2.07735
17564.6 1.83300
17584.3 1.29345
17604.0 0.695675
17613.9 0.399716
17623.8 0.149128
17628.7 0.0642684
17633.6 0.0290382
17638.5 0.0720852
17641.0 0.136279
17643.5 0.238324
17645.9 0.388987
17648.4 0.599694
17650.9 0.888547
17653.3 1.27437
17658.3 2.46227
17663.2 4.51288
17668.1 8.05857
17673.1 14.2786
17678.0 25.3920
17682.9 45.2559
17689.5 92.7501
17696.0 144.484
17699.3 150.591
17702.6 141.106
17709.1 105.790
17713.8 83.9301
17718.5 67.8258
17723.2 56.2057
17727.8 47.7219
17737.2 36.5487
17746.6 29.7443
17755.9 25.2627
17765.3 22.1337
17784.0 18.0975
17802.7 15.6339
17821.5 13.9872
17858.9 11.9334
17896.3 10.7063
17933.8 9.89005
17952.5 9.57687
17961.9 9.43873
17971.2 9.31247
17980.6 9.20068
17990.0 9.11789
17994.6 9.10964
17999.3 9.19230
18001.7 9.35637
18002.8 9.53219
18004.0 9.85919
18005.2 10.5496
18005.8 11.2216
18006.3 12.3680
18006.9 14.6475
18007.2 16.6605
18007.5 19.9027
18007.8 25.8461
18008.1 37.2932
18008.3 47.9967
18008.4 63.8599
18008.5 92.2344
18008.7 137.069
18008.8 214.696
18009.0 267.030
18009.2 216.085
18009.3 138.806
18009.5 89.0923
18009.6 61.1836
18009.8 45.0635
18010.0 35.6876
18010.1 29.1259
18010.3 24.9097
18010.6 19.4870
18010.9 16.4032
18011.2 14.4890
18011.8 12.3378
18012.4 11.2194
18013.1 10.5629
18014.3 9.85819
18015.5 9.50328
18016.8 9.29616
18019.3 9.06895
18021.7 8.94585
18024.2 8.86661
18029.2 8.76266
18039.1 8.63014
18049.0 8.53012
18068.9 8.36392
18088.8 8.22100
18108.6 8.09352
18128.5 7.97811
18168.2 7.77587
18247.6 7.45318
18327.1 7.20275
18406.5 6.99869
18485.9 6.82580
18525.6 6.74780
18565.4 6.67431
18605.1 6.60637
18624.9 6.58610
18629.9 6.59390
18634.9 6.63442
18637.3 6.70036
18639.8 6.89634
18641.1 7.16830
18641.7 7.43509
18642.3 7.90915
18642.9 8.87061
18643.2 9.76950
18643.5 11.2900
18643.9 14.1554
18644.0 16.7361
18644.2 20.5103
18644.3 27.2717
18644.5 38.8935
18644.6 49.1754
18644.6 64.5626
18644.7 88.2307
18644.8 121.911
18644.9 189.886
18645.0 238.500
18645.1 190.863
18645.2 123.118
18645.3 79.2375
18645.4 55.1889
18645.5 40.8274
18645.6 31.8102
18645.7 25.3791
18645.8 21.4161
18646.0 16.4636
18646.2 13.5101
18646.4 11.7712
18646.9 9.76574
18647.3 8.72978
18647.7 8.12579
18648.5 7.48455
18650.1 6.98797
18651.8 6.80081
18655.0 6.65508
18658.3 6.59744
18664.8 6.54701
18671.4 6.52136
18697.6 6.46314
18749.9 6.37617
18854.6 6.21455
18906.9 6.13343
18959.2 6.04949
19011.6 5.96010
19037.8 5.91256
19050.8 5.89009
19057.4 5.89005
19060.6 5.93867
19062.3 6.15448
19063.1 6.95358
19063.3 7.72441
19063.5 9.53685
19063.6 11.5994
19063.7 15.9456
19063.8 27.3831
19063.9 41.0321
19063.9 55.2307
19063.9 76.1574
19064.0 119.088
19064.0 146.941
19064.0 119.475
19064.1 76.6440
19064.1 50.2460
19064.2 34.8381
19064.2 21.5805
19064.3 15.5695
19064.4 12.4148
19064.5 9.40730
19064.7 8.07751
19064.9 6.94135
19065.2 6.51065
19066.4 6.04119
19068.6 5.90452
19073.1 5.85857
19082.2 5.82915
19100.3 5.78625
19136.5 5.69652
19172.7 5.58916
19208.9 5.45034
19245.1 5.24992
19263.2 5.10489
19281.3 4.90236
19290.3 4.76521
19299.4 4.58970
19308.4 4.35531
19317.5 4.02395
19322.0 3.79982
19326.5 3.51661
19331.0 3.14577
19335.6 2.64403
19337.8 2.32044
19340.1 1.93442
19342.3 1.47154
19344.6 0.929233
19346.9 0.367867
19348.0 0.169342
19349.1 0.191545
19349.7 0.390720
19350.3 0.822306
19350.8 1.67059
19351.4 3.20501
19351.7 4.44084
19352.0 6.06020
19352.2 8.25625
19352.5 11.2512
19352.8 15.5329
19353.1 21.2656
19353.4 29.1836
19353.6 40.0490
19354.0 58.2892
19354.3 82.2467
19355.0 128.416
19355.3 133.829
19355.7 125.287
19356.4 93.7552
19357.0 70.5856
19357.6 54.8399
19358.2 44.2861
19358.8 37.0050
19360.0 27.9380
19361.2 22.7237
19362.4 19.3621
19363.6 17.0589
19365.9 14.1492
19368.3 12.3914
19370.7 11.2306
19373.1 10.4036
19375.5 9.79026
19380.3 8.93675
19385.1 8.37274
19389.9 7.97206
19394.7 7.67286
19404.3 7.25272
19413.8 6.97086
19433.0 6.61057
19452.1 6.38397
19471.3 6.22316
19509.6 5.99747
19547.9 5.83264
19586.2 5.69533
19624.5 5.57420
19643.7 5.53262
19648.4 5.53639
19653.2 5.57210
19655.6 5.63196
19658.0 5.80471
19659.2 6.03909
19660.4 6.65666
19661.0 7.45205
19661.3 8.19291
19661.6 9.44595
19661.9 11.8165
19662.1 13.8833
19662.2 17.1361
19662.4 22.6550
19662.5 32.9987
19662.6 42.5075
19662.7 55.0212
19662.7 73.8609
19662.8 104.269
19662.9 161.580
19663.0 201.413
19663.1 160.614
19663.2 102.575
19663.3 61.0658
19663.4 40.1695
19663.5 27.9663
19663.7 21.5139
19663.8 17.1303
19663.9 14.4872
19664.1 11.2868
19664.3 9.44620
19664.6 8.38255
19665.0 7.18769
19665.9 6.24233
19666.8 5.88527
19668.6 5.61736
19670.4 5.51861
19674.0 5.44124
19677.6 5.40746
19692.0 5.34012
19720.9 5.23612
19749.7 5.12856
19778.5 5.01349
19807.3 4.89239
19821.8 4.83329
19836.2 4.78306
19850.6 4.76336
19857.8 4.78550
19865.0 4.86269
19868.6 4.94368
19872.2 5.07893
19875.8 5.31456
19879.4 5.75211
19881.2 6.12112
19883.0 6.67220
19884.8 7.54612
19886.6 9.04175
19888.4 11.8980
19889.3 14.4012
19890.2 18.3528
19891.1 25.0739
19892.0 37.6983
19892.5 48.4455
19892.9 64.6643
19893.4 89.9168
19893.8 129.449
19894.4 205.914
19895.0 256.127
19895.6 205.073
19896.2 130.129
19896.6 93.4148
19897.0 68.9469
19897.4 52.6380
19897.8 41.7314
19898.6 28.2487
19899.4 20.8008
19900.2 16.3067
19901.0 13.4026
19902.7 10.0144
19904.3 8.18268
19905.9 7.09211
19909.2 5.89705
19912.4 5.28032
19915.6 4.91424
19918.9 4.67111
19922.1 4.49690
19928.6 4.25400
19935.1 4.08002
19948.1 3.80682
19961.1 3.55687
19974.1 3.29332
19987.0 2.99616
20000.0 2.64833
20021.8 1.89409
20032.7 1.40979
20043.6 0.848899
20054.5 0.277394
20060.0 0.0814322
20062.7 0.0542214
20065.4 0.116256
20068.1 0.325169
20069.5 0.511729
20070.9 0.774925
20072.2 1.14082
20073.6 1.63497
20074.9 2.30109
20076.3 3.19562
20079.0 6.02437
20081.8 11.1711
20084.5 20.7933
20087.2 38.7467
20088.9 56.5836
20090.6 80.0496
20094.0 125.505
20095.7 131.067
20097.4 122.958
20100.8 92.3496
20103.7 70.3856
20106.6 55.2161
20109.5 44.8742
20112.3 37.6477
20118.1 28.5233
20123.9 23.1909
20129.6 19.7567
20135.4 17.3954
20138.3 16.4766
20141.2 15.6918
20144.0 15.0629
20145.5 15.0118
20146.2 15.8225
20146.4 16.6623
20146.6 18.7293
20146.6 21.0617
20146.7 25.8673
20146.8 37.8863
20146.9 53.3954
20146.9 82.0790
20147.0 124.773
20147.0 151.008
20147.0 125.734
20147.1 83.2948
20147.1 50.4232
20147.2 36.6845
20147.3 24.9861
20147.4 20.4660
20147.5 18.2886
20147.7 16.2720
20147.9 15.4600
20148.7 14.4243
20150.3 13.8716
20153.6 13.2701
20156.8 12.7904
20160.1 12.3716
20166.6 11.6644
20173.1 11.0869
20186.1 10.1983
20199.1 9.54542
20225.1 8.64472
20251.1 8.04604
20277.0 7.61193
20303.0 7.27601
20355.0 6.76860
20407.0 6.37022
20459.0 6.00654
20511.0 5.62101
20537.0 5.39882
20550.0 5.27479
20556.5 5.20922
20559.7 5.18038
20561.3 5.19075
20562.1 5.29725
20562.5 5.71673
20562.7 6.94780
20562.8 9.65407
20562.9 13.6773
20562.9 24.9628
20563.0 45.2365
20563.1 25.4140
20563.1 14.0483
20563.2 9.94056
20563.3 6.99902
20563.5 5.76608
20563.9 5.32141
20564.8 5.17949
20566.5 5.12102
20569.9 5.07023
20576.7 4.98549
20590.3 4.80659
20617.5 4.36315
20631.1 4.07692
20644.7 3.72550
20651.5 3.51710
20658.3 3.28148
20665.1 3.01387
20668.5 2.87541
20670.2 2.84936
20671.1 3.02038
20671.5 3.74044
20671.7 5.73177
20671.8 10.0329
20671.9 15.3134
20671.9 30.4208
20672.0 58.8151
20672.1 31.0958
20672.1 15.8745
20672.2 9.79172
20672.3 5.81630
20672.5 3.75487
20673.0 2.99564
20673.9 2.71371
20675.7 2.54850
20679.3 2.32701
20686.5 1.86966
20693.7 1.34128
20700.9 0.749976
20708.2 0.194018
20711.8 0.0507248
20713.6 0.0707079
20715.4 0.199466
20717.2 0.501732
20719.0 1.07586
20720.8 2.09139
20722.6 3.83615
20724.4 6.83778
20726.2 11.9796
20728.0 20.9191
20729.8 36.4243
20731.1 53.8481
20732.4 76.7818
20735.0 122.308
20736.3 128.661
20737.6 121.459
20740.2 92.3089
20742.4 71.6895
20744.5 57.0401
20746.6 46.8567
20748.7 39.6646
20753.0 30.4115
20757.3 24.9279
20761.5 21.3607
20765.8 18.8931
20774.3 15.7278
20782.8 13.8018
20791.3 12.5174
20808.3 10.9195
20825.3 9.97883
20833.8 9.65057
20842.3 9.39746
20850.8 9.22896
20855.1 9.19457
20859.3 9.22554
20861.5 9.28635
20863.6 9.40268
20865.7 9.61767
20867.8 10.0262
20868.9 10.3742
20870.0 10.8919
20871.0 11.7107
20872.1 13.1059
20873.2 15.7925
20873.7 18.1270
20874.2 21.8104
20874.7 28.0818
20875.3 39.9075
20875.5 50.2638
20875.8 65.4055
20876.1 90.1305
20876.3 127.778
20876.7 200.330
20877.0 246.362
20877.3 196.273
20877.7 125.573
20878.0 80.5139
20878.3 55.2395
20878.7 40.6449
20879.0 31.9312
20879.3 26.0819
20879.6 22.2173
20880.3 17.3841
20880.9 14.6288
20881.6 12.9632
20882.9 11.1061
20884.2 10.1432
20885.5 9.58584
20886.8 9.22972
20888.1 8.98640
20890.7 8.67834
20893.3 8.49247
20898.5 8.27323
20903.8 8.13801
20909.0 8.03854
20919.4 7.88734
20929.8 7.76739
20940.2 7.66491
20961.1 7.49307
20982.0 7.35130
21002.8 7.23122
21044.5 7.03866
21086.2 6.89757
21107.1 6.84804
21127.9 6.82078
21138.4 6.82137
21148.8 6.83886
21159.2 6.88618
21169.6 6.99316
21174.9 7.09063
21180.1 7.24313
21185.3 7.49548
21190.5 7.94650
21193.1 8.31692
21195.7 8.86578
21198.3 9.72715
21200.9 11.1818
21203.5 13.9509
21204.8 16.3606
21206.1 20.1568
21207.5 26.6741
21208.8 38.8722
21209.4 49.2938
21210.1 65.0871
21210.7 89.8174
21211.4 128.771
21212.2 201.903
21213.0 249.279
21213.8 199.564
21214.7 127.038
21215.3 86.3161
21216.0 61.2985
21216.7 45.7594
21217.4 35.7275
21218.8 24.2514
21220.2 18.2968
21221.6 14.8535
21222.9 12.6966
21225.7 10.2594
21228.5 8.99164
21231.2 8.25081
21234.0 7.78090
21236.7 7.46501
21242.2 7.07597
21247.8 6.85423
21253.3 6.71385
21258.8 6.61832
21269.8 6.49631
21280.9 6.42041
21302.9 6.32481
21325.0 6.26022
21347.0 6.20927
21391.2 6.13046
21413.2 6.10221
21435.3 6.08543
21457.4 6.08902
21479.4 6.13517
21490.5 6.19080
21501.5 6.28869
21512.5 6.46478
21523.6 6.80183
21529.1 7.08972
21534.6 7.52732
21540.1 8.23103
21545.6 9.45146
21551.2 11.8301
21553.9 13.9502
21556.7 17.3337
21559.4 23.2224
21562.2 34.6062
21563.6 44.5752
21564.9 60.0314
21566.3 84.9302
21567.7 125.094
21569.4 198.078
21571.0 247.307
21572.7 200.044
21574.3 127.799
21576.2 77.6554
21578.0 51.1436
21579.8 36.5062
21581.7 27.8540
21583.5 22.3308
21585.3 18.6489
21589.0 14.1795
21592.7 11.6886
21596.4 10.1605
21603.7 8.45659
21611.0 7.57207
21618.4 7.04952
21625.7 6.71146
21633.1 6.47735
21647.7 6.17554
21662.4 5.98760
21677.1 5.85542
21691.8 5.75341
21721.2 5.59391
21750.5 5.45860
21765.2 5.39498
21779.9 5.34626
21787.2 5.35371
21790.9 5.38794
21794.6 5.47820
21798.2 5.71785
21800.1 5.98085
21801.9 6.47503
21803.7 7.53424
21804.7 8.55271
21805.6 10.2746
21806.5 13.5619
21807.0 16.3964
21807.4 20.7734
21807.9 27.9534
21808.3 40.6512
21808.8 65.1431
21809.2 113.772
21809.6 182.530
21810.0 231.437
21810.4 189.880
21810.8 122.962
21811.1 80.8742
21811.5 56.7582
21811.8 42.1611
21812.2 32.8920
21812.9 22.4106
21813.6 16.9930
21814.3 13.8099
21815.0 11.8309
21816.4 9.55242
21817.8 8.32447
21819.2 7.59029
21820.6 7.10655
21822.0 6.77272
21824.8 6.34399
21827.6 6.08535
21830.4 5.91371
21833.2 5.79160
21838.9 5.62824
21844.5 5.52165
21855.7 5.38331
21867.0 5.28846
21878.2 5.21229
21900.7 5.08198
21945.6 4.83383
21990.5 4.54358
22035.5 4.14712
22058.0 3.87280
22080.4 3.50593
22102.9 2.97562
22114.1 2.60498
22125.4 2.11973
22136.6 1.46282
22142.2 1.05183
22147.8 0.595536
22153.5 0.178113
22156.3 0.0870507
22157.7 0.120926
22159.1 0.248893
22160.5 0.528471
22161.9 1.04649
22163.3 1.96582
22164.7 3.54355
22166.1 6.29788
22167.5 11.1105
22168.9 19.7301
22170.3 35.2323
22172.2 72.1110
22174.0 111.898
22174.9 116.431
22175.9 108.849
22177.7 81.3628
22179.4 60.5124
22181.1 46.5712
22182.8 37.3540
22184.5 31.0583
22187.8 23.2899
22191.2 18.8251
22194.6 15.9834
22198.0 14.0354
22204.7 11.5566
22211.5 10.0516
22214.9 9.50178
22218.3 9.04525
22221.6 8.66961
22225.0 8.39807
22226.7 8.35458
22228.4 8.54411
22229.2 8.94657
22229.7 9.36990
22230.1 10.1381
22230.5 11.7398
22230.7 13.1814
22230.9 15.5392
22231.1 19.7331
22231.4 28.1194
22231.5 36.1667
22231.6 47.8778
22231.7 69.6295
22231.8 104.387
22231.9 166.131
22232.0 204.929
22232.1 169.526
22232.2 108.287
22232.3 79.2261
22232.4 60.0144
22232.5 47.1283
22232.6 38.2815
22232.7 27.4793
22232.9 21.4858
22233.0 17.8501
22233.2 15.4870
22233.5 12.7047
22233.8 11.1864
22234.2 10.2619
22234.8 9.22658
22235.4 8.67605
22236.1 8.33763
22237.4 7.93809
22239.9 7.53023
22242.5 7.28591
22247.6 6.94200
22252.7 6.67481
22257.9 6.44449
22263.0 6.23824
22273.2 5.87057
22314.2 4.56708
22334.7 3.78033
22344.9 3.27534
22355.2 2.63981
22365.4 1.80449
22370.6 1.29159
22375.7 0.727082
22380.8 0.212673
22383.4 0.0937556
22384.6 0.124384
22385.9 0.260647
22387.2 0.561400
22388.5 1.12112
22389.8 2.09527
22391.0 3.74655
22392.3 6.53071
22393.6 11.2543
22394.9 19.3416
22396.2 33.1391
22397.1 49.0033
22398.1 70.0836
22400.0 111.913
22401.0 117.820
22401.9 111.359
22403.8 84.7245
22405.5 65.3810
22407.1 51.7697
22408.7 42.3910
22410.3 35.8194
22413.5 27.4017
22416.7 22.4402
22419.9 19.2159
22423.1 16.9872
22429.6 14.1222
22436.0 12.3683
22442.4 11.1894
22455.3 9.69632
22468.1 8.78019
22481.0 8.15112
22506.7 7.31536
22532.4 6.75214
22558.1 6.31508
22609.5 5.58190
22660.9 4.82336
22686.6 4.35748
22712.3 3.76782
22738.0 2.95721
22750.9 2.41767
22763.7 1.74873
22776.6 0.933849
22783.0 0.500395
22789.4 0.136175
22792.6 0.0426896
22795.9 0.0860705
22797.5 0.193881
22799.1 0.387286
22800.7 0.702105
22802.3 1.18145
22803.9 1.89951
22805.5 2.95374
22807.1 4.49177
22808.7 6.71748
22810.3 9.98825
22811.9 14.7523
22813.5 21.7875
22815.1 31.9668
22816.8 47.6336
22818.6 68.5721
22822.0 110.663
22823.7 117.009
22825.4 111.019
22828.9 85.0234
22832.9 59.7989
22837.0 44.5763
22841.0 35.3027
22845.1 29.3115
22849.1 25.2105
22853.2 22.2639
22861.3 18.3616
22869.4 15.9241
22877.5 14.2715
22893.7 12.1978
22909.9 10.9919
22918.0 10.5975
22926.1 10.3416
22930.1 10.2838
22934.2 10.2994
22938.2 10.4368
22942.3 10.8074
22946.3 11.7102
22948.4 12.6149
22950.4 14.1771
22952.4 17.1740
22953.4 19.7621
22954.4 23.7828
22955.5 30.5346
22956.5 42.6262
22957.5 66.7889
22958.0 88.1749
22958.5 119.103
22959.3 186.568
22960.0 231.394
22960.8 186.972
22961.5 120.772
22962.3 78.1264
22963.0 54.3391
22963.8 40.3188
22964.5 31.8066
22965.2 26.1909
22966.0 22.4088
22967.5 17.7087
22969.0 15.0383
22970.5 13.3758
22973.4 11.4933
22976.4 10.4867
22979.4 9.87693
22982.4 9.46815
22985.3 9.17590
22991.3 8.77727
22997.2 8.51057
23003.2 8.31135
23009.1 8.15138
23021.0 7.89844
23032.9 7.69701
23056.7 7.37404
23080.6 7.11080
23092.5 6.99517
23104.4 6.89232
23116.3 6.81538
23122.2 6.80127
23128.2 6.82956
23131.1 6.87723
23134.1 6.96915
23137.1 7.14508
23140.1 7.49435
23141.6 7.79954
23143.0 8.26873
23144.5 9.02937
23146.0 10.3450
23147.5 12.9091
23148.3 15.1924
23149.0 18.7566
23149.7 24.8945
23150.5 36.1691
23150.9 45.6144
23151.2 59.6208
23151.6 80.9247
23152.0 113.387
23152.5 180.455
23153.0 227.565
23153.5 186.030
23154.0 120.350
23154.5 79.4622
23155.0 55.9237
23155.5 41.7363
23156.0 32.7593
23156.9 22.6503
23157.9 17.4502
23158.9 14.4401
23159.8 12.5424
23161.7 10.3668
23163.7 9.20021
23165.6 8.50170
23167.5 8.04334
23169.4 7.72295
23173.3 7.30714
23177.1 7.05042
23181.0 6.87382
23184.8 6.74250
23192.5 6.55283
23200.2 6.41393
23215.5 6.19950
23246.3 5.84194
23277.0 5.46374
23307.8 4.97346
23323.1 4.64018
23338.5 4.19576
23353.9 3.55212
23361.6 3.10113
23369.2 2.51090
23376.9 1.71496
23380.8 1.22209
23384.6 0.681094
23388.5 0.199528
23390.4 0.103879
23392.3 0.299375
23393.3 0.615119
23394.2 1.18735
23395.2 2.16535
23396.1 3.79766
23397.1 6.50776
23398.1 11.0289
23399.0 18.6222
23400.0 31.3085
23400.7 46.6040
23401.5 66.7203
23403.0 107.217
23403.8 113.227
23404.5 107.356
23406.0 82.1430
23407.8 57.5350
23409.6 42.8107
23411.4 33.8308
23413.2 28.0808
23415.0 24.1317
23416.8 21.3149
23420.4 17.5865
23424.0 15.2523
23427.6 13.6690
23434.7 11.6711
23441.9 10.4615
23449.1 9.65064
23463.4 8.62084
23477.8 7.98249
23492.1 7.53698
23499.3 7.35862
23506.5 7.20409
23513.7 7.09040
23517.2 7.15102
23518.1 7.26573
23519.0 7.60019
23519.5 8.04812
23519.9 9.17853
23520.2 10.5485
23520.4 13.4023
23520.5 16.2061
23520.6 21.1240
23520.7 30.5540
23520.8 39.3630
23520.8 50.3322
23520.9 76.3602
23521.0 94.4927
23521.1 76.9660
23521.2 51.0827
23521.3 36.7352
23521.3 27.9321
23521.5 18.5753
23521.6 14.2038
23521.7 11.8733
23522.0 9.57316
23522.3 8.59043
23522.9 7.74140
23523.5 7.39724
23524.6 7.11587
23525.7 6.99789
23530.3 6.81887
23539.4 6.65097
23557.6 6.39486
23575.7 6.16953
23584.8 6.06321
23589.4 6.01610
23591.7 6.02049
23592.8 6.14033
23593.4 6.62795
23593.6 8.09957
23593.8 11.4346
23593.9 16.5767
23593.9 32.2818
23594.0 59.2984
23594.1 32.9768
23594.1 18.3916
23594.2 12.3580
23594.4 8.50280
23594.6 6.82733
23595.2 6.22092
23596.2 6.02023
23598.4 5.93888
23602.7 5.87239
23611.4 5.76949
23628.7 5.57251
23663.3 5.16104
23697.9 4.68599
23732.5 4.08795
23767.1 3.26390
23784.4 2.71141
23801.7 2.01901
23819.0 1.15635
23827.7 0.678061
23836.3 0.238732
23840.6 0.0887429
23845.0 0.0549850
23847.1 0.113471
23849.3 0.249045
23851.4 0.492840
23853.6 0.889193
23855.8 1.50580
23857.9 2.43171
23860.1 3.80972
23862.3 5.85130
23864.4 8.89399
23866.6 13.3965
23868.7 20.0855
23870.9 29.9371
23873.2 44.9480
23875.5 65.0082
23880.0 105.906
23882.3 112.525
23884.6 107.293
23889.1 82.8973
23892.2 67.6074
23895.3 55.9359
23898.4 47.2367
23901.5 40.7583
23907.7 31.9966
23909.3 30.4015
23910.8 28.9817
23912.4 27.7505
23913.2 27.3573
23913.6 27.7700
23913.7 29.5064
23913.8 33.4647
23913.9 39.0481
23913.9 49.2246
23914.0 72.2224
23914.1 49.4750
23914.1 35.2469
23914.2 30.4098
23914.4 27.6913
23914.7 26.4738
23915.3 25.7208
23916.6 24.8400
23919.1 23.4040
23921.6 22.1764
23924.1 21.1093
23934.1 17.9165
23944.2 15.8146
23954.2 14.3339
23974.2 12.3877
23994.3 11.1643
24014.3 10.3189
24034.4 9.69509
24074.5 8.81975
24114.6 8.21332
24154.7 7.74607
24174.7 7.54339
24194.8 7.35427
24214.8 7.17590
24224.9 7.09583
24229.9 7.08580
24232.4 7.20124
24233.6 7.70425
24234.0 8.20539
24234.3 9.44462
24234.4 10.9846
24234.6 14.1969
24234.7 17.7083
24234.7 24.3662
24234.8 38.7935
24234.9 52.4842
24234.9 73.4513
24235.0 113.670
24235.0 139.855
24235.1 114.153
24235.1 73.4063
24235.2 45.3994
24235.2 32.3982
24235.3 20.0435
24235.4 14.8132
24235.5 12.1766
24235.7 9.66943
24235.9 8.65874
24236.3 7.80669
24236.7 7.47365
24238.4 7.11265
24241.6 6.98698
24248.2 6.90475
24261.2 6.78982
24274.3 6.68520
24287.3 6.59051
24300.4 6.52043
24306.9 6.50955
24313.4 6.53949
24320.0 6.67152
24323.2 6.82971
24326.5 7.13291
24329.8 7.77451
24331.4 8.37712
24333.0 9.38755
24334.6 11.2461
24335.5 12.8184
24336.3 15.1601
24337.1 18.9357
24337.9 25.2750
24338.7 37.0103
24339.5 59.1261
24340.3 91.7051
24341.0 113.488
24341.7 92.4216
24342.5 60.6013
24343.2 39.7582
24344.0 28.0546
24344.7 21.2922
24345.4 17.1917
24346.2 14.4870
24346.9 12.6448
24348.4 10.3892
24349.9 9.09804
24351.3 8.29886
24354.3 7.38549
24357.2 6.89631
24360.2 6.59641
24366.1 6.24572
24372.0 6.03847
24377.9 5.89236
24389.7 5.68268
24401.5 5.54310
24407.4 5.51249
24413.3 5.54249
24416.2 5.60338
24419.2 5.72364
24422.1 5.95264
24425.1 6.40243
24428.0 7.37203
24429.5 8.30536
24431.0 9.88661
24432.4 12.8883
24433.2 15.4767
24433.9 19.4154
24434.7 25.9780
24435.4 37.4896
24436.1 60.3093
24436.5 79.8937
24436.9 107.392
24437.4 170.204
24438.0 211.834
24438.6 171.190
24439.2 109.159
24439.7 70.3174
24440.3 48.3804
24440.8 35.2073
24441.4 27.1638
24441.9 21.7908
24442.5 18.1676
24443.6 13.6547
24444.7 11.0459
24445.8 9.42823
24448.0 7.57334
24450.2 6.57843
24452.4 5.97522
24454.7 5.57031
24456.9 5.27748
24461.3 4.87030
24465.7 4.58477
24474.6 4.15617
24492.2 3.42802
24509.9 2.62621
24527.6 1.64034
24545.3 0.515011
24549.8 0.282187
24554.2 0.143468
24556.4 0.137852
24558.6 0.199776
24560.8 0.358116
24563.0 0.654502
24565.2 1.15252
24567.4 1.93800
24569.7 3.14768
24571.9 4.98630
24574.1 7.76685
24576.3 11.9667
24578.5 18.2975
24580.7 27.7469
24583.0 42.3169
24585.4 62.0590
24590.0 103.404
24592.3 110.788
24594.7 106.356
24599.3 83.1050
24602.3 69.0253
24605.3 58.0041
24611.2 43.2397
24617.2 34.4278
24623.2 28.8201
24629.1 25.0041
24635.1 22.2782
24647.0 18.6732
24659.0 16.4208
24670.9 14.8891
24694.7 12.9474
24718.6 11.7678
24742.4 10.9740
24790.2 9.96574
24837.9 9.34446
24861.7 9.11352
24885.6 8.91950
24909.4 8.75785
24921.4 8.69106
24933.3 8.63951
24945.2 8.62017
24951.2 8.63910
24957.1 8.70464
24960.1 8.77295
24963.1 8.88662
24966.1 9.08380
24969.1 9.45137
24970.6 9.76010
24972.1 10.2243
24973.5 10.9621
24975.0 12.2274
24976.5 14.6458
24977.3 16.7808
24978.0 20.0979
24978.8 25.7918
24979.5 36.2441
24979.9 45.3044
24980.3 58.5038
24980.6 78.6981
24981.0 109.667
24981.5 172.148
24982.0 213.582
24982.5 172.979
24983.0 112.335
24983.5 74.8330
24984.0 52.8736
24984.4 39.7582
24984.9 31.6678
24985.8 22.4843
24986.7 17.7977
24987.7 15.0841
24988.6 13.4089
24990.5 11.5090
24992.3 10.5063
24994.2 9.91596
24996.1 9.53348
24997.9 9.27247
25001.7 8.94251
25005.4 8.74622
25009.1 8.61674
25012.9 8.52452
25020.3 8.39960
25027.8 8.31561
25042.7 8.20059
25057.6 8.11687
25072.5 8.04758
25102.4 7.93055
25132.2 7.82895
25162.1 7.73592
25191.9 7.64934
25206.8 7.62607
25210.5 7.64320
25214.3 7.72316
25216.1 7.85338
25218.0 8.23825
25218.9 8.76534
25219.4 9.28027
25219.9 10.1545
25220.3 11.8956
25220.6 13.4185
25220.8 15.8504
25221.0 20.2963
25221.3 28.6077
25221.4 36.2590
25221.5 47.0994
25221.6 66.1473
25221.7 95.1082
25221.9 148.428
25222.0 185.681
25222.1 150.869
25222.3 98.1476
25222.4 67.0106
25222.5 47.2575
25222.7 35.5039
25222.8 28.6146
25223.0 20.4373
25223.3 16.2320
25223.5 13.7304
25223.8 12.2334
25224.3 10.5268
25224.8 9.61256
25225.3 9.08320
25226.3 8.50832
25228.3 8.04346
25230.3 7.86036
25234.4 7.70894
25238.4 7.64305
25246.5 7.57748
25254.5 7.53876
25270.6 7.48303
25286.7 7.43675
25351.2 7.27205
25415.6 7.10970
25480.1 6.93338
25544.5 6.72522
25576.7 6.60110
25608.9 6.45800
25673.4 6.13567
25681.5 6.11324
25689.5 6.11421
25697.6 6.16345
25705.6 6.31935
25709.6 6.47951
25713.7 6.74508
25717.7 7.20056
25721.7 8.02874
25725.8 9.70521
25727.8 11.2395
25729.8 13.7303
25731.8 18.1715
25733.8 26.9847
25734.8 34.9929
25735.8 47.6775
25736.8 69.2149
25737.8 105.761
25738.9 166.774
25740.0 207.115
25741.1 166.516
25742.2 106.157
25743.4 62.7977
25744.7 40.5879
25746.0 28.6078
25747.2 21.6493
25748.5 17.2382
25749.7 14.3021
25752.2 10.7714
25754.8 8.78165
25757.3 7.54121
25762.3 6.07536
25767.3 5.20403
25772.4 4.57073
25782.4 3.52412
25792.5 2.42880
25797.5 1.79551
25802.5 1.10231
25807.6 0.440073
25810.1 0.231061
25812.6 0.283705
25813.8 0.508024
25815.1 0.965359
25816.4 1.78885
25817.6 3.18143
25818.9 5.52275
25820.1 9.36680
25821.4 15.7622
25822.6 26.1149
25823.7 39.9924
25824.8 58.7526
25827.0 98.1096
25828.1 105.318
25829.2 101.246
25831.4 79.3966
25833.6 59.7107
25835.8 46.6444
25838.0 38.0482
25840.2 32.2395
25844.6 25.0737
25849.0 20.9570
25853.4 18.3197
25857.8 16.5087
25866.6 14.1932
25875.4 12.7883
25884.2 11.8519
25901.9 10.7038
25919.5 10.0931
25928.3 9.95019
25937.1 9.96262
25941.5 10.0677
25945.9 10.2899
25950.3 10.7191
25954.7 11.5494
25959.1 13.2875
25961.3 14.8891
25963.5 17.5070
25965.8 22.1537
25968.0 31.2369
25969.1 39.2634
25970.2 51.7833
25971.3 72.0751
25972.4 105.346
25973.7 166.587
25975.0 209.609
25976.3 172.355
25977.7 113.154
25979.1 72.6293
25980.5 50.3138
25981.9 37.6004
25983.2 29.9151
25984.6 24.9053
25986.0 21.5174
25988.8 17.3198
25991.6 14.9165
25994.4 13.4157
26000.0 11.6913
26000.0 7.89531
30000.0 7.95077
35000.0 8.02094
40000.0 8.08967
50000.0 8.21884
60000.0 8.33506
72000.0 8.45778
80000.0 8.53028
99999.9 8.38780
100000 8.38298
120000 8.41068
140000 8.43430
160000 8.45390
200000 8.48060
225000 8.48900
250000 8.49090
275000 8.48641
300000 8.47562
325000 8.45791
350000 8.43300
400000 8.36175
450000 8.26164
500000 8.13280
541010 8.01709
550000 7.99168
600000 7.85507
650000 7.72293
700000 7.59511
702120 7.58989
750000 7.47157
800000 7.35263
850000 7.23794
900000 7.12761
950000 7.02391
1.00000E+06 6.92034
1.07450E+06 6.77519
1.07454E+06 6.77502
1.10000E+06 6.72548
1.14760E+06 6.63649
1.20000E+06 6.53849
1.30000E+06 6.35911
1.40000E+06 6.18726
1.47870E+06 6.05821
1.50000E+06 6.02330
1.51980E+06 5.99230
1.60000E+06 5.86686
1.62360E+06 5.83179
1.62363E+06 5.83172
1.70000E+06 5.71812
1.80000E+06 5.57711
1.90000E+06 5.44761
2.00000E+06 5.31798
2.25000E+06 5.03719
2.50000E+06 4.80433
2.75000E+06 4.60984
3.00000E+06 4.44372
3.20120E+06 4.33309
3.25000E+06 4.30630
3.50000E+06 4.19736
3.75000E+06 4.11702
4.00000E+06 4.06522
4.25000E+06 4.03506
4.50000E+06 4.01934
4.75000E+06 4.01836
5.00000E+06 4.03192
5.25000E+06 4.05997
5.50000E+06 4.08371
5.52970E+06 4.08655
5.75000E+06 4.11118
6.00000E+06 4.14188
6.25000E+06 4.17370
6.50000E+06 4.20562
6.75000E+06 4.23704
7.00000E+06 4.26693
7.25000E+06 4.29495
7.50000E+06 4.32072
7.75000E+06 4.34409
8.00000E+06 4.36490
8.37420E+06 4.39097
8.37420E+06 4.39097
8.65000E+06 4.40634
9.01290E+06 4.42162
9.30000E+06 4.42979
9.63340E+06 4.43515
1.00000E+07 4.43614
1.02500E+07 4.43403
1.05000E+07 4.42975
1.07500E+07 4.42336
1.10000E+07 4.41509
1.12600E+07 4.40448
1.16000E+07 4.38787
1.18820E+07 4.37183
1.20000E+07 4.36465
1.22500E+07 4.34824
1.25000E+07 4.33043
1.27500E+07 4.31160
1.30000E+07 4.29150
1.32500E+07 4.27033
1.35000E+07 4.24864
1.37500E+07 4.22589
1.40000E+07 4.20256
1.43600E+07 4.16801
1.43606E+07 4.16796
1.46500E+07 4.13946
1.50000E+07 4.10455
1.53000E+07 4.07441
1.56500E+07 4.03893
1.60000E+07 4.00332
1.63000E+07 3.97276
1.66500E+07 3.93733
1.70000E+07 3.90221
1.73000E+07 3.87203
1.76500E+07 3.83744
1.80000E+07 3.80315
1.85000E+07 3.75506
1.90000E+07 3.70806
1.95000E+07 3.66244
2.00000E+07 3.61825