Mo-96(n,tot) ENDF/B-VII.1
Energy(eV) XS(b)
1.00000E-05 34.6630
1.25000E-05 31.5026
1.50000E-05 29.1697
2.00000E-05 25.8950
2.75000E-05 22.7791
3.50000E-05 20.7285
4.25000E-05 19.2481
5.00000E-05 18.1148
6.25000E-05 16.7015
7.50000E-05 15.6581
0.000100000 14.1937
0.000125000 13.1942
0.000150000 12.4565
0.000200000 11.4210
0.000275000 10.4356
0.000350000 9.78718
0.000425000 9.31905
0.000500000 8.96067
0.000625000 8.51372
0.000750000 8.18380
0.00100000 7.72069
0.00125000 7.40465
0.00150000 7.17136
0.00200000 6.84390
0.00275000 6.53232
0.00350000 6.32726
0.00425000 6.17923
0.00500000 6.06590
0.00625000 5.92457
0.00750000 5.82024
0.0100000 5.67379
0.0125000 5.57385
0.0150000 5.50008
0.0200000 5.39652
0.0253000 5.32228
0.0314750 5.26071
0.0376500 5.21498
0.0500000 5.15042
0.0625000 5.10569
0.0750000 5.07266
0.100000 5.02625
0.125000 4.99455
0.150000 4.97112
0.200000 4.93816
0.275000 4.90665
0.350000 4.88579
0.500000 4.85891
0.750000 4.83306
1.00000 4.81709
1.50000 4.79699
2.00000 4.78384
2.75000 4.76970
3.50000 4.75884
5.00000 4.74160
7.50000 4.71827
10.0000 4.69739
15.0000 4.65726
20.0000 4.61635
27.5000 4.55038
35.0000 4.47644
50.0000 4.29406
62.5000 4.08986
75.0000 3.80872
87.5000 3.39763
93.7500 3.11315
100.000 2.74882
106.666 2.24252
109.999 1.95332
110.832 1.89329
111.666 1.87310
112.082 1.91735
112.499 2.10815
112.707 2.38851
112.811 2.66020
112.915 3.12792
113.020 4.02507
113.072 4.81205
113.124 6.05095
113.176 8.15866
113.228 12.1080
113.254 15.4686
113.280 20.5056
113.306 28.3090
113.332 40.4437
113.366 63.6480
113.400 79.0750
113.434 63.6593
113.468 40.4528
113.503 25.3007
113.537 16.9138
113.572 12.1097
113.607 9.18620
113.676 6.02018
113.745 4.46019
113.814 3.58207
113.884 3.04145
114.022 2.43514
114.161 2.11813
114.299 1.92892
114.576 1.71702
115.130 1.52282
115.684 1.41949
117.900 1.20675
119.008 1.17445
120.116 1.21770
120.670 1.28208
120.947 1.32870
121.224 1.38685
121.501 1.45824
121.778 1.54490
122.055 1.64919
122.332 1.77388
122.609 1.92226
122.886 2.09823
123.163 2.30643
123.440 2.55240
123.994 3.18584
124.548 4.07106
125.102 5.31724
125.656 7.09363
126.210 9.67229
126.764 13.5097
127.318 19.4132
127.872 28.9096
128.426 45.1446
128.980 75.3955
129.257 100.929
129.534 139.512
129.811 201.165
130.088 307.354
130.365 510.627
130.504 688.196
130.642 966.362
130.781 1432.40
130.919 2283.60
130.988 2986.17
131.058 4011.08
131.127 5543.36
131.196 7825.14
131.298 12708.5
131.400 16124.9
131.502 13118.5
131.604 8344.39
131.671 6110.50
131.738 4564.52
131.871 2752.48
132.005 1819.28
132.138 1289.54
132.272 963.225
132.406 748.839
132.673 494.021
132.940 353.874
133.207 268.425
133.474 212.321
133.741 173.398
134.276 124.043
134.810 94.8855
135.345 76.0757
135.879 63.1522
136.948 46.8610
138.016 37.2307
139.085 30.9827
140.154 26.6530
142.291 21.1177
144.428 17.7775
146.566 15.5668
148.703 14.0061
152.978 11.9628
157.253 10.6936
161.527 9.83281
165.802 9.21248
174.352 8.38034
182.901 7.84903
191.451 7.48087
200.000 7.21081
213.746 6.90080
227.491 6.68357
241.237 6.52266
254.982 6.39848
282.473 6.21880
309.965 6.09434
337.456 6.00240
364.947 5.93131
378.692 5.90152
385.565 5.88792
392.438 5.87526
399.311 5.86395
402.747 5.85920
406.184 5.85574
409.620 5.85534
411.338 5.85793
413.056 5.86511
413.915 5.87219
414.775 5.88381
415.634 5.90388
416.493 5.94163
416.922 5.97388
417.352 6.02344
417.781 6.10494
418.211 6.25243
418.426 6.37550
418.641 6.56142
418.855 6.86130
419.070 7.39067
419.177 7.82245
419.285 8.46065
419.392 9.46038
419.500 11.1520
419.607 14.3560
419.661 17.1473
419.714 21.5333
419.768 28.9529
419.822 42.7896
419.849 54.5145
419.875 72.0269
419.902 99.0426
419.929 140.868
419.965 221.882
420.000 275.889
420.036 221.901
420.071 140.893
420.110 85.1784
420.149 55.7697
420.188 39.4926
420.227 29.8681
420.266 23.7616
420.305 19.6928
420.383 14.7923
420.461 12.0785
420.539 10.4298
420.696 8.61409
420.852 7.69186
421.008 7.16087
421.164 6.82761
421.320 6.60487
421.632 6.33485
421.944 6.18367
422.257 6.09047
422.569 6.02893
423.193 5.95506
423.818 5.91391
424.442 5.88846
425.067 5.87148
426.316 5.85059
427.564 5.83830
428.813 5.83011
430.062 5.82413
432.560 5.81556
435.058 5.80926
440.053 5.79945
445.049 5.79126
450.044 5.78380
460.036 5.77008
480.018 5.74532
500.000 5.72296
558.616 5.66687
617.233 5.62039
734.465 5.54382
851.698 5.47846
910.314 5.44775
939.623 5.43281
954.277 5.42615
957.940 5.42519
961.604 5.42594
963.435 5.42865
965.267 5.43800
966.183 5.45169
966.641 5.46546
967.099 5.49053
967.557 5.54331
967.786 5.59475
968.015 5.68591
968.244 5.87126
968.358 6.04553
968.473 6.34241
968.587 6.91067
968.645 7.41180
968.702 8.20708
968.759 9.57793
968.816 12.1977
968.845 14.4726
968.873 17.9749
968.902 23.5707
968.931 32.5977
968.965 48.9179
969.000 59.8037
969.035 48.9213
969.069 32.6020
969.100 23.1612
969.130 17.4883
969.160 14.0161
969.190 11.7984
969.251 9.28667
969.311 7.99445
969.372 7.25059
969.432 6.78572
969.553 6.26119
969.674 5.98830
969.794 5.82898
970.036 5.65993
970.278 5.57683
970.519 5.52997
971.003 5.48170
971.969 5.44564
972.936 5.43234
974.869 5.42202
976.802 5.41772
980.668 5.41334
984.535 5.41051
1000.00 5.40173
1033.62 5.38419
1067.23 5.36671
1134.47 5.33124
1201.70 5.29461
1235.32 5.27579
1252.12 5.26658
1260.53 5.26339
1262.63 5.26390
1264.73 5.26756
1265.78 5.27368
1266.83 5.29182
1267.36 5.31699
1267.88 5.38578
1268.14 5.47648
1268.28 5.56225
1268.41 5.70989
1268.54 5.99947
1268.60 6.25986
1268.67 6.67461
1268.74 7.41850
1268.80 8.87812
1268.83 10.2210
1268.87 12.3905
1268.90 16.0844
1268.93 22.2605
1268.97 32.5927
1269.00 39.2083
1269.04 32.2800
1269.07 22.2624
1269.10 16.6908
1269.13 13.2072
1269.15 11.0115
1269.18 9.57776
1269.24 7.91802
1269.29 7.04629
1269.35 6.53784
1269.41 6.21721
1269.52 5.85464
1269.63 5.66242
1269.74 5.54961
1269.96 5.42980
1270.41 5.33687
1270.86 5.30217
1271.75 5.27607
1272.65 5.26631
1274.43 5.25854
1276.22 5.25510
1283.37 5.24854
1297.68 5.23942
1326.28 5.22188
1383.50 5.18556
1412.11 5.16658
1440.71 5.14702
1469.32 5.12723
1476.47 5.12262
1483.62 5.11909
1487.20 5.11887
1490.78 5.12310
1492.56 5.13133
1494.35 5.15694
1495.25 5.19329
1495.69 5.22952
1496.14 5.29517
1496.59 5.43279
1496.81 5.56684
1497.03 5.80277
1497.15 5.99615
1497.26 6.28249
1497.37 6.73216
1497.48 7.48754
1497.59 8.93276
1497.65 10.1970
1497.70 12.1466
1497.76 15.5054
1497.82 21.8074
1497.84 27.1669
1497.87 35.2451
1497.90 47.7933
1497.93 66.4922
1497.96 103.829
1498.00 127.813
1498.04 102.762
1498.07 66.5027
1498.10 45.6464
1498.14 32.8987
1498.17 25.0147
1498.20 20.0733
1498.26 14.2141
1498.32 11.2208
1498.38 9.45745
1498.44 8.36892
1498.56 7.13055
1498.69 6.47762
1498.81 6.09792
1498.93 5.85456
1499.05 5.69176
1499.30 5.49168
1499.54 5.37864
1500.03 5.26216
1500.53 5.20627
1501.02 5.17522
1502.00 5.14344
1503.96 5.11933
1505.92 5.10979
1509.84 5.10098
1513.76 5.09591
1529.44 5.08168
1560.81 5.05583
1623.56 5.00103
1749.04 4.87073
1874.52 4.69711
1937.26 4.58374
2000.00 4.44202
2041.96 4.32425
2052.46 4.29107
2062.95 4.25635
2073.44 4.22149
2076.06 4.21423
2078.68 4.21116
2080.00 4.21547
2081.31 4.23636
2081.96 4.26914
2082.62 4.36307
2082.95 4.48982
2083.11 4.61180
2083.27 4.82478
2083.44 5.24660
2083.52 5.63202
2083.60 6.26897
2083.68 7.42953
2083.72 8.40088
2083.77 9.86556
2083.81 12.2030
2083.85 16.2001
2083.89 23.5823
2083.93 37.4044
2083.96 57.4516
2084.00 70.8633
2084.04 57.4513
2084.07 37.4039
2084.11 24.8618
2084.14 17.8936
2084.18 13.7742
2084.21 11.2083
2084.24 9.48491
2084.28 8.34214
2084.35 6.92670
2084.42 6.11256
2084.48 5.61664
2084.62 5.06044
2084.76 4.77113
2084.89 4.60304
2085.17 4.42581
2085.71 4.28891
2086.26 4.23719
2087.35 4.19621
2088.45 4.17873
2090.63 4.16043
2092.82 4.14820
2101.57 4.10834
2110.32 4.06914
2119.06 4.02813
2154.05 3.83770
2189.05 3.58734
2224.04 3.23920
2241.53 3.00714
2259.03 2.71650
2276.52 2.34214
2294.02 1.84565
2302.77 1.53559
2311.51 1.17689
2320.26 0.774796
2329.01 0.378189
2331.20 0.298319
2333.38 0.237782
2335.57 0.207581
2336.66 0.208767
2337.76 0.224379
2338.85 0.257966
2339.94 0.313878
2341.04 0.397793
2342.13 0.516644
2343.23 0.679742
2344.32 0.898538
2345.41 1.18880
2346.51 1.57027
2348.69 2.72609
2350.88 4.72564
2353.07 8.28171
2354.16 11.0688
2355.25 14.9376
2356.35 20.4369
2357.44 28.4543
2358.53 40.5670
2359.63 59.6198
2360.72 91.2698
2361.81 147.246
2362.91 253.720
2363.45 341.883
2364.00 466.041
2365.00 800.393
2366.00 1070.86
2367.00 913.703
2368.00 607.787
2368.94 407.743
2369.87 286.397
2370.81 211.771
2371.75 163.676
2373.62 108.162
2375.50 78.6389
2377.37 60.9877
2379.24 49.5253
2382.99 35.8752
2386.74 28.2246
2390.49 23.4270
2394.23 20.1750
2397.98 17.8429
2405.47 14.7468
2412.97 12.8012
2420.46 11.4730
2427.96 10.5116
2442.95 9.21552
2457.94 8.38328
2465.43 8.07006
2472.93 7.80651
2476.67 7.69249
2480.42 7.59636
2482.30 7.56426
2483.23 7.55908
2484.17 7.57111
2485.11 7.62536
2485.57 7.69113
2486.04 7.81908
2486.51 8.09939
2486.75 8.37528
2486.98 8.86472
2487.10 9.26378
2487.21 9.85239
2487.33 10.7707
2487.45 12.3156
2487.56 15.2058
2487.62 17.7179
2487.68 21.5463
2487.74 28.0138
2487.80 39.5266
2487.83 49.3263
2487.86 63.1739
2487.89 83.7405
2487.92 114.241
2487.96 179.168
2488.00 221.110
2488.04 177.539
2488.09 114.215
2488.12 77.1940
2488.16 55.3229
2488.19 41.7729
2488.23 33.0348
2488.30 23.0405
2488.37 17.8493
2488.45 14.8096
2488.52 12.9329
2488.66 10.8033
2488.81 9.68346
2488.95 9.03127
2489.10 8.61314
2489.24 8.33227
2489.53 7.98512
2489.82 7.78633
2490.40 7.57534
2490.98 7.46755
2491.55 7.40186
2492.71 7.32237
2495.02 7.23164
2497.33 7.16744
2501.95 7.06163
2506.57 6.96850
2515.82 6.80318
2525.06 6.65801
2543.55 6.41193
2562.04 6.20911
2599.02 5.88803
2635.99 5.63694
2672.97 5.42665
2709.95 5.24060
2728.44 5.15338
2746.92 5.06929
2756.17 5.02898
2765.41 4.99226
2770.03 4.97857
2774.66 4.97812
2776.97 4.99599
2778.12 5.01899
2779.28 5.06514
2780.43 5.16911
2781.01 5.27428
2781.59 5.46541
2781.88 5.62547
2782.17 5.86743
2782.46 6.25765
2782.74 6.94608
2782.89 7.50879
2783.03 8.33318
2783.18 9.63033
2783.32 11.8037
2783.47 15.9217
2783.54 19.4623
2783.61 24.9777
2783.68 34.1919
2783.76 51.0503
2783.79 65.0264
2783.83 85.5846
2783.86 116.567
2783.90 163.247
2783.95 258.540
2784.00 320.126
2784.05 256.581
2784.10 161.732
2784.13 120.914
2784.16 92.9744
2784.22 58.5975
2784.29 40.3832
2784.35 29.8797
2784.41 23.3592
2784.47 19.0632
2784.59 13.9923
2784.71 11.1962
2784.83 9.51116
2785.08 7.67800
2785.32 6.74908
2785.56 6.21852
2785.81 5.88483
2786.05 5.66295
2786.54 5.39330
2787.02 5.24185
2788.00 5.08547
2788.97 5.00916
2789.95 4.96515
2791.89 4.91648
2795.79 4.87000
2799.69 4.84216
2807.48 4.79950
2815.27 4.76147
2846.44 4.61463
2908.77 4.30234
2971.10 3.93418
3033.44 3.46460
3064.60 3.16855
3095.77 2.81108
3126.94 2.36734
3158.10 1.80089
3173.69 1.45753
3189.27 1.06908
3204.85 0.644623
3220.44 0.240552
3224.33 0.162614
3228.23 0.106069
3230.18 0.0891629
3232.13 0.0822246
3234.07 0.0875592
3236.02 0.108011
3237.97 0.147108
3239.92 0.209251
3241.87 0.299965
3243.81 0.426234
3245.76 0.596960
3247.71 0.823580
3251.60 1.50824
3255.50 2.66575
3259.40 4.63268
3263.29 8.06151
3267.19 14.3215
3269.14 19.3801
3271.08 26.6200
3273.03 37.2885
3274.98 53.5762
3276.93 79.5270
3278.88 122.971
3280.82 199.467
3282.77 337.538
3284.33 512.999
3285.11 618.966
3285.30 647.469
3285.50 679.451
3285.60 699.397
3285.69 726.250
3285.74 745.563
3285.79 771.798
3285.84 811.621
3285.89 871.983
3285.94 976.044
3286.00 1047.31
3286.06 987.763
3286.11 895.366
3286.17 838.667
3286.23 809.070
3286.28 793.393
3286.34 785.536
3286.45 780.363
3286.56 781.163
3286.78 787.322
3287.00 792.930
3287.53 792.922
3288.06 771.158
3289.12 679.136
3291.23 455.252
3293.51 290.839
3295.79 197.744
3298.07 143.455
3300.35 109.720
3302.63 87.4556
3304.91 71.9967
3309.46 52.4225
3314.02 40.8601
3318.58 33.3840
3327.70 24.4722
3336.81 19.4369
3345.93 16.2342
3355.04 14.0223
3364.16 12.3984
3382.39 10.1461
3400.63 8.60924
3418.86 7.43340
3437.09 6.44259
3473.56 4.62420
3491.79 3.65208
3510.02 2.54795
3528.25 1.27616
3537.37 0.630654
3541.93 0.353079
3544.21 0.241707
3546.49 0.159689
3548.77 0.119436
3549.91 0.120196
3551.04 0.138450
3552.18 0.177586
3553.32 0.241565
3554.46 0.335364
3555.60 0.464706
3556.74 0.636994
3557.88 0.860698
3560.16 1.50883
3562.44 2.53099
3564.72 4.11999
3567.00 6.59117
3569.28 10.4812
3571.56 16.7475
3573.83 27.1981
3576.11 45.4815
3578.39 79.5297
3579.53 107.514
3580.67 147.759
3581.81 206.479
3582.95 291.742
3584.98 523.349
3587.00 728.582
3589.03 645.419
3591.05 444.539
3592.40 340.566
3593.75 266.003
3596.45 175.012
3599.15 125.765
3601.85 96.5239
3604.55 77.7360
3607.25 64.9031
3612.65 48.8314
3618.05 39.3766
3623.45 33.2485
3634.25 25.8824
3645.05 21.6654
3655.85 18.9541
3666.66 17.0695
3677.46 15.6852
3699.06 13.7870
3720.66 12.5478
3731.46 12.0808
3736.86 11.8784
3742.26 11.6984
3747.66 11.5500
3750.36 11.4970
3753.06 11.4744
3754.41 11.4849
3755.76 11.5229
3757.11 11.6115
3758.46 11.8043
3759.14 11.9789
3759.81 12.2541
3760.49 12.7134
3761.16 13.5502
3761.50 14.2496
3761.84 15.2996
3762.17 16.9883
3762.51 19.9322
3762.85 25.7986
3763.02 31.1833
3763.19 40.0595
3763.35 56.4267
3763.44 70.3339
3763.52 91.2258
3763.61 125.369
3763.69 184.039
3763.78 294.739
3763.82 386.434
3763.86 515.872
3763.93 818.597
3764.00 1020.16
3764.07 817.854
3764.14 514.963
3764.21 323.009
3764.28 214.686
3764.35 151.874
3764.42 113.768
3764.48 88.6146
3764.55 71.7210
3764.69 50.7892
3764.83 38.9860
3764.96 31.7121
3765.24 23.6118
3765.51 19.4397
3765.79 17.0305
3766.06 15.5097
3766.33 14.4882
3766.88 13.2407
3767.43 12.5369
3767.98 12.0976
3768.53 11.8041
3769.63 11.4426
3770.72 11.2316
3771.82 11.0930
3772.92 10.9935
3775.11 10.8551
3777.30 10.7570
3781.69 10.6115
3786.08 10.4953
3790.47 10.3930
3799.24 10.2114
3808.02 10.0492
3816.80 9.90119
3834.35 9.63813
3869.45 9.20932
3904.55 8.87181
3974.76 8.36959
4044.96 8.00946
4115.17 7.73532
4185.38 7.51769
4220.48 7.42482
4238.03 7.38204
4255.58 7.34201
4273.13 7.30589
4281.91 7.29045
4290.68 7.27865
4299.46 7.27527
4303.85 7.28109
4308.24 7.29903
4312.62 7.34690
4314.82 7.39831
4317.01 7.49449
4318.11 7.57619
4319.21 7.70107
4320.30 7.90506
4321.40 8.27125
4321.95 8.57490
4322.50 9.02989
4323.05 9.75947
4323.59 11.0328
4324.14 13.5733
4324.42 15.9081
4324.69 19.8007
4324.96 26.9952
4325.10 33.1109
4325.24 42.4830
4325.38 57.7870
4325.51 84.8632
4325.65 137.537
4325.72 182.865
4325.79 247.427
4325.89 391.265
4326.00 486.842
4326.11 390.427
4326.21 246.396
4326.31 164.156
4326.40 114.681
4326.49 83.8526
4326.58 64.2844
4326.76 41.8711
4326.95 30.2951
4327.13 23.6172
4327.31 19.4391
4327.68 14.7308
4328.04 12.2742
4328.41 10.8431
4328.77 9.93369
4329.14 9.32363
4329.87 8.57800
4330.60 8.15913
4331.33 7.90038
4332.06 7.72940
4333.53 7.52430
4334.99 7.41041
4336.45 7.34024
4337.91 7.29361
4340.84 7.23648
4343.76 7.20304
4349.61 7.16457
4355.46 7.14120
4361.31 7.12385
4373.01 7.09685
4384.71 7.07570
4396.41 7.06362
4402.26 7.06885
4405.18 7.08040
4408.11 7.10704
4411.03 7.17227
4412.50 7.24119
4413.96 7.37014
4414.69 7.48026
4415.42 7.64894
4416.15 7.92531
4416.88 8.42211
4417.25 8.83379
4417.61 9.44811
4417.98 10.4279
4418.34 12.1167
4418.71 15.4166
4418.89 18.3797
4419.08 23.1487
4419.26 31.6135
4419.44 48.5042
4419.53 63.9313
4419.62 88.4820
4419.72 129.953
4419.81 201.537
4419.90 318.933
4420.00 397.729
4420.10 320.160
4420.19 203.081
4420.27 143.358
4420.34 104.454
4420.41 79.0483
4420.48 62.1845
4420.63 41.7653
4420.77 30.7989
4420.91 24.2279
4421.06 20.0553
4421.34 15.2311
4421.63 12.6553
4421.91 11.1316
4422.20 10.1504
4422.49 9.48582
4423.06 8.66392
4423.63 8.19455
4424.21 7.90098
4424.78 7.70484
4425.93 7.46627
4427.07 7.33162
4429.36 7.19112
4431.66 7.12142
4433.95 7.08064
4438.53 7.03476
4443.12 7.00852
4447.70 6.99034
4456.87 6.96412
4475.21 6.92567
4493.55 6.89316
4530.23 6.83416
4548.57 6.80774
4557.74 6.80340
4560.03 6.81078
4562.32 6.83949
4563.47 6.88345
4564.61 7.01143
4565.19 7.18776
4565.47 7.36091
4565.76 7.66763
4566.05 8.29356
4566.19 8.87896
4566.33 9.87267
4566.48 11.7753
4566.55 13.4417
4566.62 16.0265
4566.69 20.4685
4566.76 28.6440
4566.80 35.6550
4566.83 46.2069
4566.87 62.5740
4566.91 87.8028
4566.95 136.799
4567.00 169.380
4567.05 137.301
4567.09 88.3470
4567.14 56.8651
4567.19 39.4658
4567.24 29.4016
4567.28 23.2319
4567.33 19.2316
4567.38 16.5103
4567.47 13.1726
4567.57 11.2765
4567.66 10.1228
4567.85 8.83546
4568.04 8.16954
4568.23 7.78459
4568.60 7.37595
4568.98 7.17508
4569.36 7.06135
4570.11 6.94341
4571.62 6.85324
4573.12 6.81855
4576.14 6.78966
4579.15 6.77611
4591.21 6.74883
4615.32 6.71124
4663.55 6.64248
4760.01 6.50822
4856.47 6.36826
4904.70 6.29221
4928.81 6.25189
4940.87 6.23196
4946.90 6.22618
4949.91 6.24111
4950.67 6.26065
4951.42 6.31721
4951.80 6.39430
4952.17 6.60049
4952.36 6.86455
4952.55 7.51203
4952.64 8.26007
4952.74 9.86669
4952.78 11.4483
4952.83 14.2324
4952.88 19.6043
4952.90 24.2660
4952.93 30.7448
4952.96 45.6550
4953.00 55.3386
4953.04 45.7265
4953.07 30.8020
4953.10 24.5880
4953.12 20.0097
4953.17 14.5433
4953.21 11.6822
4953.26 10.0466
4953.35 8.37531
4953.44 7.59860
4953.63 6.91305
4953.81 6.63369
4954.18 6.41101
4954.54 6.32606
4955.27 6.26085
4956.01 6.23603
4958.94 6.20690
4964.81 6.18957
4976.54 6.16542
5000.00 6.11777
5047.87 6.00903
5095.74 5.87640
5143.61 5.70520
5191.48 5.46723
5239.35 5.10008
5263.29 4.82412
5287.22 4.43268
5299.19 4.16741
5311.16 3.83061
5323.12 3.38936
5335.09 2.78959
5341.07 2.40433
5347.06 1.94384
5353.04 1.39613
5359.03 0.772504
5362.02 0.461603
5365.01 0.207212
5366.51 0.133831
5368.00 0.130050
5369.50 0.241385
5370.25 0.362300
5370.99 0.544147
5371.74 0.805381
5372.49 1.17077
5373.24 1.67396
5373.99 2.36131
5374.73 3.29766
5375.48 4.57534
5376.23 6.32834
5376.98 8.75552
5377.73 12.1593
5378.47 17.0124
5379.22 24.0765
5379.97 34.6195
5380.72 50.8203
5381.47 76.5169
5382.21 118.453
5382.96 187.307
5383.98 340.445
5385.00 479.621
5386.02 428.860
5387.04 297.732
5387.85 218.695
5388.66 165.438
5389.46 129.661
5390.27 105.035
5391.89 74.5522
5393.50 57.1773
5395.11 46.2743
5396.73 38.9380
5399.96 29.8589
5403.19 24.5736
5406.42 21.1923
5408.03 19.9655
5408.84 19.4603
5409.64 19.0484
5410.45 18.7969
5410.86 18.7947
5411.26 18.9753
5411.66 19.5778
5411.87 20.2403
5412.07 21.4358
5412.27 23.8188
5412.37 25.9499
5412.47 29.3553
5412.57 35.2181
5412.67 46.3877
5412.72 56.1345
5412.77 70.7210
5412.82 93.6522
5412.87 130.399
5412.94 198.846
5413.00 244.110
5413.06 199.066
5413.13 130.633
5413.18 93.8221
5413.23 70.8119
5413.28 56.1465
5413.33 46.4806
5413.43 35.0942
5413.53 29.1166
5413.63 25.5607
5413.73 23.3183
5413.93 20.7158
5414.13 19.2993
5414.33 18.4321
5414.73 17.4338
5415.13 16.8612
5415.54 16.4741
5416.34 15.9393
5417.14 15.5475
5417.94 15.2230
5419.55 14.6793
5421.16 14.2192
5422.76 13.8147
5425.97 13.1264
5432.40 12.0773
5438.82 11.3106
5451.67 10.2635
5464.52 9.58184
5477.37 9.10265
5490.21 8.74733
5515.91 8.25560
5541.60 7.93344
5554.45 7.81340
5567.30 7.71665
5573.72 7.67790
5580.15 7.64762
5586.57 7.62993
5592.99 7.63486
5596.21 7.65321
5599.42 7.69133
5602.63 7.76524
5605.84 7.91231
5607.45 8.04033
5609.05 8.23793
5610.66 8.56252
5612.27 9.14653
5613.07 9.63028
5613.87 10.3559
5614.67 11.5160
5615.48 13.5412
5616.28 17.5666
5616.68 21.2729
5617.08 27.4330
5617.49 38.8456
5617.69 48.5549
5617.89 63.3565
5618.09 87.6517
5618.29 130.427
5618.49 214.129
5618.59 285.239
5618.69 387.957
5618.84 614.629
5619.00 764.482
5619.16 610.494
5619.31 383.549
5619.49 224.684
5619.67 142.646
5619.84 97.7156
5620.02 71.4889
5620.20 54.9138
5620.37 43.9648
5620.72 30.8461
5621.08 23.6139
5621.43 19.2481
5622.13 14.4620
5622.84 12.0442
5623.55 10.6620
5624.25 9.79851
5624.96 9.22363
5626.37 8.52965
5627.78 8.14296
5629.19 7.90483
5630.60 7.74746
5633.42 7.55698
5636.24 7.44831
5639.06 7.37846
5641.88 7.32937
5647.52 7.26276
5653.16 7.21680
5664.45 7.14990
5675.73 7.09664
5687.01 7.04889
5709.58 6.95829
5732.15 6.86135
5743.43 6.80359
5754.71 6.73150
5766.00 6.62947
5771.64 6.55579
5777.28 6.45212
5780.10 6.38124
5782.92 6.28957
5785.74 6.16531
5788.56 5.98583
5789.97 5.86174
5791.38 5.70119
5792.80 5.48476
5794.21 5.17764
5794.91 4.97005
5795.62 4.70866
5796.32 4.37053
5797.03 3.92139
5797.38 3.64076
5797.73 3.31750
5798.08 2.95411
5798.44 2.59176
5798.79 2.41005
5798.97 2.58724
5799.14 3.28452
5799.32 5.31708
5799.41 7.45908
5799.49 11.1716
5799.58 17.8846
5799.63 23.2361
5799.67 30.7691
5799.71 41.5774
5799.76 57.3748
5799.80 80.7777
5799.85 115.852
5799.92 209.980
5800.00 297.589
5800.04 297.330
5800.08 268.312
5800.15 188.627
5800.21 140.776
5800.27 107.809
5800.33 85.5023
5800.39 70.0309
5800.51 50.7648
5800.63 39.7024
5800.75 32.7312
5800.87 28.0196
5801.11 22.1826
5801.35 18.7454
5801.59 16.5256
5801.83 14.9748
5802.07 13.8440
5802.55 12.3034
5803.03 11.3104
5803.51 10.6198
5803.99 10.1128
5804.95 9.41898
5805.90 8.96827
5806.86 8.65192
5807.82 8.41769
5809.74 8.09379
5811.65 7.88035
5813.57 7.72867
5815.49 7.61519
5819.32 7.45590
5823.15 7.34873
5830.82 7.21170
5838.48 7.12582
5846.15 7.06547
5861.48 6.98334
5892.14 6.88541
5922.80 6.82489
5953.47 6.78707
5968.80 6.77848
5984.13 6.78273
5991.80 6.79379
5999.46 6.81599
6007.13 6.85845
6014.79 6.94264
6018.63 7.01603
6022.46 7.12968
6026.29 7.31735
6030.12 7.65760
6032.04 7.94182
6033.96 8.37122
6035.87 9.06508
6037.79 10.2934
6038.75 11.2996
6039.71 12.7915
6040.67 15.1423
6041.62 19.1622
6042.58 26.8903
6043.06 33.7399
6043.54 44.7051
6044.02 63.7728
6044.50 100.912
6044.74 133.867
6044.98 185.381
6045.22 270.202
6045.46 410.728
6045.73 652.882
6046.00 812.853
6046.27 650.418
6046.55 408.151
6046.80 260.542
6047.06 175.272
6047.31 124.528
6047.57 93.0106
6048.08 58.0569
6048.59 40.4974
6049.10 30.5100
6049.61 24.3419
6050.63 17.4414
6051.65 13.8887
6052.67 11.8271
6053.69 10.5270
6054.72 9.65546
6056.76 8.59662
6058.80 8.00340
6060.84 7.63798
6062.88 7.39704
6066.97 7.10878
6071.05 6.94906
6075.14 6.85088
6079.22 6.78578
6087.39 6.70628
6095.56 6.65998
6103.73 6.62940
6111.90 6.60721
6128.23 6.57569
6144.57 6.55266
6177.25 6.51717
6209.92 6.48788
6242.60 6.46157
6307.94 6.41399
6373.29 6.37137
6405.97 6.35238
6438.64 6.33644
6454.98 6.33068
6471.32 6.32780
6487.66 6.33030
6503.99 6.34419
6512.16 6.35985
6520.33 6.38692
6528.50 6.43527
6536.67 6.52828
6540.75 6.60869
6544.84 6.73300
6548.92 6.93843
6553.01 7.31185
6555.05 7.62440
6557.09 8.09716
6559.13 8.86104
6561.17 10.2130
6562.20 11.3171
6563.22 12.9513
6564.24 15.5157
6565.26 19.8701
6566.28 28.1404
6566.79 35.3794
6567.30 46.7728
6567.81 66.1863
6568.32 102.604
6568.58 133.778
6568.83 180.725
6569.09 253.929
6569.34 368.690
6569.67 586.580
6570.00 732.015
6570.33 586.773
6570.66 368.988
6570.90 259.309
6571.14 187.539
6571.38 140.481
6571.62 108.892
6572.10 71.0179
6572.58 50.4843
6573.07 38.2365
6573.55 30.4204
6574.51 21.4005
6575.47 16.6061
6576.43 13.7690
6577.40 11.9509
6578.36 10.7192
6580.28 9.20354
6582.21 8.34226
6584.13 7.80629
6586.06 7.45006
6589.91 7.02026
6593.76 6.78004
6597.61 6.63171
6601.46 6.53330
6609.16 6.41371
6616.86 6.34527
6624.56 6.30129
6632.26 6.27048
6647.66 6.22900
6663.05 6.20064
6678.45 6.17834
6693.85 6.15912
6755.45 6.09131
6817.05 6.01862
6878.64 5.92303
6909.44 5.85696
6940.24 5.76655
6971.04 5.62817
6986.44 5.52371
7001.84 5.37336
7009.54 5.26936
7017.24 5.13418
7024.94 4.95054
7032.63 4.68577
7036.48 4.50371
7040.33 4.26954
7044.18 3.95740
7048.03 3.52200
7049.96 3.23395
7051.88 2.87851
7053.81 2.43360
7055.73 1.87506
7056.70 1.55096
7057.66 1.20981
7058.62 0.892256
7059.58 0.728505
7060.07 0.812393
7060.55 1.14708
7061.03 1.97372
7061.27 2.71723
7061.51 3.81501
7061.75 5.45629
7061.99 7.91791
7062.23 11.7116
7062.47 17.6613
7062.71 27.3895
7062.95 43.7936
7063.19 72.8167
7063.43 124.618
7063.72 229.145
7064.00 326.656
7064.14 327.441
7064.28 295.933
7064.57 208.110
7064.88 138.736
7065.19 98.2153
7065.50 74.0516
7065.81 58.7474
7066.12 48.4731
7066.43 41.2278
7067.05 31.8705
7067.67 26.2075
7068.29 22.4704
7069.53 17.9135
7070.77 15.2734
7072.01 13.5689
7073.25 12.3841
7074.49 11.5162
7076.97 10.3320
7079.45 9.56523
7081.92 9.02917
7084.40 8.63370
7089.36 8.08955
7094.32 7.73295
7099.28 7.48092
7104.24 7.29320
7114.15 7.03150
7124.07 6.85694
7133.99 6.73144
7143.91 6.63626
7163.74 6.49987
7183.57 6.40497
7223.24 6.27621
7262.91 6.18689
7302.58 6.11602
7342.25 6.05456
7362.08 6.02653
7372.00 6.01610
7376.96 6.02364
7379.44 6.07553
7380.06 6.12957
7380.68 6.27723
7380.99 6.47086
7381.30 6.96951
7381.45 7.58024
7381.61 9.00529
7381.69 10.5650
7381.76 13.6130
7381.80 16.3913
7381.84 20.6982
7381.88 28.0859
7381.92 40.3271
7381.96 60.9047
7382.00 74.6055
7382.04 60.8619
7382.08 40.2737
7382.13 26.6244
7382.17 19.1874
7382.22 14.9910
7382.26 12.4649
7382.35 9.76116
7382.44 8.45234
7382.61 7.26525
7382.79 6.76648
7383.14 6.36409
7383.49 6.20995
7384.19 6.09245
7384.89 6.04887
7387.69 6.00260
7393.30 5.98388
7404.51 5.96533
7426.94 5.93279
7471.79 5.86693
7561.49 5.71644
7606.35 5.62320
7651.20 5.50902
7673.63 5.44064
7696.05 5.36221
7718.48 5.27248
7729.69 5.22827
7735.30 5.22648
7736.70 5.24400
7738.10 5.30294
7738.80 5.38682
7739.50 5.61641
7739.85 5.91682
7740.20 6.68325
7740.38 7.61494
7740.55 9.77072
7740.64 12.1080
7740.73 16.6406
7740.77 20.7298
7740.82 27.2242
7740.86 38.0386
7740.90 56.1013
7740.95 86.6601
7741.00 106.609
7741.05 86.3139
7741.10 55.6671
7741.13 40.9932
7741.16 31.0616
7741.20 24.4615
7741.23 19.9696
7741.30 14.5463
7741.37 11.5807
7741.50 8.66695
7741.64 7.35688
7741.91 6.23779
7742.18 5.79274
7742.73 5.44583
7743.27 5.31574
7744.35 5.21692
7745.44 5.17863
7749.78 5.12689
7758.47 5.08813
7762.82 5.08901
7767.16 5.14205
7769.33 5.23852
7770.42 5.33996
7771.50 5.52721
7772.59 5.92413
7773.13 6.31107
7773.67 6.99655
7773.95 7.55833
7774.22 8.38821
7774.49 9.69956
7774.76 11.9305
7775.03 16.2291
7775.17 20.0380
7775.30 26.0778
7775.44 36.6344
7775.57 56.9653
7775.64 75.0212
7775.71 103.318
7775.78 149.607
7775.84 225.675
7775.92 356.998
7776.00 444.712
7776.08 355.569
7776.16 223.896
7776.22 150.570
7776.28 105.581
7776.35 77.4289
7776.41 59.1462
7776.54 38.1011
7776.67 27.1119
7776.80 20.6908
7776.93 16.6933
7777.18 12.1595
7777.44 9.78635
7777.69 8.40403
7777.95 7.52422
7778.21 6.93452
7778.72 6.21367
7779.23 5.80757
7780.26 5.38948
7781.29 5.18784
7782.31 5.07353
7784.36 4.95064
7788.47 4.83873
7792.57 4.77309
7800.77 4.66660
7808.98 4.55899
7817.19 4.43919
7825.39 4.30139
7841.80 3.94596
7858.22 3.41197
7866.42 3.02736
7874.63 2.51080
7878.73 2.18171
7882.83 1.79021
7886.94 1.32595
7891.04 0.796083
7895.14 0.302063
7896.17 0.228851
7897.20 0.207951
7898.22 0.273707
7899.25 0.483053
7900.27 0.934844
7900.79 1.30208
7901.30 1.80564
7901.81 2.49250
7902.32 3.42892
7902.84 4.71011
7903.35 6.47147
7903.86 8.92831
7904.38 12.3979
7904.89 17.3846
7905.40 24.7041
7905.91 35.7091
7906.43 52.6773
7906.94 79.3945
7907.45 121.463
7908.23 223.877
7909.00 319.461
7909.77 289.424
7910.55 203.409
7911.17 149.933
7911.80 113.867
7912.42 89.6313
7913.04 72.9524
7914.29 52.2794
7915.54 40.4611
7916.78 33.0279
7918.03 28.0074
7920.52 21.7700
7923.02 18.1123
7925.51 15.7428
7930.50 12.9134
7935.49 11.3809
7937.98 10.9320
7940.47 10.7132
7942.97 10.8785
7944.21 11.2561
7945.46 12.0670
7946.71 13.8535
7947.33 15.5556
7947.95 18.4108
7948.58 23.6698
7948.89 28.0852
7949.20 34.7181
7949.51 45.3132
7949.82 63.2904
7950.14 96.3673
7950.45 159.646
7950.72 250.522
7951.00 310.776
7951.28 249.987
7951.55 159.387
7951.86 96.6461
7952.17 63.7160
7952.47 45.5345
7952.78 34.8087
7953.09 28.0008
7953.39 23.4648
7954.00 17.9864
7954.62 14.9310
7955.23 13.0562
7956.45 10.9469
7957.68 9.82787
7958.90 9.14405
7961.35 8.34373
7963.81 7.86922
7966.26 7.53438
7971.16 7.04599
7976.06 6.66083
7980.96 6.31419
7990.76 5.62292
8000.56 4.78740
8005.46 4.24006
8010.36 3.53346
8015.26 2.56893
8017.71 1.94963
8020.16 1.23416
8022.61 0.524896
8023.83 0.322790
8024.45 0.341118
8025.06 0.513469
8025.67 0.946865
8025.98 1.31488
8026.28 1.82849
8026.59 2.53962
8026.90 3.51260
8027.20 4.84702
8027.51 6.68372
8027.82 9.23973
8028.12 12.8106
8028.43 17.8812
8028.73 25.1996
8029.04 36.0005
8029.35 52.1309
8029.65 76.6228
8029.96 113.751
8030.48 215.150
8031.00 313.681
8031.26 317.579
8031.52 289.660
8032.04 207.127
8032.63 138.344
8033.22 98.3787
8033.81 74.6512
8034.40 59.6677
8034.99 49.5846
8035.57 42.4636
8036.75 33.2428
8037.93 27.6259
8039.11 23.9005
8041.46 19.3171
8043.82 16.6339
8046.17 14.8847
8048.52 13.6566
8050.88 12.7485
8055.59 11.4944
8060.30 10.6683
8069.72 9.64098
8079.13 9.02131
8088.55 8.60244
8107.39 8.06418
8126.23 7.72673
8145.06 7.49150
8182.74 7.17942
8220.41 6.97876
8239.25 6.90352
8258.09 6.84165
8276.92 6.79451
8286.34 6.77927
8295.76 6.77491
8305.18 6.79535
8309.89 6.82786
8314.60 6.89671
8316.95 6.95853
8319.31 7.05567
8321.66 7.21772
8324.02 7.51289
8325.19 7.75934
8326.37 8.12994
8327.55 8.72299
8328.72 9.75567
8329.90 11.7915
8330.49 13.6389
8331.08 16.6594
8331.67 22.0945
8331.96 26.5673
8332.26 33.2049
8332.55 43.6109
8332.85 60.8149
8333.14 91.2012
8333.43 146.721
8333.72 231.425
8334.00 288.011
8334.28 231.974
8334.57 147.819
8334.90 87.1728
8335.23 56.3521
8335.56 39.7448
8335.89 30.1075
8336.23 24.0655
8336.56 20.0763
8337.22 15.3050
8337.88 12.6856
8338.55 11.0985
8339.87 9.35637
8341.20 8.47185
8342.52 7.96166
8343.85 7.64050
8345.17 7.42519
8347.83 7.16247
8350.48 7.01416
8355.78 6.86135
8361.08 6.78967
8366.39 6.75358
8376.99 6.73811
8382.30 6.75448
8387.60 6.79265
8392.90 6.86658
8398.21 7.01047
8400.86 7.13355
8403.51 7.32112
8406.16 7.62567
8408.81 8.16676
8410.14 8.61103
8411.46 9.27277
8412.79 10.3221
8414.12 12.1341
8415.44 15.6887
8416.10 18.9130
8416.77 24.2123
8417.43 33.8111
8417.76 41.8228
8418.09 53.8237
8418.43 72.9585
8418.76 105.432
8419.09 165.041
8419.42 279.748
8419.71 442.170
8420.00 549.084
8420.29 438.793
8420.58 275.555
8420.87 172.986
8421.15 115.195
8421.44 81.5133
8421.72 60.9018
8422.01 47.4837
8422.29 38.3921
8422.86 27.2512
8423.43 20.9816
8423.99 17.1395
8425.13 12.8788
8426.27 10.7069
8427.41 9.45681
8428.54 8.67412
8429.68 8.15284
8431.95 7.52489
8434.23 7.17643
8436.50 6.96359
8438.78 6.82420
8443.32 6.65847
8447.87 6.56682
8452.42 6.51007
8456.97 6.47179
8466.07 6.42309
8475.16 6.39227
8493.35 6.35162
8511.55 6.32207
8529.74 6.29707
8566.13 6.25330
8602.51 6.21394
8638.90 6.17782
8657.09 6.16176
8675.28 6.15072
8684.38 6.15258
8693.48 6.17714
8698.03 6.22191
8700.30 6.27009
8702.57 6.36128
8704.85 6.55992
8705.99 6.75775
8707.12 7.11392
8707.69 7.40892
8708.26 7.84917
8708.83 8.54921
8709.40 9.75213
8709.97 12.0827
8710.25 14.1519
8710.53 17.4681
8710.82 23.2608
8711.10 34.4914
8711.24 44.3954
8711.39 59.8716
8711.53 85.0761
8711.67 126.663
8711.84 199.497
8712.00 248.526
8712.17 200.322
8712.33 127.920
8712.52 77.3480
8712.70 50.9134
8712.88 36.3640
8713.07 27.7496
8713.25 22.2760
8713.44 18.6416
8713.81 14.2607
8714.17 11.8270
8714.54 10.3472
8715.28 8.71121
8716.02 7.87353
8716.75 7.38851
8717.49 7.08147
8718.22 6.87501
8719.70 6.62184
8721.17 6.47775
8724.12 6.32671
8727.06 6.25187
8730.01 6.20844
8735.90 6.16071
8741.79 6.13468
8747.69 6.11763
8759.47 6.09490
8783.04 6.06516
8806.61 6.04209
8853.75 6.00282
8900.89 5.96955
8948.03 5.94477
8971.59 5.93854
8995.16 5.94082
9018.73 5.96131
9030.52 5.98637
9042.30 6.03322
9048.20 6.07193
9054.09 6.12918
9059.98 6.21892
9065.87 6.37241
9068.82 6.49496
9071.76 6.67412
9074.71 6.95388
9077.66 7.43332
9079.13 7.81727
9080.60 8.37979
9082.08 9.25806
9083.55 10.7554
9085.02 13.6618
9085.76 16.2924
9086.49 20.6205
9087.23 28.5442
9087.60 35.2263
9087.97 45.4259
9088.34 62.0949
9088.70 91.5166
9089.07 148.942
9089.26 198.165
9089.44 269.581
9089.72 422.508
9090.00 520.027
9090.28 411.409
9090.56 256.018
9090.86 154.014
9091.15 99.2747
9091.45 68.5772
9091.74 50.3212
9092.03 38.6972
9092.33 30.9582
9092.92 21.6631
9093.51 16.5514
9094.09 13.4779
9095.27 10.1481
9096.45 8.50022
9097.63 7.57948
9098.80 7.01900
9099.98 6.65618
9102.33 6.23686
9104.69 6.01848
9107.04 5.89392
9109.40 5.81827
9114.11 5.73859
9118.81 5.70281
9128.23 5.67786
9147.07 5.67558
9165.90 5.68567
9184.74 5.70087
9203.57 5.72333
9241.24 5.81208
9260.08 5.89923
9278.91 6.04347
9297.75 6.29406
9316.58 6.76464
9326.00 7.16350
9335.42 7.76910
9344.83 8.74603
9354.25 10.4603
9363.67 13.8688
9368.38 16.9895
9373.09 22.1519
9377.80 31.5722
9380.15 39.4639
9382.50 51.3766
9384.86 70.4278
9387.21 103.081
9389.57 163.669
9391.92 281.988
9393.96 449.117
9396.00 560.728
9398.04 448.619
9400.08 281.571
9402.42 163.873
9404.76 103.407
9407.10 70.7081
9409.44 51.6037
9411.78 39.6262
9414.12 31.6838
9418.80 22.1849
9423.49 16.9640
9428.17 13.7985
9437.53 10.3201
9446.89 8.54876
9456.25 7.52090
9465.61 6.86724
9474.98 6.42187
9493.70 5.85999
9512.42 5.51810
9531.15 5.28108
9549.87 5.09874
9587.32 4.80939
9624.77 4.55228
9643.49 4.42165
9662.22 4.28574
9671.58 4.21892
9680.94 4.17180
9685.62 4.18678
9687.96 4.22909
9690.30 4.33342
9691.47 4.43463
9692.64 4.60086
9693.81 4.88926
9694.98 5.43297
9695.57 5.89683
9696.15 6.60237
9696.74 7.74210
9697.32 9.73750
9697.91 13.6607
9698.20 17.1977
9698.49 22.8978
9698.79 32.9406
9699.08 52.6020
9699.23 70.2254
9699.37 97.8045
9699.52 143.092
9699.66 218.549
9699.83 350.678
9700.00 441.720
9700.17 357.236
9700.34 227.137
9700.48 152.983
9700.62 107.484
9700.76 78.8644
9700.90 60.4212
9701.19 39.0692
9701.47 27.8674
9701.75 21.3180
9702.04 17.1701
9702.60 12.4173
9703.17 9.88681
9703.73 8.37834
9704.30 7.40334
9704.86 6.73528
9706.00 5.89570
9707.13 5.40390
9708.26 5.08700
9709.39 4.86828
9711.65 4.58830
9713.91 4.41686
9716.18 4.29964
9718.44 4.21285
9722.96 4.08793
9727.49 3.99639
9736.54 3.85522
9745.59 3.73607
9754.64 3.62379
9772.74 3.39872
9808.94 2.89038
9845.14 2.24206
9881.34 1.38641
9899.44 0.874501
9917.54 0.355419
9926.59 0.145586
9931.12 0.0759175
9935.64 0.0470538
9940.17 0.0799269
9942.43 0.128830
9944.69 0.206107
9946.95 0.318468
9949.22 0.474130
9951.48 0.683719
9953.74 0.960358
9958.27 1.78825
9962.79 3.16395
9967.32 5.44484
9971.84 9.27806
9976.37 15.8932
9980.89 27.7422
9985.42 49.8627
9989.94 92.0408
9994.97 175.836
10000.0 258.645
10002.5 262.766
10005.1 240.314
10010.1 172.539
10013.2 138.090
10016.3 112.199
10022.5 78.6735
10028.7 59.4147
10034.9 47.5230
10041.1 39.6598
10047.4 34.2009
10059.8 27.3895
10072.2 23.8016
10078.4 22.9754
10084.6 23.0043
10090.8 24.6157
10093.9 26.6600
10097.0 30.4481
10100.1 37.9248
10101.7 44.4220
10103.2 54.4597
10104.8 70.8657
10106.3 99.6684
10107.9 154.632
10108.7 200.880
10109.4 265.721
10110.7 419.596
10112.0 525.284
10113.3 426.545
10114.6 274.316
10115.8 179.949
10117.0 125.432
10118.2 92.9012
10119.4 72.4702
10121.9 49.5517
10124.3 37.8761
10126.7 31.0878
10129.1 26.8061
10134.0 21.8175
10138.8 19.0712
10143.7 17.3472
10153.4 15.2884
10163.1 14.0658
10172.8 13.2290
10192.2 12.1065
10211.6 11.3531
10230.9 10.7974
10240.6 10.5713
10250.3 10.3809
10255.2 10.3095
10260.0 10.2896
10262.5 10.3459
10263.7 10.4238
10264.9 10.5823
10266.1 10.9356
10266.7 11.2891
10267.3 11.9035
10267.9 13.1513
10268.2 14.2763
10268.5 16.1259
10268.8 19.6176
10269.0 22.4516
10269.1 26.6921
10269.3 33.3873
10269.4 44.6674
10269.6 65.0896
10269.7 106.641
10269.9 163.147
10270.0 204.175
10270.1 163.848
10270.3 107.502
10270.4 67.7519
10270.6 47.3871
10270.7 35.1210
10270.9 28.2676
10271.0 23.5734
10271.1 20.6301
10271.4 16.9105
10271.7 14.8381
10272.0 13.5694
10272.6 12.1612
10273.2 11.4365
10273.8 11.0129
10274.9 10.5575
10276.1 10.3250
10277.2 10.1859
10279.6 10.0252
10284.2 9.86160
10288.8 9.75999
10298.1 9.60765
10307.4 9.48096
10325.9 9.26284
10344.5 9.07530
10381.6 8.76353
10418.7 8.51237
10492.9 8.12821
10567.1 7.84302
10641.3 7.61626
10715.5 7.42295
10789.7 7.24263
10826.8 7.14986
10845.4 7.10137
10854.6 7.07913
10859.3 7.08164
10861.6 7.13997
10862.8 7.38375
10863.0 7.61961
10863.3 8.22295
10863.5 8.98727
10863.6 10.6076
10863.7 12.2677
10863.8 15.3332
10863.8 21.7318
10863.9 28.6965
10863.9 39.4877
10864.0 57.0913
10864.0 71.8749
10864.1 57.3416
10864.1 39.4364
10864.1 28.9789
10864.2 23.4173
10864.2 16.8939
10864.3 13.5162
10864.3 11.5915
10864.5 9.52187
10864.6 8.64850
10864.8 7.85602
10865.1 7.53479
10865.6 7.28061
10866.1 7.18309
10868.1 7.07739
10872.1 7.03741
10880.1 7.00500
10896.0 6.95069
10912.0 6.89310
10919.9 6.86369
10923.9 6.85727
10925.9 6.89133
10926.9 7.05000
10927.4 7.60178
10927.6 8.10688
10927.7 9.16035
10927.8 12.1788
10927.9 16.1758
10927.9 19.7915
10927.9 27.2587
10928.0 39.9699
10928.0 48.0001
10928.0 40.1555
10928.1 27.4937
10928.1 20.0099
10928.2 15.4625
10928.2 11.5294
10928.4 8.79687
10928.5 7.85731
10928.7 7.47749
10929.2 7.01971
10930.4 6.87471
10932.7 6.82417
10937.2 6.79139
10946.3 6.74229
10955.5 6.69072
10964.6 6.63331
10982.8 6.49212
11001.1 6.29388
11010.2 6.15863
11019.3 5.98446
11028.5 5.74938
11037.6 5.41311
11042.2 5.18254
11046.7 4.88769
11051.3 4.49637
11055.8 3.95326
11058.1 3.59574
11060.4 3.15640
11062.7 2.60909
11065.0 1.92550
11067.2 1.11205
11068.4 0.715662
11069.5 0.474489
11070.1 0.519397
11070.7 0.808231
11071.2 1.55889
11071.5 2.24540
11071.8 3.21496
11072.1 4.67924
11072.4 6.74516
11072.7 9.90149
11072.9 14.4519
11073.2 21.6147
11073.5 32.3036
11073.8 49.6813
11074.1 75.9513
11074.5 148.728
11075.0 221.151
11075.2 226.404
11075.5 208.665
11075.9 152.816
11076.4 112.168
11076.8 85.8148
11077.2 68.0122
11077.6 56.1815
11078.4 41.4514
11079.3 33.0598
11080.1 27.7687
11080.9 24.1767
11082.6 19.6928
11084.2 17.0093
11085.9 15.2560
11087.5 14.0138
11089.2 13.0998
11092.5 11.8334
11095.8 11.0073
11099.1 10.4251
11102.4 9.99312
11109.1 9.39403
11115.7 8.99916
11122.3 8.71812
11128.9 8.50805
11142.2 8.21319
11155.4 8.01505
11181.9 7.76234
11208.4 7.60474
11234.9 7.49462
11287.9 7.34604
11340.9 7.24603
11393.9 7.17114
11446.9 7.11119
11473.4 7.08515
11486.7 7.07337
11493.3 7.07012
11496.6 7.07940
11498.3 7.12769
11499.1 7.31287
11499.5 7.91260
11499.7 9.56571
11499.8 12.5693
11499.9 16.2666
11499.9 23.8933
11500.0 34.1138
11500.0 41.0036
11500.0 34.2344
11500.1 24.0437
11500.1 15.4336
11500.2 12.1935
11500.3 9.48306
11500.5 7.95948
11500.9 7.33777
11501.7 7.14031
11503.3 7.08136
11506.6 7.06233
11513.1 7.05220
11526.1 7.04005
11552.0 7.01911
11604.0 6.98150
11655.9 6.94775
11707.9 6.91691
11759.8 6.88822
11811.8 6.86096
11863.7 6.83563
11876.7 6.83203
11889.7 6.83810
11896.2 6.85687
11902.7 6.92578
11906.0 7.03296
11907.6 7.14405
11909.2 7.35076
11910.8 7.79862
11911.6 8.23818
11912.5 9.02112
11913.3 10.6103
11913.7 12.1170
11914.1 14.5947
11914.5 19.3571
11914.7 23.3577
11914.9 29.5139
11915.1 40.2791
11915.3 58.8372
11915.5 95.5260
11915.6 127.348
11915.7 178.069
11915.9 283.383
11916.0 352.957
11916.2 286.241
11916.3 181.668
11916.4 119.829
11916.6 84.5615
11916.7 62.7451
11916.8 48.6795
11917.1 32.1510
11917.4 23.9527
11917.6 19.0287
11917.9 16.0571
11918.4 12.6533
11918.9 10.8265
11919.5 9.76854
11920.0 9.07774
11920.5 8.61718
11921.6 8.04121
11922.6 7.71072
11924.7 7.36283
11926.8 7.19105
11928.9 7.09263
11933.1 6.98815
11937.3 6.93524
11941.5 6.90402
11949.9 6.86893
11966.7 6.83646
11983.5 6.81943
12017.2 6.80014
12034.0 6.80533
12038.2 6.81880
12042.4 6.86229
12044.5 6.92534
12046.6 7.10419
12047.6 7.34637
12048.2 7.58371
12048.7 7.99262
12049.2 8.82609
12049.5 9.58032
12049.7 10.8302
12050.0 13.2386
12050.1 15.2166
12050.3 18.2224
12050.4 23.0707
12050.5 31.4939
12050.7 47.4470
12050.7 61.9667
12050.8 81.7140
12050.9 125.583
12051.0 157.314
12051.1 126.116
12051.2 82.3704
12051.3 62.6007
12051.4 48.0322
12051.5 31.9832
12051.6 23.4816
12051.7 18.5734
12051.9 15.5216
12052.0 13.5074
12052.3 11.1102
12052.5 9.79778
12052.8 9.00389
12053.3 8.13369
12053.8 7.69239
12054.3 7.43805
12055.4 7.17076
12057.5 6.96556
12059.6 6.88914
12063.7 6.83034
12067.9 6.80748
12076.2 6.78799
12084.5 6.77858
12117.9 6.75932
12184.5 6.73404
12251.2 6.71218
12284.5 6.70227
12301.2 6.70100
12309.5 6.71864
12313.7 6.80583
12314.7 6.89726
12315.8 7.15056
12316.3 7.48590
12316.8 8.35323
12317.1 9.41475
12317.3 11.8766
12317.5 14.5217
12317.6 19.6874
12317.7 24.7110
12317.7 31.4739
12317.8 44.5175
12317.9 64.3501
12317.9 100.988
12318.0 122.700
12318.1 101.522
12318.1 65.0382
12318.2 50.4626
12318.2 38.6458
12318.3 26.1557
12318.4 19.0421
12318.5 15.4575
12318.7 11.5979
12318.9 9.88431
12319.3 8.32992
12319.6 7.69031
12320.4 7.17586
12321.1 6.98174
12322.6 6.83176
12324.1 6.77548
12330.1 6.71553
12342.0 6.69511
12365.8 6.68312
12413.4 6.66843
12508.6 6.64343
12603.8 6.62047
12699.0 6.59887
12794.2 6.57834
12889.4 6.55863
12984.6 6.53949
13032.2 6.53047
13056.0 6.52939
13067.9 6.54636
13070.9 6.56745
13073.9 6.63007
13075.3 6.71843
13076.8 6.96486
13077.6 7.29705
13078.3 8.15485
13078.7 9.21435
13078.9 10.1972
13079.1 11.7043
13079.3 14.5232
13079.4 19.8422
13079.5 25.2628
13079.6 33.2249
13079.7 46.5984
13079.8 71.9861
13079.9 110.019
13080.0 138.183
13080.1 110.611
13080.2 72.7113
13080.3 53.6402
13080.3 41.9585
13080.4 32.7089
13080.5 27.2389
13080.6 19.8636
13080.7 15.7643
13080.8 13.2818
13081.0 11.6743
13081.2 9.84830
13081.5 8.81639
13081.7 8.22025
13082.2 7.55403
13083.3 7.02132
13084.3 6.81992
13086.3 6.66498
13088.4 6.60694
13092.5 6.56249
13096.6 6.54533
13113.0 6.52475
13145.8 6.51315
13211.3 6.49915
13342.4 6.47459
13473.6 6.45097
13539.1 6.44161
13555.5 6.44212
13571.9 6.45057
13580.1 6.46639
13588.3 6.51665
13592.4 6.58990
13594.4 6.66416
13596.5 6.80045
13598.5 7.09032
13599.6 7.37677
13600.6 7.88272
13601.1 8.30740
13601.6 8.92840
13602.1 9.90721
13602.6 11.5780
13603.2 14.7729
13603.4 17.6518
13603.7 22.0426
13603.9 29.8887
13604.2 44.2402
13604.3 57.1087
13604.4 76.9985
13604.6 108.915
13604.7 159.106
13604.8 248.779
13605.0 312.529
13605.2 249.747
13605.3 159.819
13605.5 106.999
13605.6 76.1309
13605.7 55.6452
13605.9 43.4665
13606.1 28.9779
13606.4 21.5017
13606.7 17.1880
13606.9 14.4868
13607.5 11.4706
13608.0 9.85893
13608.5 8.92941
13609.1 8.32552
13609.6 7.92469
13610.7 7.42359
13611.8 7.14218
13613.9 6.84972
13616.0 6.70754
13618.2 6.62806
13622.5 6.54570
13631.1 6.48281
13639.6 6.45844
13656.8 6.43783
13673.9 6.42801
13708.2 6.41639
13742.5 6.40789
13811.2 6.39329
13845.5 6.38823
13862.6 6.39664
13866.9 6.40961
13871.2 6.45017
13873.4 6.50897
13875.5 6.67560
13876.6 6.90172
13877.6 7.50585
13878.2 8.28449
13878.4 9.00524
13878.7 10.1531
13879.0 12.3314
13879.1 14.2590
13879.2 16.9855
13879.4 21.7512
13879.5 29.4558
13879.6 43.7178
13879.8 73.0208
13879.9 114.142
13880.0 140.182
13880.1 114.779
13880.2 73.5338
13880.4 45.9956
13880.5 31.7321
13880.6 23.2071
13880.7 18.5638
13880.9 15.3795
13881.0 13.4201
13881.2 10.9463
13881.5 9.57900
13881.7 8.74680
13882.2 7.84193
13882.7 7.36840
13883.2 7.09502
13884.2 6.80918
13886.2 6.58776
13888.2 6.50490
13892.2 6.44137
13896.1 6.41746
13904.1 6.39918
13912.0 6.39354
13920.0 6.39514
13927.9 6.41161
13931.9 6.43906
13935.9 6.52096
13937.8 6.63642
13939.8 6.95687
13940.8 7.39226
13941.3 7.81454
13941.8 8.53881
13942.3 10.0115
13942.6 11.3730
13942.8 13.5323
13943.1 17.6415
13943.2 21.2945
13943.3 26.4391
13943.4 35.5114
13943.6 50.1520
13943.7 77.3755
13943.7 99.6495
13943.8 133.938
13943.9 212.436
13944.0 261.559
13944.1 212.956
13944.2 133.980
13944.3 100.289
13944.3 74.9406
13944.5 47.5683
13944.6 33.3661
13944.7 25.2821
13944.9 20.0056
13945.0 16.8428
13945.3 13.0898
13945.5 10.9820
13945.8 9.76725
13946.3 8.41730
13946.9 7.73975
13947.4 7.35214
13948.4 6.94796
13950.6 6.64217
13952.7 6.52930
13956.9 6.44459
13961.2 6.41298
13969.6 6.38800
13978.1 6.37751
14012.0 6.36112
14045.9 6.35576
14062.8 6.37568
14067.1 6.40248
14071.3 6.48398
14073.4 6.60067
14075.5 6.93103
14076.6 7.37878
14077.1 7.81272
14077.7 8.57557
14078.2 10.0999
14078.5 11.5371
14078.7 13.8401
14079.0 18.2507
14079.1 21.8495
14079.3 27.2823
14079.4 35.9658
14079.5 50.8544
14079.6 78.5092
14079.7 103.210
14079.8 136.898
14079.9 216.935
14080.0 268.875
14080.1 218.049
14080.2 138.305
14080.3 92.8162
14080.4 64.6575
14080.5 47.6333
14080.6 37.7462
14080.8 25.2008
14081.0 19.0806
14081.2 15.3614
14081.4 13.1529
14081.8 10.5757
14082.2 9.23196
14082.6 8.44404
14083.3 7.61105
14084.1 7.19171
14084.9 6.95368
14086.4 6.70752
14089.6 6.51963
14092.7 6.44937
14098.9 6.39494
14105.1 6.37350
14117.5 6.35511
14129.9 6.34623
14179.6 6.32816
14279.0 6.30296
14378.3 6.27891
14428.0 6.27146
14440.4 6.27458
14452.9 6.29045
14459.1 6.31620
14465.3 6.39308
14468.4 6.50137
14469.9 6.60879
14471.5 6.80286
14473.1 7.21172
14473.8 7.60857
14474.6 8.29690
14475.0 8.86194
14475.4 9.69454
14475.8 10.9928
14476.2 13.1035
14476.5 17.1172
14476.7 20.6659
14476.9 25.8719
14477.1 34.9363
14477.3 50.3869
14477.5 80.5459
14477.6 108.050
14477.7 147.348
14477.9 229.820
14478.0 288.469
14478.2 230.206
14478.3 147.347
14478.4 105.237
14478.5 78.7749
14478.6 59.4842
14478.7 47.6031
14478.9 32.4560
14479.1 24.5013
14479.3 19.4554
14479.5 16.2293
14480.0 12.5722
14480.4 10.5712
14480.8 9.41089
14481.6 8.15196
14482.4 7.51443
14483.3 7.15181
14484.9 6.77725
14486.6 6.59520
14488.2 6.49399
14491.5 6.39001
14498.1 6.31158
14504.8 6.28192
14518.0 6.25740
14531.2 6.24583
14584.1 6.22105
14637.0 6.20094
14663.5 6.19072
14676.7 6.18613
14683.3 6.18774
14686.6 6.20654
14688.3 6.28811
14689.1 6.59392
14689.5 7.55885
14689.6 8.41798
14689.7 10.0940
14689.8 14.3927
14689.9 19.3144
14689.9 28.6645
14690.0 43.7228
14690.0 51.1817
14690.1 40.7772
14690.1 28.6981
14690.1 19.5717
14690.2 15.3740
14690.3 11.1312
14690.4 8.23530
14690.8 6.85977
14691.4 6.38277
14692.7 6.23871
14695.4 6.19614
14700.6 6.18203
14711.1 6.17404
14732.2 6.16390
14774.3 6.14456
14858.4 6.10172
14942.6 6.05349
14963.6 6.04327
14984.6 6.04025
14995.2 6.04842
15005.7 6.08223
15010.9 6.13181
15013.6 6.18071
15016.2 6.26789
15018.8 6.44719
15020.1 6.61996
15021.5 6.92115
15022.8 7.53567
15023.4 8.11676
15024.1 9.09969
15024.7 11.0446
15025.1 12.8069
15025.4 15.5888
15025.7 20.7284
15025.9 25.1520
15026.1 31.3839
15026.2 41.8819
15026.4 58.5692
15026.5 88.3208
15026.7 144.351
15026.9 225.384
15027.0 279.283
15027.2 222.959
15027.3 140.875
15027.5 88.0813
15027.6 57.5716
15027.8 40.6526
15027.9 31.1087
15028.1 24.5854
15028.2 20.2477
15028.6 15.1775
15028.9 12.2853
15029.2 10.5882
15029.8 8.71648
15030.4 7.75640
15031.1 7.21080
15032.3 6.65260
15033.6 6.38561
15034.8 6.24073
15037.3 6.09635
15042.4 5.99475
15047.4 5.95912
15057.4 5.93018
15067.4 5.91447
15107.6 5.86289
15147.7 5.80357
15187.9 5.73364
15228.0 5.65962
15248.1 5.63205
15268.2 5.63398
15278.2 5.66260
15288.2 5.73122
15298.3 5.87861
15308.3 6.19497
15313.3 6.48172
15318.3 6.93239
15323.4 7.67783
15328.4 9.00288
15333.4 11.6501
15335.9 14.0576
15338.4 17.9915
15340.9 25.0079
15342.2 30.7680
15343.4 39.1721
15344.7 52.2349
15345.9 73.3337
15347.2 109.586
15348.4 173.511
15349.7 275.095
15351.0 342.755
15352.3 274.735
15353.6 173.061
15354.6 116.265
15355.7 81.5656
15356.8 59.8816
15357.8 45.8050
15359.9 29.5865
15362.1 21.0857
15364.2 16.1141
15366.3 12.9561
15370.5 9.28949
15374.8 7.26367
15379.0 5.96918
15387.5 4.26454
15396.0 2.91436
15400.2 2.23231
15404.5 1.52597
15408.7 0.889022
15410.8 0.728473
15411.9 0.752973
15413.0 0.903677
15414.0 1.25639
15415.1 1.93794
15416.1 3.16760
15417.2 5.33909
15418.3 9.18934
15419.3 16.1533
15420.4 29.0835
15421.4 53.3301
15422.7 106.536
15424.0 163.029
15424.6 168.701
15425.3 157.057
15426.6 116.497
15427.9 82.3875
15429.3 61.3743
15430.6 48.1844
15432.0 39.6134
15433.3 33.6607
15434.7 29.4022
15437.4 23.7517
15440.1 20.2155
15442.8 17.8345
15448.2 14.8436
15453.6 13.0569
15459.0 11.8785
15469.9 10.4215
15480.7 9.55709
15491.5 8.98619
15513.2 8.27795
15534.8 7.85574
15556.4 7.57643
15567.3 7.47081
15578.1 7.38579
15583.5 7.35545
15588.9 7.34998
15591.6 7.37917
15594.3 7.49650
15595.7 7.67379
15597.0 8.16367
15597.7 8.80574
15598.1 9.40545
15598.4 10.3777
15598.7 12.2324
15598.9 13.8199
15599.1 16.2659
15599.2 20.2845
15599.4 27.4456
15599.6 41.4953
15599.7 52.7122
15599.7 70.0787
15599.9 108.742
15600.0 133.770
15600.1 109.401
15600.3 70.9104
15600.4 50.3063
15600.5 37.9284
15600.6 29.2549
15600.7 24.0789
15600.9 17.6831
15601.1 14.4237
15601.3 12.3945
15601.5 11.1136
15601.9 9.67711
15602.3 8.89747
15602.8 8.44667
15603.6 7.95667
15605.2 7.56135
15606.9 7.40665
15610.2 7.27741
15613.5 7.21875
15620.1 7.15472
15626.7 7.11308
15640.0 7.05138
15653.2 7.00408
15679.6 6.93979
15706.1 6.92223
15719.3 6.94188
15732.5 6.99610
15745.8 7.11342
15759.0 7.36156
15765.6 7.58444
15772.2 7.93299
15778.8 8.50989
15785.4 9.54445
15792.1 11.6414
15795.4 13.5797
15798.7 16.7867
15802.0 22.6480
15803.6 27.5199
15805.3 34.8138
15806.9 46.4062
15808.6 65.7792
15810.2 100.565
15811.9 165.470
15813.5 264.003
15815.0 331.360
15816.6 268.415
15818.1 171.864
15819.5 115.269
15820.8 81.0084
15822.2 59.9770
15823.5 46.5815
15826.3 31.2024
15829.0 23.2554
15831.7 18.6241
15834.4 15.7158
15839.8 12.3858
15845.3 10.6228
15850.7 9.57297
15856.1 8.89424
15861.6 8.42784
15872.4 7.84063
15883.3 7.49353
15894.1 7.26730
15905.0 7.10884
15926.7 6.90045
15948.4 6.76640
15970.2 6.66899
15991.9 6.59127
16035.3 6.46303
16078.8 6.34208
16100.5 6.27547
16122.2 6.19843
16143.9 6.11115
16149.3 6.10215
16154.8 6.15137
16157.5 6.27183
16158.9 6.41272
16160.2 6.68824
16161.6 7.30818
16162.2 7.92937
16162.9 9.01676
16163.6 11.2207
16163.9 13.2337
16164.3 16.5299
16164.6 22.4039
16165.0 34.1722
16165.1 44.8324
16165.3 61.8969
16165.5 90.5123
16165.6 136.747
16165.8 217.794
16166.0 275.854
16166.2 224.848
16166.4 145.175
16166.5 103.362
16166.7 74.8444
16166.8 56.5984
16167.0 45.2066
16167.3 31.0670
16167.5 23.4107
16167.8 18.7135
16168.1 15.8117
16168.7 12.4199
16169.3 10.5585
16169.9 9.45584
16170.5 8.73402
16171.0 8.23351
16172.2 7.59406
16173.4 7.21807
16175.7 6.80157
16178.0 6.58161
16180.4 6.44621
16185.0 6.28526
16189.7 6.18730
16194.4 6.11619
16203.7 6.00595
16222.3 5.81006
16241.0 5.57337
16259.6 5.22063
16269.0 4.95727
16278.3 4.58532
16282.9 4.33349
16287.6 4.01544
16292.3 3.60079
16296.9 3.04106
16299.3 2.68224
16301.6 2.25714
16303.9 1.75341
16306.3 1.17691
16308.6 0.618096
16309.8 0.463139
16310.9 0.601055
16311.5 0.911528
16312.1 1.51350
16312.7 2.60817
16313.2 4.54924
16313.5 6.08300
16313.8 8.07360
16314.4 14.3601
16314.7 19.2722
16315.0 25.9835
16315.6 47.6355
16316.3 96.6045
16317.0 148.462
16317.4 154.287
16317.7 144.089
16318.4 107.417
16318.9 88.2834
16319.3 73.4128
16320.2 53.7136
16321.0 41.8177
16321.9 34.3373
16322.7 29.2161
16323.6 25.6145
16325.3 20.8873
16327.0 17.9511
16328.7 15.9800
16332.1 13.5289
16335.5 12.0688
16338.9 11.1094
16342.4 10.4290
16345.8 9.92460
16352.6 9.22396
16359.4 8.76110
16366.3 8.43209
16373.1 8.18564
16386.7 7.83897
16393.6 7.71134
16400.4 7.60390
16407.2 7.51359
16414.1 7.44828
16417.5 7.44446
16420.9 7.52974
16422.6 7.70290
16423.5 7.89506
16424.3 8.25594
16425.2 9.04378
16425.6 9.81477
16426.0 11.1241
16426.5 13.7321
16426.7 15.9967
16426.9 19.5844
16427.1 26.0880
16427.3 37.9407
16427.4 48.6374
16427.5 63.3056
16427.6 88.4835
16427.7 126.052
16427.9 198.749
16428.0 251.334
16428.1 204.051
16428.3 132.623
16428.4 86.4771
16428.5 60.5480
16428.7 44.1492
16428.8 34.7373
16429.0 28.1012
16429.1 23.8832
16429.3 18.5758
16429.6 15.4059
16429.9 13.4951
16430.4 11.2707
16430.9 10.0958
16431.5 9.39599
16432.5 8.63077
16433.6 8.23672
16434.6 8.00301
16436.8 7.74372
16438.9 7.60383
16441.0 7.51626
16445.3 7.40884
16453.7 7.29266
16462.2 7.22129
16479.2 7.12399
16496.2 7.05387
16513.1 6.99830
16530.1 6.95233
16564.1 6.87934
16598.0 6.82290
16631.9 6.77716
16665.9 6.73919
16682.8 6.72688
16691.3 6.74507
16695.6 6.85556
16696.6 6.97221
16697.7 7.29211
16698.2 7.70885
16698.8 8.75966
16699.0 10.0383
16699.3 12.7660
16699.4 15.7924
16699.6 21.0059
16699.7 31.6116
16699.8 41.9837
16699.8 56.6852
16699.9 87.8411
16700.0 107.401
16700.1 88.4182
16700.2 57.4191
16700.3 37.6423
16700.4 26.2878
16700.5 19.9754
16700.6 16.5178
16700.8 12.3680
16701.0 10.4478
16701.4 8.66041
16701.7 7.90797
16702.5 7.29790
16703.3 7.06029
16704.9 6.87596
16706.4 6.80591
16712.6 6.72760
16725.1 6.69506
16750.0 6.66614
16774.9 6.64014
16787.4 6.63117
16793.6 6.67890
16795.2 6.74943
16796.7 6.97069
16797.5 7.29099
16798.3 8.18186
16798.7 9.34231
16798.9 10.4558
16799.1 12.2234
16799.3 15.6633
16799.4 22.5820
16799.5 29.5930
16799.6 40.2202
16799.7 61.7025
16799.8 101.476
16799.9 157.583
16800.0 199.840
16800.1 160.905
16800.2 105.001
16800.2 79.1838
16800.3 59.7983
16800.4 46.7319
16800.4 37.7397
16800.5 26.7476
16800.7 20.6508
16800.8 16.9583
16800.9 14.5637
16801.1 11.8407
16801.4 10.2855
16801.6 9.38300
16802.1 8.36059
16803.0 7.52336
16804.0 7.19611
16805.8 6.93288
16807.7 6.82803
16811.5 6.74148
16815.3 6.70473
16822.8 6.67090
16830.4 6.65381
16845.5 6.63391
16860.6 6.62049
16890.8 6.59990
16921.0 6.58261
16981.4 6.55081
17011.6 6.53284
17026.7 6.52289
17034.3 6.53755
17038.1 6.66586
17039.0 6.81725
17040.0 7.25183
17040.4 7.83867
17040.9 9.36293
17041.1 11.2696
17041.4 15.4139
17041.5 19.9176
17041.6 28.5070
17041.7 35.9160
17041.7 47.2212
17041.8 65.0387
17041.8 91.5248
17041.9 141.288
17042.0 179.897
17042.1 144.061
17042.2 94.9013
17042.2 72.1623
17042.3 55.2743
17042.4 35.5852
17042.5 25.5258
17042.6 19.8567
17042.8 14.1206
17043.0 11.4459
17043.4 9.10911
17043.7 8.15739
17044.5 7.36748
17045.3 7.05469
17046.9 6.80467
17048.5 6.70661
17051.7 6.62647
17054.8 6.59320
17067.5 6.54993
17092.8 6.52567
17143.5 6.50106
17194.2 6.48129
17219.6 6.47188
17232.2 6.46756
17238.6 6.46785
17241.8 6.47978
17243.3 6.53385
17244.1 6.73517
17244.5 7.39177
17244.7 9.08680
17244.8 12.1783
17244.9 15.8803
17244.9 22.2130
17245.0 32.2612
17245.0 38.0217
17245.0 32.4483
17245.1 22.2723
17245.2 14.3070
17245.2 10.6865
17245.4 8.29650
17245.6 7.08494
17246.2 6.65431
17247.2 6.51900
17249.3 6.47870
17253.6 6.46569
17262.1 6.45912
17279.1 6.45188
17313.1 6.43931
17381.1 6.41429
17449.1 6.38767
17517.1 6.35791
17585.1 6.32287
17619.2 6.30238
17653.2 6.27929
17721.2 6.22859
17738.2 6.22462
17746.7 6.23183
17755.2 6.25645
17763.7 6.32851
17767.9 6.41069
17772.2 6.57082
17774.3 6.71070
17776.4 6.92653
17778.6 7.28430
17780.7 7.92478
17782.8 9.24152
17783.9 10.4703
17784.9 12.5426
17786.0 16.4658
17786.5 19.8058
17787.1 24.9525
17787.6 33.4009
17788.1 48.4184
17788.6 77.7437
17788.9 103.375
17789.2 139.062
17789.6 220.804
17790.0 274.658
17790.4 222.124
17790.8 141.699
17791.2 97.7218
17791.5 70.1727
17791.9 52.7637
17792.2 41.3616
17792.9 28.1030
17793.6 21.0934
17794.2 16.9779
17794.9 14.3656
17796.3 11.3810
17797.6 9.78114
17799.0 8.83519
17800.3 8.22015
17801.7 7.80220
17804.4 7.27635
17807.1 6.97138
17809.8 6.77610
17812.5 6.64213
17818.0 6.47170
17823.4 6.36815
17834.2 6.24413
17845.1 6.16486
17855.9 6.10135
17877.6 5.98004
17899.3 5.82536
17910.2 5.71592
17921.0 5.56317
17931.9 5.32582
17937.3 5.14608
17942.7 4.88968
17945.4 4.71368
17948.2 4.48876
17950.9 4.18960
17953.6 3.77232
17954.9 3.49461
17956.3 3.15307
17957.6 2.71858
17959.0 2.16609
17960.4 1.46295
17961.7 0.739592
17962.4 0.672920
17962.7 0.949985
17963.1 1.73010
17963.4 3.57149
17963.6 5.24766
17963.7 7.79331
17963.9 11.6973
17964.1 17.7554
17964.3 27.2381
17964.4 40.9491
17964.6 59.5649
17964.7 83.9841
17965.0 128.929
17965.2 134.206
17965.3 125.266
17965.6 94.2479
17965.9 69.6487
17966.1 53.9011
17966.4 43.1582
17966.7 36.1156
17967.2 27.2744
17967.8 22.2189
17968.3 19.0152
17968.9 16.8290
17970.0 14.0678
17971.1 12.4125
17972.2 11.3166
17973.3 10.5401
17974.4 9.96658
17976.6 9.16273
17978.8 8.63175
17981.0 8.25447
17983.2 7.97316
17987.6 7.57630
17992.0 7.30908
18000.7 6.96297
18009.5 6.73744
18018.3 6.56728
18035.9 6.28778
18053.5 5.99189
18062.3 5.79978
18071.0 5.54082
18075.4 5.36767
18079.8 5.14805
18084.2 4.85583
18088.6 4.44675
18090.8 4.17206
18093.0 3.82710
18095.2 3.38218
18097.4 2.79463
18099.6 1.99502
18101.8 0.975002
18102.9 0.542853
18103.5 0.513289
18104.0 0.847427
18104.6 2.04398
18104.8 3.34147
18105.1 5.41035
18105.4 8.97796
18105.7 14.7591
18105.9 24.5124
18106.2 40.9384
18106.4 60.4340
18106.6 84.8639
18107.0 131.942
18107.2 137.920
18107.4 129.451
18107.8 97.9938
18108.1 75.8027
18108.5 60.1137
18108.8 49.2471
18109.1 41.7626
18109.8 31.9925
18110.4 26.1853
18111.1 22.3711
18111.7 19.7752
18113.0 16.4499
18114.3 14.4205
18115.6 13.0803
18117.0 12.1204
18118.3 11.4103
18120.9 10.4200
18123.5 9.76636
18126.1 9.30304
18128.7 8.95868
18133.9 8.47715
18139.1 8.15740
18144.3 7.92919
18149.6 7.75806
18160.0 7.51677
18170.4 7.35439
18191.3 7.14745
18212.2 7.01953
18233.0 6.93189
18253.9 6.87188
18264.3 6.87241
18266.9 6.89671
18269.6 6.97940
18270.9 7.10011
18272.2 7.43276
18272.8 7.86702
18273.5 8.96036
18273.8 10.2800
18274.1 13.1004
18274.3 16.1627
18274.4 21.4591
18274.5 25.8047
18274.6 32.1400
18274.7 41.6008
18274.8 57.7412
18274.9 87.3313
18275.0 109.484
18275.1 87.9973
18275.2 58.5556
18275.3 43.8599
18275.4 34.8793
18275.5 24.0393
18275.7 18.2742
18275.8 14.9343
18276.1 11.4736
18276.4 9.82845
18276.9 8.36004
18277.5 7.76377
18278.6 7.27857
18279.8 7.08988
18282.0 6.94175
18284.3 6.88313
18293.3 6.80894
18311.4 6.76197
18329.5 6.73244
18347.5 6.70851
18383.7 6.66977
18419.8 6.63871
18456.0 6.61278
18492.1 6.59176
18510.2 6.58562
18528.3 6.59336
18537.3 6.61883
18541.8 6.64975
18546.4 6.71190
18550.9 6.85503
18553.1 7.00259
18555.4 7.27497
18556.5 7.50450
18557.7 7.85247
18558.8 8.41336
18559.9 9.39652
18561.0 11.3423
18561.6 13.1297
18562.2 16.0034
18562.7 21.2442
18563.0 25.4720
18563.3 31.6885
18563.6 41.2655
18563.9 56.8361
18564.1 83.5834
18564.4 131.184
18564.7 207.085
18565.0 259.324
18565.3 209.879
18565.6 134.675
18565.8 97.8191
18566.0 72.3321
18566.2 55.5231
18566.4 44.1512
18566.8 30.4958
18567.3 23.0555
18567.7 18.6043
18568.1 15.7439
18568.9 12.4224
18569.8 10.6427
18570.6 9.57879
18571.5 8.89163
18572.3 8.42616
18574.0 7.83850
18575.6 7.50045
18577.3 7.28500
18579.0 7.14017
18582.3 6.96059
18585.7 6.85691
18592.4 6.74580
18599.1 6.68886
18605.8 6.65479
18619.2 6.61582
18646.0 6.57860
18672.8 6.55836
18726.4 6.53257
18780.0 6.51380
18887.3 6.48344
18940.9 6.47444
18954.3 6.47943
18967.7 6.50614
18974.4 6.55213
18977.7 6.60174
18981.1 6.69633
18984.4 6.90454
18986.1 7.11430
18987.8 7.49161
18988.6 7.80655
18989.5 8.27875
18990.3 9.03009
18991.1 10.3053
18992.0 12.7902
18992.4 14.9936
18992.8 18.5121
18993.2 24.5908
18993.7 36.2681
18993.9 46.4308
18994.1 62.0914
18994.3 87.1166
18994.5 126.495
18994.7 198.754
18995.0 249.411
18995.3 201.055
18995.5 129.356
18995.8 80.0213
18996.1 53.1282
18996.4 38.1741
18996.6 29.2586
18996.9 23.5900
18997.2 19.7872
18997.8 15.1848
18998.3 12.6219
18998.9 11.0525
19000.0 9.30995
19000.0 8.38276
20000.0 8.39145
25000.0 8.44466
30000.0 8.50558
35000.0 8.56832
40000.0 8.63020
50000.0 8.74709
60000.0 8.85250
70000.0 8.94626
80000.0 9.02934
99999.9 9.16714
100000 9.15145
144665 9.27961
150000 9.29230
200000 9.28411
206067 9.27196
206246 9.27158
206247 9.27158
206269 9.27153
206270 9.27153
226973 9.22989
250000 9.18783
300000 9.04007
420000 8.53291
420000 8.53291
485906 8.31329
485910 8.31328
485956 8.31314
485957 8.31314
490000 8.30075
500000 8.27056
531250 8.16498
541007 8.13329
541010 8.13328
541231 8.13258
541232 8.13258
562500 8.06546
593750 7.97133
599694 7.95398
600000 7.95310
600000 7.95310
616012 7.89259
625000 7.85932
656250 7.74724
664748 7.71769
664817 7.71744
686670 7.64317
686674 7.64316
687500 7.64040
700000 7.59901
701411 7.59396
701701 7.59292
718750 7.53267
726686 7.50511
726690 7.50509
726762 7.50484
726763 7.50484
726989 7.50406
728303 7.49952
728606 7.49848
742370 7.45151
742471 7.45117
742526 7.45098
750000 7.42585
760838 7.38985
760917 7.38958
773939 7.34701
781250 7.32342
786380 7.30699
786384 7.30697
786385 7.30697
786486 7.30666
794556 7.28075
795510 7.27775
795512 7.27775
800000 7.26389
803275 7.25302
812500 7.22270
829228 7.16871
829321 7.16841
843750 7.12284
849653 7.10445
875000 7.02710
880259 7.01136
880260 7.01137
880356 7.01107
880457 7.01078
880460 7.01076
897344 6.96098
897445 6.96068
900000 6.95323
906250 6.93478
937500 6.84443
957664 6.78772
957665 6.78772
957770 6.78743
957772 6.78742
957873 6.78713
968750 6.75704
999999 6.67245
1.00000E+06 6.67245
1.00334E+06 6.66422
1.03516E+06 6.58711
1.03520E+06 6.58701
1.03527E+06 6.58683
1.03528E+06 6.58682
1.05014E+06 6.55163
1.05024E+06 6.55139
1.06250E+06 6.52273
1.06781E+06 6.51042
1.06790E+06 6.51021
1.06793E+06 6.51014
1.07026E+06 6.50476
1.07444E+06 6.49514
1.08510E+06 6.47076
1.08511E+06 6.47073
1.08552E+06 6.46980
1.10397E+06 6.42817
1.10417E+06 6.42773
1.12500E+06 6.38158
1.12832E+06 6.37430
1.12840E+06 6.37411
1.12842E+06 6.37408
1.12854E+06 6.37382
1.12855E+06 6.37380
1.12863E+06 6.37362
1.12874E+06 6.37338
1.14747E+06 6.33275
1.14757E+06 6.33253
1.15997E+06 6.30599
1.15997E+06 6.30598
1.16056E+06 6.30472
1.16240E+06 6.30082
1.18750E+06 6.24806
1.20000E+06 6.22220
1.23549E+06 6.15619
1.25000E+06 6.12975
1.27630E+06 6.08258
1.28180E+06 6.07283
1.28625E+06 6.06499
1.29736E+06 6.04551
1.29797E+06 6.04444
1.31250E+06 6.01923
1.31599E+06 6.01321
1.31614E+06 6.01295
1.32392E+06 5.99961
1.37500E+06 5.91386
1.38426E+06 5.89866
1.39062E+06 5.88828
1.40000E+06 5.87307
1.42417E+06 5.83274
1.43750E+06 5.81078
1.44069E+06 5.80556
1.44085E+06 5.80531
1.44706E+06 5.79518
1.44823E+06 5.79327
1.45226E+06 5.78673
1.46206E+06 5.77088
1.47807E+06 5.74524
1.50000E+06 5.71055
1.50000E+06 5.71054
1.51345E+06 5.68903
1.51345E+06 5.68902
1.51355E+06 5.68886
1.52556E+06 5.66980
1.52566E+06 5.66964
1.52607E+06 5.66899
1.52610E+06 5.66894
1.53138E+06 5.66062
1.55700E+06 5.62060
1.55718E+06 5.62031
1.55738E+06 5.62000
1.56128E+06 5.61398
1.56250E+06 5.61209
1.56819E+06 5.60333
1.56930E+06 5.60162
1.58139E+06 5.58312
1.59060E+06 5.56912
1.59645E+06 5.56027
1.62500E+06 5.51756
1.63724E+06 5.49948
1.63742E+06 5.49921
1.64300E+06 5.49102
1.64300E+06 5.49101
1.64310E+06 5.49086
1.64512E+06 5.48792
1.64522E+06 5.48776
1.64522E+06 5.48775
1.66248E+06 5.46250
1.66258E+06 5.46235
1.68750E+06 5.42642
1.68775E+06 5.42606
1.70000E+06 5.40862
1.70089E+06 5.40734
1.72514E+06 5.37291
1.75000E+06 5.33818
1.76071E+06 5.32331
1.76082E+06 5.32316
1.76122E+06 5.32260
1.77662E+06 5.30140
1.78140E+06 5.29485
1.78353E+06 5.29194
1.78827E+06 5.28547
1.80160E+06 5.26738
1.81250E+06 5.25268
1.86620E+06 5.18155
1.87500E+06 5.17009
1.88390E+06 5.15856
1.88422E+06 5.15815
1.88433E+06 5.15800
1.88916E+06 5.15177
1.88916E+06 5.15176
1.90028E+06 5.13746
1.92736E+06 5.10298
1.92740E+06 5.10293
1.93750E+06 5.09020
1.95860E+06 5.06381
1.98040E+06 5.03685
1.98524E+06 5.03091
1.98566E+06 5.03038
1.99911E+06 5.01394
1.99921E+06 5.01381
2.00000E+06 5.01285
2.00596E+06 5.00596
2.01000E+06 5.00131
2.01000E+06 5.00131
2.02126E+06 4.98838
2.03829E+06 4.96896
2.03830E+06 4.96894
2.03839E+06 4.96885
2.05320E+06 4.95209
2.05353E+06 4.95172
2.05371E+06 4.95152
2.05859E+06 4.94602
2.05902E+06 4.94555
2.06060E+06 4.94377
2.08961E+06 4.91140
2.09184E+06 4.90893
2.09403E+06 4.90651
2.09450E+06 4.90600
2.10743E+06 4.89175
2.11764E+06 4.88056
2.11764E+06 4.88056
2.12262E+06 4.87513
2.12648E+06 4.87092
2.12659E+06 4.87080
2.16114E+06 4.83349
2.21486E+06 4.77666
2.22903E+06 4.76190
2.22950E+06 4.76141
2.22964E+06 4.76127
2.24264E+06 4.74781
2.24264E+06 4.74781
2.24671E+06 4.74362
2.24691E+06 4.74342
2.25000E+06 4.74024
2.25800E+06 4.73201
2.25800E+06 4.73201
2.26533E+06 4.72450
2.26857E+06 4.72119
2.26860E+06 4.72116
2.30660E+06 4.68268
2.30765E+06 4.68164
2.31864E+06 4.67063
2.31985E+06 4.66942
2.32229E+06 4.66699
2.35740E+06 4.63225
2.35744E+06 4.63221
2.36362E+06 4.62616
2.36774E+06 4.62213
2.36785E+06 4.62202
2.36815E+06 4.62173
2.37601E+06 4.61406
2.39520E+06 4.59544
2.41836E+06 4.57318
2.41870E+06 4.57285
2.41891E+06 4.57266
2.42150E+06 4.57017
2.42972E+06 4.56233
2.43999E+06 4.55258
2.44473E+06 4.54809
2.44903E+06 4.54403
2.44953E+06 4.54355
2.45162E+06 4.54157
2.45172E+06 4.54148
2.45280E+06 4.54046
2.46405E+06 4.52988
2.46627E+06 4.52778
2.47524E+06 4.51939
2.49494E+06 4.50104
2.50000E+06 4.49635
2.50679E+06 4.49114
2.50709E+06 4.49091
2.50710E+06 4.49090
2.51101E+06 4.48792
2.51973E+06 4.48126
2.52000E+06 4.48106
2.52000E+06 4.48106
2.52050E+06 4.48068
2.52629E+06 4.47628
2.52781E+06 4.47512
2.53212E+06 4.47185
2.54735E+06 4.46034
2.55473E+06 4.45480
2.55483E+06 4.45472
2.55607E+06 4.45378
2.55790E+06 4.45241
2.56054E+06 4.45043
2.56055E+06 4.45042
2.56092E+06 4.45014
2.56110E+06 4.45001
2.56112E+06 4.44999
2.56712E+06 4.44550
2.58908E+06 4.42915
2.59437E+06 4.42524
2.59457E+06 4.42510
2.60973E+06 4.41391
2.61615E+06 4.40919
2.62128E+06 4.40543
2.62128E+06 4.40542
2.62159E+06 4.40520
2.63803E+06 4.39320
2.63955E+06 4.39210
2.64107E+06 4.39099
2.64168E+06 4.39055
2.64645E+06 4.38709
2.69973E+06 4.34883
2.76861E+06 4.30048
2.76923E+06 4.30005
2.76943E+06 4.29991
2.78973E+06 4.28589
2.79029E+06 4.28551
2.79069E+06 4.28523
2.79301E+06 4.28364
2.79783E+06 4.28033
2.83530E+06 4.25479
2.83594E+06 4.25436
2.85081E+06 4.24432
2.86636E+06 4.23388
2.87936E+06 4.22520
2.88098E+06 4.22412
2.88100E+06 4.22411
2.89650E+06 4.21380
2.90038E+06 4.21123
2.90103E+06 4.21081
2.90325E+06 4.20934
2.98688E+06 4.15482
2.98755E+06 4.15440
2.99000E+06 4.15283
2.99000E+06 4.15283
2.99685E+06 4.14844
2.99690E+06 4.14840
2.99695E+06 4.14837
3.00000E+06 4.14642
3.00781E+06 4.14283
3.01515E+06 4.13946
3.01563E+06 4.13924
3.02344E+06 4.13566
3.03030E+06 4.13253
3.03120E+06 4.13212
3.03125E+06 4.13209
3.03160E+06 4.13193
3.03190E+06 4.13179
3.03292E+06 4.13134
3.03906E+06 4.12854
3.04000E+06 4.12811
3.04688E+06 4.12499
3.05469E+06 4.12145
3.06250E+06 4.11791
3.07031E+06 4.11439
3.07813E+06 4.11088
3.07813E+06 4.11088
3.08594E+06 4.10737
3.09375E+06 4.10388
3.09632E+06 4.10273
3.09773E+06 4.10209
3.10156E+06 4.10039
3.10938E+06 4.09690
3.11137E+06 4.09602
3.11719E+06 4.09344
3.12500E+06 4.08998
3.12520E+06 4.08989
3.12523E+06 4.08988
3.13281E+06 4.08653
3.14063E+06 4.08308
3.14080E+06 4.08301
3.14844E+06 4.07965
3.15625E+06 4.07623
3.15637E+06 4.07617
3.16406E+06 4.07281
3.17188E+06 4.06940
3.17193E+06 4.06937
3.17969E+06 4.06600
3.18750E+06 4.06261
3.19531E+06 4.05923
3.19817E+06 4.05799
3.20313E+06 4.05585
3.21094E+06 4.05248
3.21619E+06 4.05022
3.21875E+06 4.04912
3.22371E+06 4.04699
3.22656E+06 4.04577
3.23438E+06 4.04243
3.23686E+06 4.04137
3.24219E+06 4.03910
3.25000E+06 4.03577
3.25781E+06 4.03246
3.26412E+06 4.02978
3.26563E+06 4.02914
3.27344E+06 4.02584
3.27823E+06 4.02382
3.28125E+06 4.02255
3.28906E+06 4.01927
3.29235E+06 4.01789
3.29688E+06 4.01599
3.30469E+06 4.01272
3.30646E+06 4.01198
3.30712E+06 4.01170
3.31250E+06 4.00946
3.32031E+06 4.00620
3.32813E+06 4.00295
3.33147E+06 4.00157
3.33594E+06 3.99971
3.34375E+06 3.99648
3.35156E+06 3.99326
3.35582E+06 3.99151
3.35938E+06 3.99004
3.36719E+06 3.98683
3.37500E+06 3.98363
3.38017E+06 3.98152
3.38281E+06 3.98044
3.39063E+06 3.97725
3.39844E+06 3.97407
3.40452E+06 3.97160
3.40608E+06 3.97097
3.40625E+06 3.97090
3.41362E+06 3.96791
3.41406E+06 3.96773
3.42188E+06 3.96457
3.42969E+06 3.96142
3.43750E+06 3.95828
3.43886E+06 3.95774
3.44531E+06 3.95515
3.45313E+06 3.95202
3.46094E+06 3.94890
3.46410E+06 3.94765
3.46875E+06 3.94579
3.47656E+06 3.94268
3.48205E+06 3.94050
3.48438E+06 3.93958
3.49219E+06 3.93649
3.50000E+06 3.93340
3.50000E+06 3.93340
3.50781E+06 3.93146
3.51563E+06 3.92952
3.51765E+06 3.92903
3.52344E+06 3.92759
3.53125E+06 3.92567
3.53530E+06 3.92467
3.53610E+06 3.92447
3.53680E+06 3.92430
3.53760E+06 3.92411
3.53906E+06 3.92375
3.54688E+06 3.92182
3.55469E+06 3.91990
3.55842E+06 3.91899
3.56250E+06 3.91799
3.57031E+06 3.91608
3.57813E+06 3.91417
3.57924E+06 3.91390
3.58087E+06 3.91351
3.58594E+06 3.91227
3.59375E+06 3.91038
3.60023E+06 3.90881
3.60156E+06 3.90849
3.60938E+06 3.90660
3.61719E+06 3.90471
3.61959E+06 3.90414
3.62153E+06 3.90367
3.62500E+06 3.90283
3.63281E+06 3.90096
3.64040E+06 3.89914
3.64063E+06 3.89908
3.64844E+06 3.89722
3.65625E+06 3.89535
3.65927E+06 3.89463
3.66094E+06 3.89424
3.66406E+06 3.89349
3.66458E+06 3.89337
3.67188E+06 3.89164
3.67969E+06 3.88978
3.68056E+06 3.88958
3.68750E+06 3.88794
3.69531E+06 3.88610
3.69653E+06 3.88581
3.70313E+06 3.88425
3.71094E+06 3.88242
3.71251E+06 3.88205
3.71875E+06 3.88059
3.72656E+06 3.87876
3.72848E+06 3.87832
3.72850E+06 3.87831
3.73438E+06 3.87694
3.74219E+06 3.87512
3.75000E+06 3.87330
3.75781E+06 3.87149
3.76563E+06 3.86968
3.77303E+06 3.86797
3.77344E+06 3.86787
3.78125E+06 3.86607
3.78906E+06 3.86428
3.79606E+06 3.86267
3.79688E+06 3.86248
3.80469E+06 3.86069
3.81250E+06 3.85891
3.81908E+06 3.85740
3.82031E+06 3.85712
3.82813E+06 3.85534
3.83594E+06 3.85357
3.84211E+06 3.85217
3.84375E+06 3.85180
3.85156E+06 3.85003
3.85938E+06 3.84827
3.86185E+06 3.84771
3.86719E+06 3.84651
3.87500E+06 3.84475
3.88158E+06 3.84327
3.88281E+06 3.84300
3.89063E+06 3.84125
3.89844E+06 3.83950
3.90132E+06 3.83886
3.90625E+06 3.83776
3.91406E+06 3.83602
3.92106E+06 3.83447
3.92188E+06 3.83428
3.92969E+06 3.83255
3.93750E+06 3.83083
3.94079E+06 3.83010
3.94531E+06 3.82910
3.95313E+06 3.82738
3.96053E+06 3.82575
3.96094E+06 3.82566
3.96875E+06 3.82395
3.97656E+06 3.82224
3.98026E+06 3.82143
3.98438E+06 3.82053
3.99219E+06 3.81882
4.00000E+06 3.81712
4.02000E+06 3.81550
4.02000E+06 3.81550
4.03125E+06 3.81459
4.05483E+06 3.81269
4.06250E+06 3.81207
4.09375E+06 3.80957
4.10965E+06 3.80831
4.12500E+06 3.80710
4.15625E+06 3.80465
4.16448E+06 3.80401
4.18750E+06 3.80222
4.21875E+06 3.79981
4.21930E+06 3.79976
4.25000E+06 3.79742
4.27713E+06 3.79536
4.28125E+06 3.79504
4.31250E+06 3.79269
4.33496E+06 3.79101
4.34375E+06 3.79036
4.37500E+06 3.78804
4.39279E+06 3.78673
4.40625E+06 3.78575
4.43750E+06 3.78347
4.45062E+06 3.78252
4.46875E+06 3.78121
4.50000E+06 3.77897
4.51000E+06 3.77944
4.51000E+06 3.77944
4.53125E+06 3.78044
4.54866E+06 3.78126
4.56250E+06 3.78191
4.59375E+06 3.78336
4.59731E+06 3.78353
4.62500E+06 3.78481
4.64597E+06 3.78578
4.65625E+06 3.78625
4.68750E+06 3.78769
4.69462E+06 3.78801
4.71875E+06 3.78911
4.75000E+06 3.79053
4.75897E+06 3.79093
4.78125E+06 3.79194
4.81250E+06 3.79334
4.82331E+06 3.79382
4.84375E+06 3.79473
4.87500E+06 3.79612
4.88766E+06 3.79668
4.90625E+06 3.79750
4.93750E+06 3.79887
4.95200E+06 3.79951
4.96875E+06 3.80024
5.00000E+06 3.80159
5.00000E+06 3.80159
5.06250E+06 3.81195
5.10510E+06 3.81895
5.12500E+06 3.82221
5.18750E+06 3.83235
5.21019E+06 3.83600
5.25000E+06 3.84238
5.31250E+06 3.85230
5.34772E+06 3.85785
5.37500E+06 3.86213
5.43750E+06 3.87185
5.48524E+06 3.87920
5.50000E+06 3.88147
5.50152E+06 3.88170
5.56250E+06 3.89099
5.62500E+06 3.90041
5.66944E+06 3.90706
5.68506E+06 3.90938
5.68750E+06 3.90975
5.75000E+06 3.91899
5.81250E+06 3.92813
5.84253E+06 3.93250
5.87500E+06 3.93719
5.93750E+06 3.94617
6.00000E+06 3.95506
6.02000E+06 3.95886
6.02000E+06 3.95886
6.12500E+06 3.97862
6.25000E+06 4.00173
6.25328E+06 4.00233
6.37500E+06 4.02444
6.39579E+06 4.02817
6.48074E+06 4.04331
6.50000E+06 4.04672
6.62500E+06 4.06862
6.68298E+06 4.07865
6.75000E+06 4.09015
6.87500E+06 4.11132
6.88521E+06 4.11303
6.88694E+06 4.11332
6.88766E+06 4.11345
6.89675E+06 4.11497
6.99205E+06 4.13083
7.00000E+06 4.13214
7.03335E+06 4.13634
7.04000E+06 4.13718
7.04000E+06 4.13718
7.06546E+06 4.14037
7.23762E+06 4.16161
7.29910E+06 4.16908
7.45347E+06 4.18760
7.45430E+06 4.18771
7.45598E+06 4.18791
7.48331E+06 4.19115
7.53044E+06 4.19668
7.53273E+06 4.19695
7.54412E+06 4.19828
7.54566E+06 4.19846
7.54755E+06 4.19867
7.56445E+06 4.20065
7.71054E+06 4.21753
7.71191E+06 4.21769
7.73734E+06 4.22060
7.76637E+06 4.22390
7.89064E+06 4.23795
7.89065E+06 4.23795
8.00000E+06 4.25015
8.00000E+06 4.25015
8.01494E+06 4.25114
8.02988E+06 4.25213
8.04483E+06 4.25311
8.05977E+06 4.25410
8.07471E+06 4.25508
8.08965E+06 4.25606
8.10459E+06 4.25705
8.11954E+06 4.25802
8.13448E+06 4.25900
8.14942E+06 4.25998
8.16436E+06 4.26095
8.17930E+06 4.26193
8.19425E+06 4.26290
8.20919E+06 4.26387
8.22413E+06 4.26484
8.23752E+06 4.26570
8.23907E+06 4.26580
8.26659E+06 4.26758
8.29411E+06 4.26934
8.31543E+06 4.27071
8.33674E+06 4.27208
8.35806E+06 4.27344
8.37937E+06 4.27480
8.38459E+06 4.27513
8.40720E+06 4.27657
8.42982E+06 4.27801
8.45243E+06 4.27944
8.47504E+06 4.28088
8.48528E+06 4.28152
8.50977E+06 4.28305
8.53426E+06 4.28457
8.55875E+06 4.28609
8.58324E+06 4.28760
8.58822E+06 4.28791
8.61632E+06 4.28965
8.64442E+06 4.29138
8.67251E+06 4.29311
8.70061E+06 4.29483
8.73003E+06 4.29662
8.73046E+06 4.29665
8.73143E+06 4.29671
8.73609E+06 4.29700
8.73752E+06 4.29708
8.73885E+06 4.29716
8.78336E+06 4.29987
8.82787E+06 4.30256
8.87175E+06 4.30521
8.91563E+06 4.30785
8.93361E+06 4.30893
8.96681E+06 4.31092
8.99000E+06 4.31230
8.99000E+06 4.31230
9.00000E+06 4.31289
9.06005E+06 4.31388
9.12011E+06 4.31486
9.18016E+06 4.31585
9.24021E+06 4.31683
9.25057E+06 4.31701
9.25523E+06 4.31701
9.31639E+06 4.31727
9.32621E+06 4.31732
9.39440E+06 4.31777
9.39472E+06 4.31777
9.39988E+06 4.31781
9.40010E+06 4.31782
9.47852E+06 4.31856
9.48683E+06 4.31866
9.55576E+06 4.31949
9.62468E+06 4.32049
9.62972E+06 4.32057
9.68488E+06 4.32149
9.74004E+06 4.32252
9.74409E+06 4.32260
9.77649E+06 4.32325
9.78944E+06 4.32351
9.89603E+06 4.32592
9.89837E+06 4.32598
1.00000E+07 4.32865
1.00300E+07 4.32725
1.00300E+07 4.32725
1.01220E+07 4.32325
1.02441E+07 4.31863
1.03661E+07 4.31477
1.04881E+07 4.31164
1.05000E+07 4.31136
1.06108E+07 4.30908
1.07215E+07 4.30740
1.08608E+07 4.30610
1.10000E+07 4.30570
1.10371E+07 4.30311
1.10743E+07 4.30057
1.11114E+07 4.29807
1.11485E+07 4.29563
1.11988E+07 4.29239
1.12491E+07 4.28924
1.12791E+07 4.28740
1.13091E+07 4.28559
1.13391E+07 4.28382
1.13691E+07 4.28208
1.13991E+07 4.28036
1.14291E+07 4.27868
1.14591E+07 4.27703
1.14891E+07 4.27541
1.15000E+07 4.27483
1.15366E+07 4.27290
1.15732E+07 4.27103
1.16097E+07 4.26919
1.16463E+07 4.26740
1.16829E+07 4.26565
1.17195E+07 4.26395
1.17560E+07 4.26229
1.17926E+07 4.26068
1.18321E+07 4.25899
1.18715E+07 4.25734
1.19036E+07 4.25604
1.19358E+07 4.25478
1.19679E+07 4.25354
1.20000E+07 4.25234
1.20000E+07 4.25234
1.21029E+07 4.24351
1.22058E+07 4.23493
1.23087E+07 4.22660
1.24117E+07 4.21851
1.25000E+07 4.21176
1.25146E+07 4.21066
1.26175E+07 4.20305
1.27204E+07 4.19568
1.28233E+07 4.18854
1.28314E+07 4.18799
1.29157E+07 4.18233
1.30000E+07 4.17683
1.31250E+07 4.16276
1.32500E+07 4.14898
1.33750E+07 4.13549
1.35000E+07 4.12229
1.36035E+07 4.11158
1.37069E+07 4.10106
1.38342E+07 4.08839
1.39615E+07 4.07600
1.39800E+07 4.07422
1.39800E+07 4.07422
1.40000E+07 4.07231
1.41806E+07 4.04777
1.43611E+07 4.02377
1.43671E+07 4.02297
1.43694E+07 4.02268
1.45000E+07 4.00566
1.45009E+07 4.00554
1.45019E+07 4.00541
1.45039E+07 4.00514
1.45058E+07 4.00490
1.45078E+07 4.00464
1.45117E+07 4.00413
1.45156E+07 4.00363
1.45195E+07 4.00313
1.45234E+07 4.00261
1.45312E+07 4.00160
1.45390E+07 4.00059
1.45468E+07 3.99958
1.45625E+07 3.99755
1.45781E+07 3.99555
1.45937E+07 3.99354
1.46250E+07 3.98951
1.46562E+07 3.98553
1.46875E+07 3.98152
1.47187E+07 3.97757
1.47500E+07 3.97360
1.47812E+07 3.96967
1.48125E+07 3.96575
1.48750E+07 3.95794
1.49597E+07 3.94745
1.50000E+07 3.94250
1.51852E+07 3.91752
1.54015E+07 3.88890
1.56177E+07 3.86087
1.56321E+07 3.85903
1.56503E+07 3.85670
1.56847E+07 3.85229
1.57274E+07 3.84682
1.58773E+07 3.82782
1.60000E+07 3.81247
1.61365E+07 3.79761
1.61510E+07 3.79604
1.62958E+07 3.78048
1.63869E+07 3.77080
1.64472E+07 3.76441
1.67032E+07 3.73774
1.67033E+07 3.73774
1.67087E+07 3.73718
1.67104E+07 3.73701
1.69056E+07 3.71687
1.69900E+07 3.70828
1.69900E+07 3.70828
1.70000E+07 3.70727
1.72289E+07 3.69000
1.72426E+07 3.68898
1.74015E+07 3.67721
1.79355E+07 3.63888
1.79482E+07 3.63799
1.79483E+07 3.63797
1.80000E+07 3.63437
1.90000E+07 3.56543
2.00000E+07 3.50000