Mo-98(n,tot) ENDF/B-VII.1
Energy(eV) XS(b)
1.00000E-05 12.1732
1.25000E-05 11.4836
1.50000E-05 10.9747
2.00000E-05 10.2602
2.75000E-05 9.58041
3.50000E-05 9.13302
4.25000E-05 8.81004
5.00000E-05 8.56278
6.25000E-05 8.25442
7.50000E-05 8.02679
0.000100000 7.70728
0.000125000 7.48924
0.000150000 7.32828
0.000200000 7.10235
0.000275000 6.88738
0.000350000 6.74591
0.000425000 6.64377
0.000500000 6.56559
0.000625000 6.46807
0.000750000 6.39609
0.00100000 6.29506
0.00125000 6.22611
0.00150000 6.17521
0.00200000 6.10377
0.00275000 6.03580
0.00350000 5.99106
0.00425000 5.95877
0.00500000 5.93405
0.00625000 5.90321
0.00750000 5.88046
0.0100000 5.84851
0.0125000 5.82671
0.0150000 5.81062
0.0200000 5.78804
0.0253000 5.77185
0.0314750 5.75842
0.0376500 5.74845
0.0500000 5.73438
0.0625000 5.72464
0.0750000 5.71744
0.100000 5.70734
0.125000 5.70044
0.150000 5.69535
0.200000 5.68818
0.275000 5.68135
0.350000 5.67684
0.500000 5.67104
0.750000 5.66551
1.00000 5.66214
1.50000 5.65799
2.00000 5.65538
2.75000 5.65279
3.50000 5.65106
5.00000 5.64933
6.25000 5.64982
7.50000 5.65360
8.12500 5.65806
8.75000 5.66608
9.37500 5.68132
9.68750 5.69422
10.0000 5.71369
10.2550 5.73779
10.5100 5.77479
10.7650 5.83552
11.0200 5.94496
11.1475 6.03573
11.2750 6.17194
11.4025 6.38949
11.5300 6.76791
11.6575 7.51309
11.7213 8.18959
11.7850 9.29942
11.8488 11.2986
11.8806 12.9521
11.9125 15.4144
11.9444 19.2793
11.9763 25.7304
12.0081 37.2472
12.0400 58.5705
12.0700 90.4394
12.1000 111.773
12.1300 90.6497
12.1600 58.8334
12.1906 38.0965
12.2213 26.6141
12.2519 20.0495
12.2825 16.0625
12.3131 13.4938
12.3438 11.7558
12.4050 9.63514
12.4663 8.44679
12.5275 7.71720
12.6500 6.90704
12.7725 6.49168
12.8950 6.25087
13.0175 6.09889
13.1400 5.99682
13.3850 5.87236
13.6300 5.80210
13.8750 5.75846
14.1200 5.72942
14.6100 5.69420
15.1000 5.67424
16.0800 5.65313
17.0600 5.64227
18.0400 5.63557
20.0000 5.62729
21.8750 5.62201
23.7500 5.61781
27.5000 5.61080
35.0000 5.59868
50.0000 5.57609
75.0000 5.53839
100.000 5.49903
150.000 5.41181
200.000 5.30638
250.485 5.16734
300.970 4.96573
326.212 4.82132
351.454 4.62445
364.076 4.49557
376.697 4.33685
383.007 4.24316
389.318 4.13855
392.473 4.08293
395.629 4.02911
397.206 4.00850
397.995 4.00390
398.784 4.00911
399.573 4.03922
399.967 4.07738
400.362 4.15329
400.559 4.21952
400.756 4.32185
400.953 4.48980
401.150 4.79052
401.249 5.03775
401.348 5.40515
401.446 5.98402
401.545 6.97133
401.643 8.85758
401.693 10.5162
401.742 13.1472
401.791 17.6589
401.841 26.2503
401.865 33.6911
401.890 45.0406
401.915 63.1270
401.939 91.9480
401.970 144.785
402.000 180.008
402.030 144.787
402.061 91.9495
402.088 60.7923
402.115 42.2516
402.142 31.0346
402.170 23.9326
402.224 15.9577
402.278 11.8878
402.333 9.55658
402.387 8.10448
402.496 6.47154
402.605 5.62307
402.713 5.12766
402.822 4.81278
402.931 4.60037
403.148 4.33926
403.366 4.18999
403.801 4.03171
404.236 3.95075
404.671 3.90122
405.541 3.84048
407.281 3.76821
409.021 3.71348
412.501 3.61606
415.981 3.52947
419.462 3.47626
421.202 3.48703
422.942 3.56504
423.812 3.65674
424.682 3.81798
425.552 4.10922
426.422 4.67270
426.857 5.16013
427.292 5.91221
427.727 7.14988
428.162 9.38262
428.379 11.2350
428.597 14.0145
428.814 18.4542
429.032 26.1808
429.249 41.4221
429.358 55.3014
429.467 78.1247
429.576 119.506
429.630 153.945
429.684 205.468
429.739 287.187
429.793 425.461
429.848 677.111
429.902 1154.51
429.951 1848.77
430.000 2312.76
430.049 1848.42
430.098 1154.25
430.135 800.489
430.171 571.051
430.208 421.736
430.245 321.749
430.318 202.986
430.391 139.031
430.464 101.114
430.537 76.9322
430.684 49.1145
430.830 34.3842
430.977 25.6727
431.123 20.1020
431.269 16.3287
431.562 11.6849
431.855 9.04396
432.148 7.39686
432.440 6.29843
433.026 4.96179
433.612 4.20153
434.197 3.71956
434.783 3.38816
435.954 2.95664
437.125 2.67581
439.467 2.28881
441.809 1.98426
444.151 1.70136
448.836 1.14480
451.178 0.889027
453.520 0.708186
454.691 0.683968
455.277 0.700990
455.862 0.745212
456.448 0.824787
456.741 0.881069
457.033 0.950461
457.326 1.03494
457.619 1.13668
458.204 1.40298
458.790 1.77633
459.375 2.29412
459.961 3.00986
460.547 4.00073
461.132 5.38215
461.718 7.32951
462.303 10.1215
462.889 14.2138
463.474 20.3957
464.060 30.1064
464.645 46.1930
465.231 74.8376
465.524 97.9643
465.817 131.445
466.109 181.974
466.402 262.318
466.695 399.098
466.988 653.045
467.134 865.271
467.280 1178.53
467.427 1651.63
467.573 2365.97
467.787 3906.38
468.000 5036.57
468.214 4154.50
468.428 2676.16
468.675 1590.08
468.921 1017.96
469.168 702.414
469.415 514.606
469.661 394.784
469.908 313.977
470.401 215.092
470.895 159.028
471.388 124.024
472.375 84.0535
473.361 62.6618
474.348 49.7113
475.334 41.1825
476.321 35.2134
478.294 27.5167
480.268 22.8406
482.241 19.7354
484.214 17.5399
488.161 14.6643
492.107 12.8791
496.054 11.6701
500.000 10.8000
507.056 9.73353
514.112 9.02679
521.168 8.52473
528.224 8.14991
542.336 7.62769
556.448 7.28130
570.560 7.03574
577.616 6.93919
584.672 6.85764
591.728 6.79328
595.256 6.77110
598.784 6.76225
600.548 6.76728
602.312 6.78426
604.076 6.82326
605.840 6.90827
606.722 6.98571
607.604 7.10855
608.486 7.31569
609.368 7.69859
609.809 8.02252
610.250 8.51692
610.691 9.32377
611.132 10.7703
611.352 11.9663
611.573 13.7568
611.793 16.6101
612.014 21.5620
612.234 31.2901
612.345 40.1104
612.455 54.5460
612.565 80.5292
612.620 101.966
612.675 133.851
612.730 183.795
612.785 266.993
612.841 415.025
612.896 688.199
612.948 1098.61
613.000 1372.94
613.052 1099.37
613.104 689.212
613.155 433.720
613.205 287.934
613.255 202.328
613.305 149.484
613.356 114.938
613.406 91.3812
613.506 62.3365
613.607 45.9136
613.707 35.7728
613.908 24.4566
614.109 18.6320
614.310 15.2491
614.511 13.1128
614.712 11.6788
615.114 9.93107
615.516 8.94697
615.918 8.33795
616.320 7.93460
617.124 7.44882
617.928 7.17722
618.732 7.00890
619.536 6.89654
621.144 6.75835
622.752 6.67747
624.360 6.62413
625.968 6.58573
629.183 6.53220
632.399 6.49438
635.615 6.46443
638.831 6.43901
645.262 6.39598
651.694 6.35915
664.557 6.29615
677.420 6.24237
690.283 6.19506
716.010 6.11467
741.736 6.04847
754.599 6.01983
767.462 5.99437
780.325 5.97357
786.757 5.96649
793.188 5.96434
796.404 5.96689
799.620 5.97412
802.836 5.99005
806.051 6.02423
807.659 6.05526
809.267 6.10450
810.875 6.18769
812.483 6.34231
813.287 6.47396
814.091 6.67625
814.895 7.00976
815.699 7.61684
816.101 8.12680
816.503 8.90259
816.905 10.1664
817.307 12.4314
817.508 14.3065
817.709 17.1194
817.910 21.6157
818.111 29.4539
818.312 44.9913
818.412 59.2079
818.513 82.7482
818.613 125.780
818.663 161.969
818.714 216.631
818.764 304.510
818.814 455.686
818.864 738.182
818.915 1295.01
818.957 2070.81
819.000 2586.89
819.043 2068.87
819.086 1295.11
819.130 786.690
819.174 507.588
819.218 349.166
819.262 253.564
819.306 192.053
819.351 150.545
819.439 100.116
819.527 71.9180
819.616 54.6720
819.792 35.5751
819.969 25.8148
820.146 20.1763
820.322 16.6299
820.499 14.2572
820.852 11.3765
821.206 9.76254
821.559 8.76793
821.912 8.11227
822.619 7.32836
823.326 6.89523
824.032 6.63074
824.739 6.45730
826.153 6.25068
827.566 6.13645
828.979 6.06626
830.393 6.01971
833.220 5.96285
836.046 5.92978
838.873 5.90803
841.700 5.89235
847.354 5.87035
853.007 5.85454
858.661 5.84173
864.314 5.83060
875.621 5.81104
886.929 5.79347
909.543 5.76132
932.157 5.73140
954.771 5.70280
1000.00 5.64782
1030.98 5.61084
1061.97 5.57375
1077.46 5.55510
1092.95 5.53667
1100.70 5.52809
1108.44 5.52168
1112.32 5.52161
1114.25 5.52408
1116.19 5.53073
1118.13 5.54800
1119.10 5.56657
1120.06 5.60161
1120.55 5.63164
1121.03 5.67793
1121.52 5.75433
1122.00 5.89331
1122.24 6.00981
1122.48 6.18656
1122.73 6.47332
1122.97 6.98407
1123.09 7.40396
1123.21 8.02953
1123.33 9.02007
1123.45 10.7241
1123.57 14.0274
1123.63 17.0092
1123.69 21.7418
1123.75 30.2121
1123.81 46.7185
1123.85 62.1404
1123.88 86.0948
1123.91 126.187
1123.94 194.576
1123.97 309.390
1124.00 382.675
1124.03 305.801
1124.07 194.717
1124.09 135.366
1124.12 97.2918
1124.14 72.7651
1124.16 57.0143
1124.21 37.5674
1124.26 27.3634
1124.31 21.2066
1124.36 17.3690
1124.46 12.9417
1124.56 10.5726
1124.66 9.17529
1124.76 8.28362
1124.86 7.68547
1125.05 6.94317
1125.25 6.52445
1125.45 6.26301
1125.65 6.09043
1126.04 5.88214
1126.44 5.76623
1126.83 5.69505
1127.22 5.64823
1128.01 5.59190
1128.80 5.56048
1130.38 5.52776
1131.96 5.51129
1133.54 5.50130
1136.70 5.48911
1143.02 5.47474
1149.33 5.46393
1161.96 5.44449
1174.60 5.42537
1199.86 5.38554
1225.13 5.34213
1275.66 5.23880
1326.19 5.09855
1376.73 4.88448
1401.99 4.72317
1427.26 4.49185
1439.89 4.33272
1452.52 4.12722
1465.16 3.85101
1477.79 3.45968
1484.11 3.19606
1490.42 2.86445
1496.74 2.43709
1503.06 1.87437
1506.21 1.52808
1509.37 1.13660
1512.53 0.718797
1515.69 0.364315
1516.48 0.315690
1517.27 0.301213
1517.66 0.311717
1518.06 0.337604
1518.45 0.382293
1518.85 0.449799
1519.24 0.545689
1519.64 0.676366
1520.03 0.850059
1520.43 1.07655
1521.22 1.74798
1522.00 2.85024
1522.79 4.66852
1523.58 7.71907
1524.37 13.0437
1525.16 22.8704
1525.56 30.9531
1525.95 42.7363
1526.35 60.5455
1526.74 88.6177
1527.14 135.696
1527.53 220.279
1527.73 288.553
1527.93 385.182
1528.12 524.487
1528.32 724.705
1528.66 1235.34
1529.00 1640.28
1529.34 1384.98
1529.68 911.271
1530.07 557.455
1530.46 366.758
1530.84 259.590
1531.23 194.754
1531.62 152.817
1532.01 124.158
1532.78 88.5097
1533.56 67.8669
1534.34 54.7323
1535.89 39.3737
1537.44 30.9074
1538.99 25.6489
1540.54 22.1078
1542.10 19.5816
1545.20 16.2416
1548.30 14.1534
1551.41 12.7326
1554.51 11.7079
1560.72 10.3333
1566.92 9.45677
1573.13 8.85056
1579.34 8.40675
1591.75 7.80074
1604.17 7.40626
1616.58 7.12863
1628.99 6.92228
1653.82 6.63499
1678.65 6.44323
1703.48 6.30500
1728.31 6.19973
1777.97 6.04765
1827.62 5.94026
1852.45 5.89670
1877.28 5.85797
1889.69 5.84022
1902.11 5.82385
1908.31 5.81671
1914.52 5.81201
1917.63 5.81284
1920.73 5.82268
1922.28 5.83990
1923.06 5.85808
1923.83 5.89204
1924.61 5.96537
1925.00 6.03830
1925.38 6.17022
1925.58 6.28025
1925.77 6.44643
1925.97 6.71441
1926.16 7.18768
1926.26 7.57350
1926.35 8.14366
1926.45 9.03656
1926.55 10.5486
1926.65 13.4085
1926.69 15.9295
1926.74 19.8051
1926.79 26.4931
1926.84 38.6677
1926.86 48.8677
1926.89 64.0227
1926.91 87.1475
1926.94 122.469
1926.97 192.771
1927.00 237.422
1927.03 190.541
1927.07 120.739
1927.10 73.4319
1927.14 48.3895
1927.17 34.5495
1927.21 26.5147
1927.25 21.2493
1927.28 17.8150
1927.35 13.5905
1927.42 11.2186
1927.49 9.79580
1927.64 8.22383
1927.78 7.41811
1927.92 6.95704
1928.06 6.66535
1928.21 6.47168
1928.49 6.23585
1928.78 6.10371
1929.35 5.96845
1929.92 5.90392
1930.49 5.86801
1931.63 5.83112
1933.90 5.80253
1936.18 5.79059
1940.74 5.77844
1945.30 5.77063
1963.53 5.74711
1981.77 5.72633
2000.00 5.70663
2012.97 5.69345
2019.45 5.68857
2022.70 5.69234
2024.32 5.71764
2024.72 5.74393
2025.13 5.81520
2025.33 5.90821
2025.53 6.14336
2025.64 6.42989
2025.74 7.07761
2025.79 7.76911
2025.84 9.06332
2025.86 10.2343
2025.89 11.9727
2025.91 14.7360
2025.94 19.3283
2025.97 27.4184
2026.00 32.9765
2026.03 27.4086
2026.06 19.3161
2026.08 15.6088
2026.10 13.1251
2026.14 10.1701
2026.18 8.62637
2026.21 7.74429
2026.29 6.84317
2026.37 6.42123
2026.52 6.05409
2026.67 5.90398
2026.98 5.78498
2027.28 5.73997
2027.89 5.70575
2028.50 5.69294
2030.93 5.67839
2035.80 5.67039
2045.54 5.65986
2065.01 5.64047
2103.96 5.60322
2123.43 5.58577
2142.90 5.57155
2152.64 5.56911
2157.51 5.57164
2162.38 5.58049
2167.25 5.60541
2169.68 5.63295
2172.12 5.68555
2173.33 5.73093
2174.55 5.80112
2175.77 5.91734
2176.98 6.12946
2177.59 6.30790
2178.20 6.57875
2178.81 7.02008
2179.42 7.80758
2179.72 8.45950
2180.03 9.43103
2180.33 10.9756
2180.63 13.6481
2180.94 18.9002
2181.09 23.6301
2181.24 31.3463
2181.40 45.1375
2181.47 56.4548
2181.55 73.1889
2181.62 99.1914
2181.70 142.024
2181.78 217.035
2181.85 352.604
2181.93 562.673
2182.00 700.398
2182.08 559.910
2182.15 352.907
2182.22 225.369
2182.29 152.240
2182.36 108.623
2182.43 81.2892
2182.56 50.8895
2182.70 35.5122
2182.84 26.7529
2182.98 21.3174
2183.25 15.2241
2183.53 12.0749
2183.81 10.2413
2184.08 9.08164
2184.36 8.30215
2184.91 7.35086
2185.46 6.81637
2186.02 6.48581
2186.57 6.26712
2187.67 6.00442
2188.78 5.85859
2189.88 5.76892
2190.99 5.70976
2193.19 5.63841
2195.40 5.59810
2199.82 5.55513
2204.24 5.53239
2208.66 5.51767
2217.49 5.49788
2235.16 5.47021
2252.83 5.44610
2270.51 5.42205
2288.18 5.39690
2323.52 5.34065
2358.86 5.27167
2376.53 5.22983
2394.20 5.18093
2411.87 5.12250
2420.71 5.08872
2429.55 5.05135
2438.38 5.01045
2447.22 4.96898
2451.63 4.95357
2453.84 4.95158
2456.05 4.95996
2458.26 4.99554
2459.37 5.03914
2460.47 5.12557
2461.02 5.20146
2461.58 5.31933
2462.13 5.51474
2462.68 5.86990
2462.96 6.16623
2463.23 6.61297
2463.51 7.33047
2463.78 8.58805
2464.06 11.0938
2464.20 13.3974
2464.34 17.2293
2464.47 24.2780
2464.54 30.2353
2464.61 39.3061
2464.68 53.9779
2464.75 79.5607
2464.82 128.203
2464.85 169.471
2464.89 226.317
2464.94 359.816
2465.00 446.570
2465.06 357.796
2465.11 224.965
2465.16 156.681
2465.20 112.650
2465.24 84.1339
2465.29 65.4743
2465.37 42.7807
2465.46 30.7231
2465.54 23.4924
2465.63 18.9369
2465.80 13.6811
2465.97 10.8767
2466.14 9.21833
2466.31 8.15769
2466.48 7.44212
2466.82 6.55574
2467.16 6.05247
2467.51 5.73729
2467.85 5.52749
2468.53 5.27175
2469.21 5.12643
2470.58 4.97199
2471.94 4.89146
2473.31 4.84056
2476.04 4.77413
2481.50 4.68297
2486.97 4.60001
2492.43 4.51042
2497.89 4.40774
2508.82 4.13877
2514.28 3.95503
2519.74 3.71918
2525.21 3.40518
2530.67 2.96761
2533.40 2.67861
2536.13 2.32304
2538.87 1.88026
2541.60 1.33243
2542.96 1.02288
2544.33 0.711578
2545.69 0.460911
2546.38 0.407489
2547.06 0.461281
2547.40 0.555173
2547.74 0.716046
2548.08 0.970978
2548.43 1.35602
2548.77 1.92886
2549.11 2.76936
2549.45 4.00736
2549.79 5.84818
2550.13 8.64288
2550.47 12.9703
2550.82 19.9563
2551.16 31.7251
2551.50 53.0253
2551.67 70.2621
2551.84 94.8842
2552.01 131.550
2552.18 187.203
2552.35 274.990
2552.52 412.465
2552.76 713.381
2553.00 959.462
2553.24 824.099
2553.48 552.507
2553.73 358.633
2553.98 246.436
2554.22 179.964
2554.47 138.222
2554.72 110.482
2554.97 91.1332
2555.46 66.5790
2555.96 52.0061
2556.45 42.5854
2557.45 31.3967
2558.44 25.1162
2559.43 21.1708
2560.42 18.4878
2561.41 16.5577
2563.39 13.9836
2565.38 12.3583
2567.36 11.2448
2569.34 10.4372
2573.31 9.34639
2577.27 8.64636
2581.24 8.15971
2585.20 7.80229
2593.13 7.31296
2597.10 7.13870
2601.07 6.99598
2605.03 6.87921
2609.00 6.79049
2610.98 6.76551
2611.97 6.76503
2612.96 6.78314
2613.95 6.84661
2614.45 6.91984
2614.95 7.06018
2615.19 7.18090
2615.44 7.36612
2615.69 7.66878
2615.94 8.20679
2616.06 8.65038
2616.18 9.31030
2616.31 10.3522
2616.43 12.1360
2616.56 15.5654
2616.62 18.6020
2616.68 23.4550
2616.74 31.8685
2616.80 48.1654
2616.84 62.4980
2616.87 84.8432
2616.90 121.132
2616.93 180.058
2616.96 284.497
2617.00 353.316
2617.04 284.504
2617.07 179.827
2617.11 107.396
2617.15 69.2783
2617.20 48.5425
2617.24 36.3748
2617.28 28.7307
2617.32 23.6513
2617.40 17.6231
2617.48 14.2553
2617.56 12.2354
2617.73 9.99853
2617.89 8.86308
2618.05 8.20893
2618.21 7.79773
2618.38 7.52220
2618.70 7.18647
2619.03 6.99632
2619.68 6.79701
2620.33 6.69691
2620.99 6.63701
2622.29 6.56658
2624.90 6.49106
2627.51 6.44148
2632.72 6.36579
2637.94 6.30414
2643.15 6.25086
2648.37 6.20381
2658.80 6.12374
2679.67 6.00187
2700.53 5.91199
2742.26 5.78434
2783.99 5.69331
2825.72 5.62058
2867.45 5.55724
2909.18 5.49843
2930.05 5.47215
2935.26 5.46830
2940.48 5.47141
2943.09 5.48272
2945.70 5.52225
2947.00 5.58070
2947.65 5.63990
2948.30 5.74827
2948.96 5.97805
2949.28 6.20334
2949.61 6.60519
2949.77 6.93580
2949.93 7.42854
2950.10 8.20885
2950.26 9.55095
2950.42 12.1506
2950.50 14.4884
2950.59 18.2096
2950.67 24.8252
2950.75 37.7259
2950.79 49.4423
2950.83 68.1556
2950.87 99.5360
2950.91 151.640
2950.96 240.468
2951.00 298.228
2951.04 240.744
2951.09 151.989
2951.13 101.873
2951.17 70.8293
2951.21 51.9030
2951.24 39.8559
2951.32 26.2606
2951.40 19.3570
2951.48 15.3276
2951.55 12.8413
2951.71 10.0119
2951.87 8.53261
2952.02 7.67427
2952.18 7.12933
2952.33 6.76195
2952.64 6.31163
2952.95 6.05809
2953.57 5.79610
2954.19 5.67026
2954.81 5.59996
2956.06 5.52768
2958.54 5.47219
2961.02 5.44982
2965.99 5.42867
2970.95 5.41622
2990.82 5.38042
3010.68 5.34688
3030.55 5.31158
3070.28 5.23088
3110.00 5.12782
3149.73 4.98359
3169.60 4.88444
3189.46 4.75490
3209.32 4.57639
3219.26 4.45842
3229.19 4.31167
3239.12 4.12385
3249.05 3.87506
3254.02 3.71855
3256.50 3.63046
3258.98 3.53582
3261.47 3.43706
3263.95 3.34787
3265.19 3.32781
3265.81 3.33942
3266.43 3.38774
3267.05 3.52848
3267.37 3.68381
3267.68 3.97434
3267.99 4.59191
3268.14 5.18472
3268.30 6.21186
3268.45 8.21235
3268.53 10.0178
3268.61 12.8959
3268.68 18.0279
3268.76 28.0591
3268.80 37.2022
3268.84 51.8524
3268.88 76.5275
3268.92 117.942
3268.96 186.776
3269.00 233.212
3269.04 187.020
3269.08 118.244
3269.12 82.8495
3269.15 60.0604
3269.18 44.7849
3269.21 34.9048
3269.27 22.9766
3269.34 16.5719
3269.40 12.7813
3269.46 10.3657
3269.59 7.60244
3269.71 6.12190
3269.84 5.24947
3270.09 4.30037
3270.34 3.81868
3270.59 3.53865
3271.09 3.23089
3271.60 3.06293
3272.10 2.95223
3273.10 2.79918
3275.11 2.57347
3277.12 2.36289
3281.14 1.89500
3285.16 1.32124
3287.17 0.992075
3289.17 0.650772
3291.18 0.349317
3292.19 0.255869
3293.19 0.252678
3293.70 0.308417
3294.20 0.422329
3294.70 0.617481
3295.20 0.927024
3295.70 1.40081
3296.21 2.11031
3296.71 3.16929
3297.21 4.75756
3297.71 7.17785
3298.22 10.9337
3298.72 16.9609
3299.22 27.0681
3299.72 45.0984
3299.97 59.4372
3300.22 79.7459
3300.48 109.248
3300.73 153.212
3300.98 220.076
3301.23 321.856
3301.61 562.451
3302.00 765.189
3302.39 663.829
3302.77 448.874
3303.02 344.545
3303.26 269.135
3303.75 176.288
3304.24 125.458
3304.73 95.2436
3305.22 75.8043
3305.71 62.5809
3306.69 46.1023
3307.67 36.4854
3308.65 30.3111
3310.60 22.9924
3312.56 18.8763
3314.52 16.2755
3316.48 14.4962
3318.43 13.2084
3322.35 11.4772
3326.26 10.3728
3330.18 9.60957
3334.09 9.05172
3341.92 8.29172
3349.75 7.79893
3357.58 7.45353
3365.41 7.19797
3381.07 6.84463
3396.73 6.61133
3412.39 6.44521
3428.04 6.32045
3459.36 6.14439
3490.68 6.02480
3553.31 5.86926
3615.95 5.76903
3647.27 5.73023
3678.58 5.69658
3709.90 5.66725
3725.56 5.65426
3741.22 5.64278
3756.88 5.63403
3772.54 5.63311
3780.37 5.64272
3784.28 5.65525
3788.20 5.68046
3792.11 5.73744
3794.07 5.79538
3796.03 5.90178
3797.00 5.99169
3797.98 6.12904
3798.96 6.35394
3799.94 6.75950
3800.43 7.09833
3800.92 7.60933
3801.41 8.43427
3801.90 9.89466
3802.14 11.0917
3802.39 12.8679
3802.63 15.6660
3802.88 20.4202
3803.12 29.5626
3803.24 37.5969
3803.37 50.3781
3803.49 72.6366
3803.61 115.130
3803.67 152.179
3803.73 209.451
3803.79 301.451
3803.85 450.815
3803.93 717.846
3804.00 895.708
3804.07 717.363
3804.15 450.232
3804.20 314.645
3804.25 227.620
3804.31 169.477
3804.36 131.056
3804.47 84.6425
3804.57 59.5149
3804.68 44.5679
3804.79 35.0144
3805.00 24.0395
3805.22 18.1845
3805.43 14.7342
3805.64 12.5162
3805.86 11.0203
3806.28 9.17454
3806.71 8.13087
3807.14 7.48279
3807.56 7.05311
3808.42 6.53647
3809.27 6.25026
3810.13 6.07497
3810.98 5.96010
3812.69 5.82330
3814.40 5.74791
3817.82 5.67143
3821.24 5.63470
3824.65 5.61371
3831.49 5.59058
3845.16 5.56836
3858.83 5.55487
3886.17 5.53424
3913.51 5.51629
3968.19 5.48418
3981.86 5.47772
3995.53 5.47457
4002.37 5.47755
4009.20 5.49365
4012.62 5.51979
4014.33 5.54698
4016.04 5.59751
4017.75 5.70656
4018.60 5.81523
4019.46 6.01206
4019.89 6.17708
4020.31 6.42644
4020.74 6.82995
4021.17 7.54610
4021.38 8.13447
4021.59 9.00402
4021.81 10.3814
4022.02 12.7246
4022.23 17.2446
4022.34 21.2470
4022.45 27.5679
4022.55 38.5983
4022.66 59.9418
4022.72 78.9094
4022.77 107.902
4022.82 154.726
4022.87 232.948
4022.94 368.496
4023.00 460.678
4023.06 368.636
4023.13 233.125
4023.18 151.578
4023.24 104.053
4023.30 74.8884
4023.35 56.8058
4023.46 36.3373
4023.58 25.9212
4023.69 19.9661
4023.80 16.2618
4024.03 12.1002
4024.26 9.94505
4024.48 8.68879
4024.71 7.89362
4024.93 7.35887
4025.39 6.70681
4025.84 6.33951
4026.29 6.11237
4026.74 5.96242
4027.64 5.78207
4028.55 5.68208
4030.35 5.58029
4032.16 5.53179
4033.97 5.50466
4037.58 5.47631
4044.81 5.45301
4052.04 5.44196
4066.50 5.42847
4080.95 5.41810
4138.78 5.38093
4167.69 5.36202
4196.61 5.34215
4254.44 5.29739
4312.26 5.23958
4341.18 5.20072
4370.09 5.14861
4399.00 5.07020
4413.46 5.01149
4427.92 4.92714
4435.15 4.86869
4442.37 4.79246
4449.60 4.68825
4456.83 4.53633
4460.45 4.43054
4464.06 4.29274
4467.67 4.10561
4471.29 3.83686
4473.10 3.65333
4474.90 3.41924
4476.71 3.11134
4478.52 2.69148
4479.42 2.42125
4480.32 2.09865
4481.23 1.71543
4482.13 1.28365
4483.03 0.911413
4483.49 0.895062
4483.71 1.00897
4483.94 1.27750
4484.16 1.81248
4484.39 2.81553
4484.50 3.60389
4484.62 4.68326
4484.73 6.17345
4484.84 8.25609
4484.95 11.2146
4485.07 15.5063
4485.18 21.8977
4485.29 31.7295
4485.41 47.4582
4485.52 73.7849
4485.63 119.891
4485.74 201.375
4485.87 356.291
4486.00 490.623
4486.13 430.826
4486.26 294.551
4486.35 220.869
4486.44 169.941
4486.53 134.258
4486.62 109.332
4486.80 77.5645
4486.98 59.0940
4487.16 47.4018
4487.34 39.4972
4487.70 29.7276
4488.07 24.0280
4488.43 20.3659
4488.79 17.8412
4489.15 16.0122
4489.87 13.5451
4490.60 11.9774
4491.32 10.8971
4492.04 10.1122
4493.49 9.04956
4494.94 8.36666
4496.39 7.89196
4497.83 7.54351
4500.73 7.06615
4503.62 6.75511
4506.51 6.53632
4509.41 6.37413
4515.19 6.14957
4520.98 6.00144
4532.55 5.81832
4538.34 5.75836
4544.13 5.71172
4549.91 5.67604
4555.70 5.65146
4561.49 5.64329
4564.38 5.65132
4567.28 5.67764
4570.17 5.74834
4571.62 5.82428
4573.06 5.96634
4573.79 6.08730
4574.51 6.27208
4575.23 6.57462
4575.96 7.11743
4576.32 7.56776
4576.68 8.24383
4577.04 9.32551
4577.40 11.2077
4577.77 14.9511
4577.95 18.3829
4578.13 24.0370
4578.31 34.4454
4578.40 43.2730
4578.49 56.5262
4578.58 78.1255
4578.67 115.161
4578.76 184.744
4578.85 322.829
4578.93 513.411
4579.00 637.687
4579.08 510.354
4579.15 320.266
4579.22 207.354
4579.29 141.565
4579.36 101.797
4579.43 76.6249
4579.56 48.3595
4579.70 33.9345
4579.83 25.6730
4579.97 20.5283
4580.24 14.7433
4580.51 11.7375
4580.79 9.99315
4581.06 8.88885
4581.33 8.14620
4581.88 7.23958
4582.42 6.73017
4582.96 6.41510
4583.51 6.20661
4584.60 5.95595
4585.68 5.81643
4587.86 5.67295
4590.04 5.60283
4592.22 5.56211
4596.57 5.51637
4605.28 5.47171
4613.99 5.44541
4631.41 5.40890
4648.82 5.38116
4666.24 5.35792
4683.66 5.33757
4718.49 5.30253
4753.33 5.27246
4788.16 5.24646
4805.58 5.23605
4823.00 5.23149
4831.71 5.23692
4836.06 5.24561
4840.42 5.26419
4844.77 5.30764
4846.95 5.35250
4849.13 5.43555
4850.22 5.50602
4851.30 5.61383
4852.39 5.79088
4853.48 6.11075
4854.03 6.37820
4854.57 6.78184
4855.11 7.43370
4855.66 8.58778
4855.93 9.53537
4856.20 10.9357
4856.47 13.1379
4856.75 16.8907
4857.02 24.0604
4857.15 30.3691
4857.29 40.3872
4857.43 57.5966
4857.56 90.4639
4857.63 118.949
4857.70 162.717
4857.77 232.468
4857.83 344.645
4857.92 548.347
4858.00 684.130
4858.08 548.244
4858.17 344.530
4858.24 229.800
4858.31 160.251
4858.38 116.355
4858.44 88.3904
4858.58 56.0599
4858.72 39.3324
4858.86 29.5488
4859.00 23.4444
4859.28 16.4890
4859.55 12.8549
4859.83 10.7247
4860.11 9.37140
4860.38 8.45891
4860.94 7.34353
4861.49 6.71391
4862.05 6.32411
4862.60 6.06617
4863.71 5.75668
4864.82 5.58504
4865.92 5.47991
4867.03 5.41078
4869.25 5.32807
4871.46 5.28204
4875.90 5.23434
4880.33 5.21040
4884.76 5.19589
4893.63 5.17820
4911.35 5.15726
4929.08 5.14149
5000.00 5.08564
5035.21 5.05768
5070.42 5.02868
5105.63 4.99836
5140.84 4.96662
5176.05 4.93400
5193.65 4.91818
5211.25 4.90430
5228.86 4.89679
5237.66 4.89964
5246.46 4.91403
5250.86 4.93021
5255.27 4.95825
5259.67 5.00856
5264.07 5.10587
5266.27 5.19032
5268.47 5.32124
5270.67 5.53841
5272.87 5.93444
5273.97 6.26704
5275.07 6.77120
5276.17 7.58824
5277.27 9.03984
5277.82 10.2322
5278.37 12.0003
5278.92 14.7872
5279.47 19.5485
5280.02 28.6759
5280.30 36.7330
5280.57 49.5672
5280.85 71.7085
5281.12 114.264
5281.26 151.550
5281.40 208.780
5281.53 301.420
5281.67 450.711
5281.84 719.080
5282.00 896.640
5282.17 718.025
5282.33 450.250
5282.48 294.751
5282.62 201.931
5282.76 145.193
5282.91 108.982
5283.20 67.8944
5283.48 46.8573
5283.77 34.7106
5284.06 27.1484
5284.64 18.6082
5285.21 14.1569
5285.79 11.5584
5286.37 9.90662
5286.94 8.79544
5288.10 7.43571
5289.25 6.66738
5290.40 6.19080
5291.56 5.87462
5293.86 5.49346
5296.17 5.28020
5298.47 5.14809
5300.78 5.05998
5305.39 4.95181
5310.00 4.88862
5314.62 4.84692
5319.23 4.81674
5328.45 4.77389
5337.68 4.74221
5356.12 4.69088
5374.57 4.64359
5393.02 4.59504
5411.47 4.54442
5420.69 4.52597
5425.30 4.54933
5426.46 4.58324
5427.61 4.68213
5428.19 4.81707
5428.76 5.17978
5429.05 5.65150
5429.20 6.09321
5429.34 6.84608
5429.48 8.28655
5429.56 9.55709
5429.63 11.5810
5429.70 15.0758
5429.77 21.8099
5429.81 27.7042
5429.84 36.8545
5429.88 51.6412
5429.92 76.0840
5429.96 119.236
5430.00 147.218
5430.04 118.855
5430.08 75.6060
5430.13 47.7238
5430.17 32.1452
5430.22 23.3372
5430.26 18.1259
5430.30 14.6981
5430.35 12.3927
5430.43 9.62366
5430.52 8.06224
5430.61 7.11929
5430.78 6.07510
5430.96 5.53984
5431.13 5.23177
5431.48 4.91027
5432.18 4.66666
5432.88 4.57701
5434.28 4.50906
5435.68 4.48208
5441.27 4.44059
5452.45 4.39034
5463.63 4.33840
5474.81 4.28019
5497.17 4.13632
5519.54 3.93448
5541.90 3.62280
5553.08 3.38985
5564.26 3.06240
5569.85 2.84279
5575.44 2.56701
5581.03 2.21160
5586.62 1.74156
5589.42 1.44949
5592.21 1.11402
5595.01 0.742164
5597.80 0.382803
5599.20 0.260204
5600.60 0.255110
5601.30 0.338767
5602.00 0.521274
5602.70 0.856456
5603.40 1.43099
5604.09 2.39454
5604.79 4.00815
5605.49 6.75971
5606.19 11.6127
5606.54 15.4177
5606.89 20.6847
5607.24 28.1727
5607.59 39.0168
5607.94 55.2488
5608.29 80.1017
5608.64 119.167
5608.99 180.804
5609.49 322.716
5610.00 447.190
5610.51 394.900
5611.02 271.215
5611.33 212.118
5611.64 168.603
5612.25 113.426
5612.87 82.4507
5613.49 63.6639
5614.11 51.4028
5614.73 42.9617
5615.97 32.3026
5617.20 25.9995
5618.44 21.9141
5620.91 17.0163
5623.39 14.2335
5625.86 12.4661
5628.34 11.2580
5630.81 10.3929
5635.76 9.29226
5638.24 8.97475
5640.71 8.82311
5641.95 8.83632
5643.19 8.94660
5644.42 9.22094
5645.66 9.81338
5646.28 10.3376
5646.90 11.1399
5647.52 12.4322
5648.13 14.6589
5648.75 18.9405
5649.06 22.6980
5649.37 28.6399
5649.68 38.8148
5649.99 57.9645
5650.14 74.4090
5650.30 99.1825
5650.45 138.249
5650.61 199.400
5650.80 314.492
5651.00 390.340
5651.20 313.135
5651.39 197.995
5651.53 142.518
5651.67 105.669
5651.80 80.9845
5651.94 64.0670
5652.21 43.4246
5652.48 32.0912
5652.76 25.2411
5653.03 20.8394
5653.57 15.7046
5654.12 12.9492
5654.66 11.3002
5655.75 9.50052
5656.84 8.57758
5657.93 8.03185
5659.02 7.67488
5660.11 7.42330
5662.29 7.08767
5664.47 6.86799
5666.65 6.70730
5668.83 6.58085
5673.19 6.38683
5677.55 6.23850
5686.26 6.01505
5694.98 5.84764
5703.70 5.71406
5721.13 5.50889
5738.57 5.35381
5756.00 5.22846
5790.87 5.02767
5825.74 4.86129
5843.17 4.78527
5860.61 4.71425
5869.33 4.68198
5878.04 4.65407
5886.76 4.63470
5895.48 4.63417
5899.84 4.64872
5904.19 4.68288
5908.55 4.75390
5912.91 4.90225
5915.09 5.03495
5917.27 5.24277
5919.45 5.58801
5921.63 6.21293
5922.72 6.73069
5923.81 7.50420
5924.90 8.72957
5925.99 10.8295
5927.08 14.8720
5927.62 18.4478
5928.17 24.1376
5928.71 33.9759
5929.26 52.8943
5929.53 69.4333
5929.80 94.9043
5930.07 135.768
5930.35 202.004
5930.67 321.426
5931.00 401.197
5931.33 322.193
5931.66 203.177
5931.90 143.444
5932.13 104.379
5932.37 78.5675
5932.61 61.2062
5933.09 40.3411
5933.56 29.0162
5934.04 22.2392
5934.52 17.9027
5935.47 12.8774
5936.42 10.1954
5937.38 8.60166
5938.33 7.57654
5939.28 6.87773
5941.19 6.01052
5943.10 5.51082
5945.00 5.19400
5946.91 4.97877
5950.72 4.70822
5954.53 4.54528
5958.35 4.43452
5962.16 4.35200
5969.79 4.22994
5977.41 4.13507
5992.66 3.97226
6007.91 3.81327
6023.17 3.64152
6053.67 3.21805
6084.17 2.60283
6099.42 2.17156
6114.67 1.61233
6122.30 1.27214
6129.93 0.890074
6137.55 0.483286
6141.37 0.289516
6145.18 0.128417
6147.08 0.0725639
6148.99 0.0442849
6150.90 0.0564708
6152.80 0.127965
6154.71 0.286862
6155.66 0.411501
6156.62 0.575408
6158.52 1.05973
6160.43 1.84422
6162.34 3.10286
6164.24 5.13126
6166.15 8.46653
6168.06 14.1245
6169.96 24.1933
6171.87 43.2505
6172.82 59.1039
6173.77 82.1488
6174.73 116.103
6175.68 166.007
6177.34 300.097
6179.00 420.837
6180.66 375.516
6182.32 260.381
6184.14 170.635
6185.97 118.957
6187.79 88.4615
6189.62 69.3077
6191.44 56.5421
6193.26 47.6165
6194.18 44.1511
6194.63 42.6302
6195.09 41.2592
6195.54 40.0882
6196.00 39.3348
6196.23 39.3996
6196.34 39.7271
6196.46 40.4826
6196.57 42.1460
6196.63 43.6724
6196.68 46.1009
6196.74 50.1815
6196.80 57.5647
6196.86 72.2056
6196.88 85.1281
6196.91 103.481
6196.96 144.117
6197.00 171.665
6197.04 144.691
6197.09 104.044
6197.12 84.4463
6197.15 71.2978
6197.18 62.4115
6197.21 56.2684
6197.27 48.6966
6197.33 44.4341
6197.39 41.7665
6197.45 40.0265
6197.57 37.8838
6197.69 36.6038
6197.81 35.7449
6198.05 34.5900
6198.53 33.1157
6199.01 32.0201
6199.98 30.2252
6200.94 28.7035
6202.86 26.1599
6204.79 24.0946
6208.64 20.9379
6212.49 18.6463
6220.19 15.5635
6227.89 13.6007
6235.59 12.2490
6243.29 11.2648
6258.68 9.93152
6274.08 9.07229
6289.48 8.47288
6320.28 7.69062
6351.08 7.20054
6381.88 6.86254
6443.47 6.42099
6505.07 6.13867
6566.67 5.93664
6597.46 5.85410
6628.26 5.78038
6659.06 5.71533
6674.46 5.69524
6678.31 5.70063
6682.16 5.73212
6684.08 5.78423
6686.01 5.94022
6686.97 6.15825
6687.45 6.37320
6687.93 6.75766
6688.42 7.54597
6688.66 8.29396
6688.90 9.57119
6689.14 12.0411
6689.26 14.2210
6689.38 17.7014
6689.50 23.7906
6689.62 35.4832
6689.68 45.7352
6689.74 61.6683
6689.80 87.4429
6689.86 130.100
6689.93 204.884
6690.00 255.537
6690.07 205.652
6690.14 131.061
6690.21 83.6035
6690.28 56.5769
6690.35 40.9132
6690.42 31.4109
6690.49 25.1396
6690.56 20.8749
6690.70 15.6743
6690.84 12.7195
6690.98 10.9106
6691.26 8.88931
6691.54 7.84357
6691.81 7.23722
6692.37 6.59350
6692.93 6.27669
6693.48 6.09714
6694.60 5.91053
6696.83 5.76761
6699.05 5.71224
6703.51 5.66544
6707.97 5.64290
6716.88 5.61587
6725.79 5.59605
6743.61 5.56289
6761.44 5.53414
6779.26 5.51048
6788.18 5.50244
6797.09 5.50030
6806.00 5.51272
6810.46 5.53244
6814.91 5.57449
6817.14 5.61248
6819.37 5.67251
6821.60 5.77340
6823.82 5.95936
6824.94 6.11638
6826.05 6.35569
6827.17 6.74570
6828.28 7.44389
6828.84 8.02046
6829.39 8.88301
6829.95 10.2563
6830.51 12.6371
6831.06 17.3087
6831.34 21.5469
6831.62 28.4581
6831.90 40.9178
6832.04 51.1602
6832.18 66.3710
6832.32 90.3649
6832.46 130.023
6832.60 200.369
6832.74 329.664
6832.87 525.482
6833.00 654.919
6833.13 523.965
6833.27 329.750
6833.40 202.499
6833.54 132.359
6833.67 92.4190
6833.81 68.3596
6833.94 52.7582
6834.08 42.2842
6834.35 29.4617
6834.62 22.2648
6834.89 17.8712
6835.44 12.9991
6835.98 10.5029
6836.52 9.06227
6837.06 8.15498
6837.60 7.54700
6838.69 6.80764
6839.77 6.39276
6840.86 6.13622
6841.94 5.96663
6844.11 5.76240
6846.28 5.64820
6848.45 5.57725
6850.62 5.52965
6854.96 5.47046
6859.30 5.43502
6867.97 5.39287
6876.65 5.36617
6885.33 5.34563
6902.68 5.31200
6937.39 5.25429
6972.09 5.19960
7006.80 5.14482
7041.51 5.08859
7076.21 5.03000
7093.57 5.00033
7102.25 4.98926
7106.58 5.00063
7108.75 5.07273
7109.30 5.14814
7109.84 5.35425
7110.11 5.62422
7110.38 6.31606
7110.52 7.16097
7110.65 9.09229
7110.72 11.1691
7110.79 15.2097
7110.82 18.7795
7110.85 24.3703
7110.89 33.5050
7110.92 48.5215
7110.96 74.7468
7111.00 92.1397
7111.04 74.8406
7111.08 48.5835
7111.12 31.0282
7111.16 21.6699
7111.20 16.2830
7111.24 13.1301
7111.33 9.71452
7111.41 8.05173
7111.58 6.56145
7111.74 5.93947
7112.07 5.43574
7112.40 5.24143
7113.07 5.09264
7113.73 5.03711
7116.38 4.97725
7121.68 4.95255
7132.27 4.92810
7153.47 4.88459
7174.67 4.84350
7179.97 4.83757
7185.26 4.84404
7187.91 4.86511
7190.56 4.93821
7191.89 5.04611
7192.55 5.15517
7193.21 5.35347
7193.88 5.77025
7194.21 6.17309
7194.54 6.88011
7194.87 8.29026
7195.04 9.59200
7195.20 11.7435
7195.37 15.7226
7195.45 19.0869
7195.53 24.1331
7195.61 32.3657
7195.70 46.6932
7195.78 73.8473
7195.86 127.724
7195.93 201.676
7196.00 251.560
7196.07 202.374
7196.14 128.599
7196.22 76.9566
7196.29 50.0136
7196.37 35.0909
7196.45 26.4196
7196.53 20.8843
7196.60 17.2459
7196.76 12.8649
7196.91 10.4280
7197.07 8.94772
7197.38 7.32303
7197.69 6.49340
7197.99 6.01595
7198.61 5.51248
7199.23 5.26592
7199.85 5.12642
7201.09 4.98128
7203.56 4.86856
7206.04 4.82309
7210.99 4.78094
7215.94 4.75705
7235.74 4.69097
7255.54 4.62857
7275.34 4.56092
7314.94 4.39848
7354.54 4.17661
7394.14 3.84066
7413.95 3.59214
7433.75 3.24454
7443.65 3.01192
7453.55 2.71997
7463.45 2.34334
7473.35 1.84318
7478.30 1.53030
7483.25 1.16727
7488.20 0.756412
7493.15 0.335479
7495.62 0.165354
7496.86 0.110247
7498.10 0.0906594
7499.34 0.125748
7500.57 0.245002
7501.81 0.495241
7502.43 0.691455
7503.05 0.951532
7504.29 1.74118
7505.52 3.08341
7506.76 5.38475
7508.00 9.42678
7509.24 16.8588
7509.85 22.8639
7510.47 31.3969
7511.09 43.8195
7511.71 62.2616
7512.33 90.0776
7512.95 131.911
7513.97 240.996
7515.00 341.004
7516.03 306.637
7517.05 214.119
7517.80 161.647
7518.55 124.951
7519.30 99.5154
7520.04 81.5362
7521.54 58.7159
7523.03 45.3814
7524.52 36.8899
7526.02 31.1130
7529.01 23.8954
7532.00 19.6488
7534.98 16.8923
7540.96 13.5691
7546.94 11.6600
7552.91 10.4304
7558.89 9.57541
7564.87 8.94831
7576.82 8.09397
7582.80 7.79354
7588.77 7.55331
7594.75 7.37120
7597.74 7.30922
7600.72 7.28233
7603.71 7.33246
7605.21 7.42512
7606.70 7.62556
7607.45 7.80553
7608.20 8.08629
7608.94 8.54823
7609.69 9.37088
7610.44 11.0244
7610.81 12.5500
7611.18 15.0771
7611.56 19.7164
7611.74 23.6158
7611.93 29.4764
7612.12 38.9047
7612.30 55.1063
7612.49 85.2362
7612.68 143.741
7612.84 226.669
7613.00 281.900
7613.16 227.054
7613.32 144.906
7613.50 87.6307
7613.68 57.6405
7613.86 41.0450
7614.04 31.2805
7614.22 25.0711
7614.40 20.9470
7614.76 15.9633
7615.12 13.2025
7615.48 11.5184
7616.19 9.65670
7616.91 8.69918
7617.63 8.14062
7618.35 7.78312
7619.06 7.53917
7620.50 7.23133
7621.94 7.04677
7623.37 6.92301
7624.81 6.83289
7627.68 6.70623
7630.55 6.61663
7636.29 6.48670
7642.03 6.38780
7647.77 6.30501
7659.25 6.16759
7670.73 6.05419
7682.21 5.95720
7705.17 5.79730
7728.14 5.66869
7751.10 5.56129
7797.03 5.38775
7842.95 5.24871
7865.91 5.18779
7888.88 5.13161
7911.84 5.08070
7934.80 5.03986
7946.28 5.03053
7952.03 5.03398
7957.77 5.05058
7963.51 5.09970
7966.38 5.15419
7969.25 5.25757
7970.68 5.34610
7972.12 5.48185
7973.55 5.70433
7974.99 6.10489
7975.71 6.43760
7976.42 6.93701
7977.14 7.73866
7977.86 9.14079
7978.22 10.2765
7978.58 11.9433
7978.93 14.5302
7979.29 18.8409
7979.65 26.8595
7979.83 33.7289
7980.01 44.2431
7980.19 61.6168
7980.37 92.4496
7980.55 153.099
7980.64 205.738
7980.73 281.612
7980.86 447.485
7981.00 556.499
7981.14 445.444
7981.27 279.679
7981.42 168.145
7981.57 108.633
7981.71 75.3317
7981.86 55.3989
7982.01 42.6995
7982.15 34.1745
7982.44 23.8643
7982.74 18.1387
7983.03 14.6470
7983.61 10.7976
7984.20 8.83994
7984.78 7.71249
7985.36 7.00503
7985.95 6.53238
7987.12 5.95994
7988.28 5.63956
7989.45 5.44211
7990.62 5.31164
7992.96 5.15463
7995.29 5.06642
7999.96 4.97343
8004.64 4.92513
8009.31 4.89451
8018.65 4.85438
8037.34 4.80077
8056.03 4.75661
8130.79 4.59285
8205.54 4.42453
8280.30 4.24187
8355.05 4.03754
8392.43 3.92503
8429.81 3.80492
8467.19 3.67855
8485.88 3.61523
8504.57 3.55616
8523.25 3.51289
8532.60 3.50797
8541.94 3.53203
8546.62 3.56636
8551.29 3.62975
8555.96 3.74694
8560.63 3.97569
8562.97 4.17358
8565.30 4.47812
8567.64 4.97661
8569.98 5.86798
8571.14 6.60078
8572.31 7.69062
8573.48 9.41048
8574.65 12.3526
8575.82 18.0039
8576.40 23.0041
8576.98 30.9907
8577.57 44.8281
8578.15 71.6159
8578.44 95.1680
8578.74 131.886
8579.03 191.536
8579.32 289.699
8579.66 461.479
8580.00 575.775
8580.34 460.817
8580.68 288.907
8580.96 195.023
8581.23 136.590
8581.51 99.7460
8581.78 75.6769
8582.33 47.7660
8582.88 33.1349
8583.43 24.5859
8583.98 19.2058
8585.08 13.0780
8586.19 9.86694
8587.29 7.98052
8588.39 6.77948
8589.49 5.96835
8591.69 4.97165
8593.89 4.40468
8596.09 4.04948
8598.29 3.81095
8602.70 3.51655
8607.10 3.34702
8611.50 3.26158
8612.60 3.27106
8613.71 3.34291
8614.26 3.46064
8614.81 3.79703
8615.08 4.24107
8615.36 5.36784
8615.49 6.71740
8615.63 9.70852
8615.70 12.8049
8615.77 18.5495
8615.80 23.4620
8615.84 30.5707
8615.87 41.3891
8615.91 58.1854
8615.95 91.1952
8616.00 113.660
8616.05 91.5338
8616.09 58.6066
8616.15 34.8520
8616.20 22.6361
8616.26 16.0974
8616.31 12.3547
8616.42 8.41349
8616.53 6.53526
8616.75 4.87127
8616.97 4.18409
8617.40 3.62892
8617.84 3.41216
8618.71 3.23854
8619.59 3.16629
8623.08 3.05860
8630.07 2.96288
8637.05 2.89198
8644.04 2.82943
8658.01 2.71451
8671.98 2.60375
8699.93 2.37734
8727.87 2.13294
8755.81 1.86393
8783.76 1.56910
8797.73 1.41667
8804.71 1.34352
8811.70 1.27916
8818.69 1.24114
8822.18 1.24851
8825.67 1.30098
8827.42 1.36196
8829.17 1.46823
8830.91 1.65877
8832.66 2.02380
8833.53 2.33721
8834.41 2.81635
8835.28 3.59537
8836.15 4.97461
8837.02 7.74582
8837.46 10.3103
8837.90 14.5805
8838.33 22.4807
8838.55 29.1594
8838.77 39.3422
8838.99 55.9331
8839.21 84.8167
8839.43 139.873
8839.53 185.896
8839.64 251.335
8839.82 402.825
8840.00 503.797
8840.18 403.968
8840.36 253.199
8840.54 154.858
8840.72 100.651
8840.91 69.4654
8841.09 50.6056
8841.27 38.3786
8841.45 30.1410
8841.82 20.0658
8842.18 14.3898
8842.55 10.9065
8843.28 7.01888
8844.01 5.01304
8844.73 3.84494
8845.46 3.10226
8846.19 2.59913
8847.65 1.97595
8849.11 1.61477
8850.57 1.38252
8852.03 1.22124
8854.94 1.01016
8857.86 0.874135
8863.69 0.695417
8869.53 0.568895
8875.36 0.465094
8887.02 0.292739
8898.69 0.156620
8904.52 0.104393
8910.36 0.0659984
8916.19 0.0451992
8922.02 0.0470516
8927.86 0.0782708
8933.69 0.147769
8939.52 0.267457
8945.36 0.453264
8951.19 0.726879
8957.02 1.11807
8962.86 1.66838
8968.69 2.43622
8974.52 3.50592
8980.36 5.00106
8986.19 7.10718
8992.02 10.1075
8997.86 14.4489
9003.69 20.8521
9009.52 30.5081
9015.35 45.4127
9021.19 68.8659
9027.02 105.828
9036.01 198.289
9045.00 286.735
9053.99 262.689
9062.98 186.483
9073.04 124.227
9083.10 88.0360
9093.16 66.5317
9103.22 52.9318
9113.28 43.8019
9123.34 37.3583
9143.45 29.0193
9163.57 23.9544
9183.69 20.5987
9223.93 16.4811
9264.16 14.0784
9304.40 12.5143
9344.63 11.4182
9354.69 11.1946
9364.75 10.9893
9369.78 10.8959
9374.81 10.8179
9377.33 10.7969
9379.84 10.8253
9381.10 10.9062
9382.36 11.1721
9382.98 11.5485
9383.30 11.9161
9383.61 12.5643
9383.93 13.8660
9384.08 15.0617
9384.24 17.0507
9384.40 20.7059
9384.48 23.8143
9384.56 28.4785
9384.63 36.1031
9384.71 49.1759
9384.79 74.2278
9384.83 94.7743
9384.87 124.206
9384.94 192.912
9385.00 238.467
9385.07 193.424
9385.13 124.847
9385.19 81.8789
9385.26 57.5643
9385.32 43.1390
9385.38 34.3836
9385.45 28.5903
9385.51 24.6999
9385.64 19.8974
9385.76 17.1572
9385.89 15.4769
9386.14 13.5889
9386.40 12.6107
9386.65 12.0426
9387.16 11.4373
9387.66 11.1353
9388.17 10.9614
9389.18 10.7737
9391.21 10.6117
9393.23 10.5310
9397.28 10.4295
9401.33 10.3516
9409.43 10.2167
9417.53 10.0936
9433.73 9.86812
9441.83 9.76428
9445.88 9.71869
9447.91 9.71614
9448.92 9.79218
9449.43 10.0980
9449.68 11.0276
9449.81 13.1739
9449.87 16.5122
9449.90 20.0393
9449.93 25.9252
9449.97 35.7464
9450.00 42.3862
9450.03 35.9057
9450.07 26.1236
9450.10 20.6675
9450.13 17.2008
9450.18 13.7242
9450.30 11.3281
9450.53 10.2161
9450.99 9.81874
9451.91 9.68842
9453.75 9.63235
9457.43 9.57939
9464.79 9.49256
9479.51 9.33290
9508.95 9.04683
9567.83 8.57508
9597.27 8.37934
9611.99 8.29109
9626.71 8.21093
9641.43 8.14431
9648.79 8.12142
9656.15 8.11452
9659.83 8.12295
9663.51 8.14668
9667.19 8.19875
9670.87 8.30987
9672.71 8.40998
9674.55 8.56750
9676.39 8.83043
9678.23 9.30972
9679.15 9.70962
9680.07 10.3117
9680.99 11.2760
9681.91 12.9586
9682.83 16.2853
9683.29 19.3176
9683.75 24.3140
9684.21 33.3742
9684.44 40.9185
9684.67 52.2347
9684.90 70.1631
9685.13 100.507
9685.36 155.729
9685.59 260.049
9685.79 412.086
9686.00 513.036
9686.21 411.832
9686.42 260.721
9686.66 151.571
9686.90 96.1837
9687.15 66.5384
9687.39 49.3276
9687.64 38.5930
9687.88 31.4961
9688.37 23.0518
9688.85 18.4147
9689.34 15.6110
9690.32 12.5432
9691.29 10.9880
9692.27 10.0937
9693.24 9.53124
9694.22 9.15400
9696.17 8.69314
9698.12 8.43115
9700.07 8.26613
9702.02 8.15420
9705.92 8.01295
9709.82 7.92690
9713.72 7.86760
9717.63 7.82300
9725.43 7.75779
9733.23 7.71371
9737.13 7.70319
9741.03 7.71874
9742.98 7.76107
9744.93 7.90010
9745.91 8.09863
9746.89 8.64386
9747.37 9.35547
9747.62 10.0230
9747.86 11.1501
9748.10 13.2917
9748.23 15.1566
9748.35 18.0836
9748.47 23.0237
9748.59 32.1972
9748.65 39.9155
9748.71 51.4292
9748.78 69.0890
9748.84 95.9697
9748.92 149.406
9749.00 184.946
9749.08 149.890
9749.16 96.5773
9749.23 69.3112
9749.29 51.7229
9749.35 40.2320
9749.41 32.5125
9749.53 23.2574
9749.65 18.3060
9749.78 15.3407
9749.90 13.4625
9750.14 11.2867
9750.39 10.1314
9750.63 9.44624
9751.12 8.70816
9751.61 8.33923
9752.10 8.12801
9753.08 7.90614
9755.04 7.73282
9757.00 7.66312
9760.92 7.59966
9764.84 7.56515
9772.68 7.51793
9780.52 7.47971
9796.20 7.41168
9811.87 7.34860
9843.23 7.23012
9874.58 7.11826
9937.29 6.90679
10000.0 6.70473
10026.4 6.62834
10033.0 6.61759
10039.6 6.62869
10042.9 6.66514
10044.5 6.70773
10046.2 6.79000
10047.8 6.97255
10048.6 7.15652
10049.5 7.48384
10050.3 8.16776
10050.7 8.81021
10051.1 9.91113
10051.5 12.0263
10051.7 13.9517
10051.9 16.8720
10052.1 22.1729
10052.3 31.8538
10052.5 41.2090
10052.6 54.4789
10052.7 75.5512
10052.8 111.052
10052.9 175.626
10053.0 216.216
10053.1 176.445
10053.2 111.671
10053.4 69.1002
10053.5 46.6424
10053.6 33.9646
10053.8 26.3228
10053.9 21.1261
10054.0 17.9163
10054.3 13.9972
10054.6 11.7328
10054.8 10.4024
10055.4 8.89683
10055.9 8.12726
10056.4 7.68122
10057.5 7.21236
10058.5 6.97799
10059.6 6.84519
10061.7 6.70348
10065.9 6.58754
10070.1 6.53572
10078.6 6.47875
10087.0 6.43948
10103.9 6.37351
10120.8 6.31150
10154.6 6.18678
10188.4 6.05532
10256.0 5.75496
10323.6 5.36736
10391.2 4.80660
10425.0 4.40405
10458.8 3.85436
10475.7 3.49444
10492.6 3.05183
10509.5 2.49704
10526.4 1.79278
10543.3 0.919407
10551.8 0.456417
10556.0 0.249790
10560.2 0.0950419
10562.3 0.0522519
10564.4 0.0459869
10566.6 0.0906257
10568.7 0.206779
10570.8 0.425161
10572.9 0.786458
10575.0 1.35422
10577.1 2.22279
10579.2 3.54487
10581.3 5.53792
10583.5 8.57881
10585.6 13.2888
10587.7 20.7368
10589.8 32.8015
10591.9 52.7724
10594.0 85.9374
10597.0 165.197
10600.0 244.462
10601.5 249.651
10603.0 229.837
10606.0 167.159
10608.3 127.860
10610.6 100.108
10612.9 80.8233
10615.2 67.2126
10619.8 49.8049
10624.4 39.5453
10629.0 32.9500
10633.6 28.4207
10642.7 22.6889
10651.9 19.2618
10661.1 17.0044
10670.3 15.4138
10679.5 14.2362
10697.8 12.6138
10716.2 11.5512
10734.5 10.8019
10752.9 10.2448
10789.6 9.47062
10826.3 8.95797
10844.7 8.76310
10853.9 8.67834
10863.1 8.60265
10872.2 8.53942
10881.4 8.50342
10886.0 8.51604
10888.3 8.54451
10890.6 8.60793
10892.9 8.75722
10894.1 8.90934
10895.2 9.18239
10896.3 9.75444
10896.9 10.3108
10897.5 11.2672
10897.8 12.0533
10898.1 13.2106
10898.4 15.0155
10898.6 17.9194
10898.9 23.4975
10899.1 28.0997
10899.2 35.1238
10899.4 47.6184
10899.5 68.6496
10899.6 109.828
10899.7 145.283
10899.8 203.420
10899.9 315.725
10900.0 396.747
10900.1 313.923
10900.2 201.216
10900.3 131.666
10900.4 89.8164
10900.5 65.1021
10900.6 49.7447
10900.8 32.8245
10901.0 24.3526
10901.2 19.5636
10901.4 16.6101
10901.8 13.3226
10902.2 11.6378
10902.6 10.6636
10903.0 10.0511
10903.4 9.64147
10904.2 9.14509
10905.0 8.86709
10906.6 8.58181
10908.2 8.44385
10909.8 8.36480
10913.0 8.27756
10919.4 8.19303
10925.8 8.14102
10938.6 8.06103
10951.4 7.99232
10977.0 7.87092
11002.6 7.76421
11053.8 7.58261
11105.0 7.43194
11156.2 7.30360
11207.4 7.19351
11233.0 7.14607
11258.6 7.10708
11271.4 7.09358
11284.2 7.08912
11290.6 7.09479
11297.0 7.11705
11300.2 7.14829
11303.4 7.23413
11305.0 7.35015
11305.8 7.46394
11306.6 7.66786
11307.4 8.08973
11307.8 8.49384
11308.2 9.19691
11308.6 10.5821
11308.8 11.8399
11309.0 13.9037
11309.2 17.6210
11309.3 20.6940
11309.4 25.2696
11309.5 32.4453
11309.6 44.4162
11309.7 65.7610
11309.8 106.350
11309.9 168.697
11310.0 205.960
11310.1 169.383
11310.2 106.707
11310.3 69.5320
11310.4 46.7301
11310.5 33.9823
11310.6 26.3709
11310.7 21.5327
11310.8 18.2906
11311.0 14.5192
11311.2 12.2884
11311.4 10.9879
11311.8 9.49622
11312.1 8.73139
11312.5 8.28817
11313.3 7.82154
11314.1 7.59453
11314.9 7.46813
11316.4 7.34220
11319.6 7.26250
11322.7 7.25391
11328.9 7.31511
11335.2 7.47236
11338.3 7.61133
11341.4 7.82356
11344.6 8.16905
11347.7 8.77864
11349.3 9.27980
11350.8 10.0179
11352.4 11.1786
11353.9 13.1609
11355.5 17.0102
11356.3 20.4211
11357.1 25.9144
11357.8 35.5678
11358.6 54.7281
11359.0 72.0558
11359.4 99.8942
11359.8 147.025
11360.2 228.652
11360.6 360.328
11361.0 446.750
11361.4 356.730
11361.8 224.184
11362.3 132.507
11362.7 84.8350
11363.2 58.8690
11363.7 43.6280
11364.1 34.0583
11364.6 27.7065
11365.5 20.1187
11366.4 15.9614
11367.3 13.4526
11369.2 10.7291
11371.0 9.35337
11372.9 8.57036
11374.7 8.08382
11376.5 7.76281
11380.2 7.37482
11383.9 7.15940
11387.6 7.02583
11391.2 6.93665
11398.6 6.82482
11405.9 6.75572
11413.3 6.70584
11420.6 6.66538
11450.0 6.52961
11479.4 6.37749
11508.8 6.15688
11523.5 5.99279
11538.2 5.75809
11552.9 5.38674
11560.3 5.10375
11567.6 4.69983
11575.0 4.07738
11578.6 3.62189
11582.3 3.00847
11586.0 2.15244
11587.8 1.60693
11589.7 0.999776
11591.5 0.456588
11592.4 0.373995
11592.9 0.461771
11593.3 0.699097
11593.8 1.19103
11594.2 2.09676
11594.7 3.70255
11595.2 6.53507
11595.6 11.6122
11595.9 15.5710
11596.1 21.0023
11596.3 28.5290
11596.5 39.0505
11596.8 53.8208
11597.0 73.3870
11597.5 144.486
11598.0 215.833
11598.3 221.068
11598.5 203.671
11599.0 148.925
11599.4 113.317
11599.8 88.5014
11600.2 71.4479
11600.6 59.4641
11601.4 44.2987
11602.2 35.4178
11603.0 29.7267
11603.8 25.8241
11605.4 20.9126
11607.0 17.9546
11608.6 16.0077
11611.8 13.6299
11615.0 12.2374
11618.2 11.3350
11624.6 10.2442
11631.0 9.62412
11637.3 9.24354
11650.1 8.88230
11656.5 8.85254
11662.9 8.93551
11669.3 9.18419
11675.7 9.73450
11678.9 10.2239
11682.1 10.9730
11685.2 12.1802
11688.4 14.2752
11691.6 18.3594
11693.2 22.0042
11694.8 27.8203
11696.4 38.0338
11698.0 57.8776
11698.8 75.6117
11699.6 103.595
11700.4 149.785
11701.2 226.022
11702.1 357.542
11703.0 445.226
11703.9 356.859
11704.8 225.216
11705.4 162.356
11706.0 120.772
11706.7 92.3600
11707.3 73.1558
11708.5 49.4952
11709.7 36.4934
11710.9 28.5701
11712.2 23.4906
11714.6 17.5400
11717.1 14.3471
11719.5 12.4406
11724.4 10.3728
11729.3 9.32894
11734.2 8.72755
11739.1 8.34588
11744.0 8.08626
11753.8 7.76024
11763.6 7.56594
11773.4 7.43651
11783.2 7.34350
11802.9 7.21606
11822.5 7.13025
11842.1 7.06682
11861.7 7.01750
11900.9 6.94944
11920.5 6.93223
11940.1 6.93571
11959.7 6.98856
11969.5 7.06125
11979.3 7.21113
11984.2 7.34532
11989.1 7.55579
11994.0 7.90714
11998.9 8.54752
12001.4 9.08089
12003.8 9.88127
12006.3 11.1553
12008.7 13.3524
12011.2 17.6031
12012.4 21.3985
12013.6 27.4226
12014.9 37.9560
12016.1 58.1401
12016.7 76.1360
12017.3 103.655
12017.9 147.961
12018.5 220.063
12019.3 349.409
12020.0 436.863
12020.7 352.721
12021.5 224.250
12022.1 151.007
12022.7 106.636
12023.3 78.9116
12023.9 60.9144
12025.1 40.1817
12026.4 29.3262
12027.6 22.9566
12028.8 18.9748
12031.2 14.4267
12033.7 12.0195
12036.1 10.6014
12038.6 9.69062
12041.0 9.06947
12045.9 8.29530
12050.8 7.84555
12055.7 7.55672
12060.6 7.35659
12070.3 7.09072
12080.1 6.90827
12085.0 6.83681
12089.9 6.81744
12092.3 6.90455
12093.6 7.03614
12094.8 7.32513
12095.4 7.59304
12096.0 8.02298
12096.6 8.75144
12097.2 10.0848
12097.8 12.8205
12098.1 15.4084
12098.4 19.5475
12098.8 27.2547
12099.1 42.3225
12099.2 57.0802
12099.4 79.5422
12099.5 117.277
12099.7 186.000
12099.8 298.353
12100.0 383.938
12100.2 313.614
12100.3 204.847
12100.5 125.136
12100.7 83.8269
12100.9 59.4311
12101.1 45.5893
12101.3 36.2223
12101.4 30.2284
12101.8 22.6508
12102.2 18.3625
12102.6 15.6931
12103.3 12.6601
12104.0 11.0488
12104.8 10.0798
12105.5 9.44552
12106.2 9.00890
12107.7 8.44047
12109.2 8.09900
12110.7 7.87105
12112.1 7.71082
12115.1 7.49898
12118.0 7.36568
12121.0 7.27366
12123.9 7.20587
12129.9 7.11139
12135.8 7.04767
12147.6 6.96425
12159.4 6.90971
12171.2 6.86983
12194.8 6.81281
12218.4 6.77187
12242.0 6.73962
12289.2 6.68940
12336.4 6.64980
12383.6 6.61630
12478.1 6.56004
12572.5 6.51248
12666.9 6.47036
12761.4 6.43209
12808.6 6.41495
12832.2 6.41147
12844.0 6.43087
12847.0 6.45494
12849.9 6.52545
12851.4 6.62379
12852.9 6.89280
12853.6 7.25116
12854.3 8.18715
12854.7 9.35047
12854.9 10.4367
12855.1 12.1144
12855.3 15.2865
12855.5 21.3702
12855.5 26.8890
12855.6 35.7717
12855.7 50.8318
12855.8 76.9482
12855.9 121.793
12856.0 147.850
12856.1 117.303
12856.2 77.2891
12856.3 53.4015
12856.3 40.2004
12856.4 30.5528
12856.5 24.9980
12856.6 17.9455
12856.8 14.3971
12856.9 12.1302
12857.1 10.7784
12857.4 9.15054
12857.7 8.28563
12857.9 7.77268
12858.5 7.22063
12859.7 6.78870
12860.8 6.62566
12863.2 6.50235
12865.5 6.45654
12870.1 6.42136
12874.8 6.40744
12893.4 6.38812
12930.5 6.37117
12967.7 6.35806
12986.2 6.35810
12995.5 6.38874
12997.9 6.42509
13000.2 6.53138
13001.3 6.67873
13002.5 7.08212
13003.1 7.60943
13003.4 8.10551
13003.7 8.95022
13003.9 10.5580
13004.1 12.0249
13004.2 14.1826
13004.4 18.1231
13004.5 25.0095
13004.6 31.7725
13004.7 40.8076
13004.7 54.6366
13004.8 75.8553
13004.9 120.239
13005.0 146.178
13005.1 116.174
13005.2 76.6595
13005.3 53.0319
13005.4 38.5081
13005.4 29.4821
13005.5 24.2549
13005.7 17.5682
13005.8 13.9917
13006.0 11.8776
13006.1 10.5307
13006.4 8.98089
13006.7 8.13830
13007.0 7.65842
13007.6 7.13984
13008.8 6.72904
13010.0 6.57406
13012.4 6.45444
13014.9 6.40945
13019.7 6.37408
13024.5 6.35966
13043.8 6.33919
13082.5 6.32175
13121.1 6.31189
13130.8 6.31488
13140.4 6.33291
13145.3 6.36398
13150.1 6.46072
13152.5 6.60078
13153.7 6.74220
13154.9 6.99772
13156.1 7.53972
13156.7 8.07239
13157.3 8.99612
13157.7 9.77348
13158.0 10.8835
13158.3 12.6033
13158.6 15.4671
13158.9 20.7372
13159.0 25.1890
13159.2 31.9602
13159.3 42.8910
13159.5 61.8857
13159.6 97.8014
13159.8 169.702
13159.9 272.590
13160.0 334.772
13160.1 265.759
13160.3 171.666
13160.4 106.552
13160.5 70.8077
13160.6 50.5202
13160.8 39.0082
13160.9 30.8742
13161.0 25.3999
13161.3 18.9465
13161.5 15.1685
13161.8 12.9347
13162.3 10.4203
13162.8 9.09355
13163.3 8.33514
13164.3 7.51945
13165.3 7.11380
13166.3 6.88615
13168.4 6.64892
13170.4 6.53278
13172.4 6.46731
13176.5 6.39846
13184.6 6.34404
13192.7 6.32157
13208.9 6.30059
13225.1 6.28903
13257.5 6.27331
13289.8 6.26078
13322.2 6.25011
13354.6 6.24458
13370.8 6.25025
13378.9 6.26053
13387.0 6.28411
13395.1 6.34308
13399.2 6.40676
13403.2 6.52823
13405.3 6.63356
13407.3 6.79586
13409.3 7.06580
13411.3 7.55321
13412.4 7.96332
13413.4 8.57408
13414.4 9.54796
13415.4 11.2333
13416.4 14.5136
13416.9 17.4833
13417.4 22.1753
13417.9 30.5686
13418.4 46.7266
13418.7 61.7620
13418.9 84.6987
13419.2 122.417
13419.4 185.404
13419.7 296.556
13420.0 368.506
13420.3 295.372
13420.6 189.024
13420.8 123.889
13421.1 85.4110
13421.4 62.2638
13421.6 48.1160
13422.1 31.7445
13422.6 23.3292
13423.1 18.4788
13423.6 15.4404
13424.7 11.9974
13425.7 10.1946
13426.7 9.13305
13427.7 8.45473
13428.7 7.99436
13430.8 7.42590
13432.8 7.10011
13434.9 6.89522
13436.9 6.75743
13441.0 6.58824
13445.1 6.49121
13449.1 6.42975
13453.2 6.38793
13461.4 6.33538
13469.5 6.30398
13485.9 6.26802
13502.2 6.24727
13518.5 6.23301
13551.2 6.21292
13616.4 6.18468
13681.7 6.16132
13812.3 6.11769
13877.6 6.09584
13910.2 6.08545
13926.6 6.08340
13934.7 6.09519
13938.8 6.15094
13940.8 6.36473
13941.4 6.57211
13941.9 7.11375
13942.1 7.80797
13942.4 9.40293
13942.5 11.2552
13942.6 15.1329
13942.7 19.2059
13942.8 25.1196
13942.8 35.3814
13942.9 53.7090
13942.9 82.3067
13943.0 101.384
13943.1 82.3358
13943.1 53.7457
13943.2 37.7862
13943.2 29.5491
13943.3 20.0191
13943.4 14.7258
13943.5 12.1544
13943.6 9.41621
13943.8 8.17520
13944.1 7.12073
13944.5 6.69774
13945.2 6.36734
13945.8 6.24321
13948.6 6.11616
13954.0 6.08070
13964.8 6.06812
13986.5 6.05828
14008.2 6.05177
14019.1 6.05458
14024.5 6.07731
14027.2 6.16639
14028.5 6.48898
14028.9 6.79260
14029.2 7.56250
14029.4 8.48949
14029.6 10.6029
14029.7 13.0118
14029.7 17.0981
14029.8 25.6532
14029.9 33.5307
14029.9 47.2625
14030.0 73.3808
14030.0 88.2558
14030.1 73.2031
14030.1 47.0326
14030.2 33.3140
14030.2 23.9749
14030.3 15.0932
14030.4 11.3784
14030.5 9.66855
14030.7 7.90166
14030.9 7.18909
14031.3 6.59018
14031.7 6.35959
14033.2 6.12183
14036.3 6.05830
14042.5 6.04151
14054.9 6.03927
14061.1 6.04642
14067.3 6.07490
14070.4 6.11913
14073.5 6.24945
14075.1 6.43033
14075.9 6.60946
14076.6 6.92395
14077.4 7.57131
14077.8 8.17955
14078.2 9.17829
14078.6 11.1026
14078.8 12.8254
14079.0 15.3826
14079.2 19.9061
14079.3 27.7896
14079.4 34.6683
14079.5 43.6794
14079.6 58.6244
14079.7 79.4291
14079.9 123.386
14080.0 153.903
14080.1 124.233
14080.3 80.4826
14080.4 52.8512
14080.5 37.2522
14080.7 27.4340
14080.8 21.8262
14081.0 17.8912
14081.1 15.4020
14081.4 12.2031
14081.6 10.3971
14081.9 9.28219
14082.4 8.05270
14083.0 7.40260
14083.5 7.02421
14084.6 6.62534
14085.7 6.42608
14086.7 6.31370
14088.9 6.19592
14093.2 6.10445
14097.5 6.06897
14106.0 6.03931
14114.6 6.02561
14149.0 5.99927
14217.7 5.96253
14286.4 5.92371
14355.1 5.87836
14423.8 5.82253
14492.4 5.74997
14526.8 5.70428
14561.1 5.65020
14595.5 5.59033
14604.1 5.57921
14612.7 5.58099
14617.0 5.59950
14621.2 5.66574
14623.4 5.76135
14625.5 6.02318
14626.6 6.37308
14627.2 6.70992
14627.7 7.28730
14628.2 8.46350
14628.5 9.55999
14628.8 11.3279
14629.0 14.7637
14629.2 17.8934
14629.3 22.4616
14629.4 30.8327
14629.6 45.3669
14629.6 58.6049
14629.7 75.3626
14629.8 105.143
14629.8 145.440
14629.9 227.295
14630.0 282.663
14630.1 225.454
14630.2 143.154
14630.3 97.8465
14630.3 70.1688
14630.4 50.5701
14630.5 39.5895
14630.6 26.0414
14630.8 19.0795
14630.9 15.0828
14631.1 12.5934
14631.4 9.79866
14631.7 8.35630
14632.0 7.51959
14632.6 6.64070
14633.2 6.21483
14633.8 5.97768
14635.0 5.73746
14637.4 5.56211
14639.8 5.49784
14644.6 5.44431
14649.4 5.41607
14668.6 5.33194
14687.7 5.23919
14706.9 5.12774
14726.1 5.00035
14735.7 4.94085
14745.3 4.90845
14750.1 4.92036
14754.9 4.97491
14759.7 5.11516
14764.5 5.44181
14766.9 5.74855
14769.3 6.23889
14771.7 7.06020
14774.1 8.52829
14776.5 11.4775
14777.7 14.1577
14778.9 18.5210
14780.1 26.2413
14781.3 41.5816
14781.9 55.3939
14782.5 77.4135
14783.1 114.210
14783.7 175.462
14784.3 279.963
14785.0 350.675
14785.7 282.363
14786.3 178.430
14786.9 117.726
14787.5 81.6403
14788.1 59.0945
14788.6 44.9044
14789.8 28.5817
14790.9 20.1108
14792.1 15.1770
14793.2 12.0448
14795.5 8.40772
14797.8 6.37289
14800.1 5.05570
14804.7 3.31634
14809.3 2.01285
14811.6 1.45097
14813.9 1.03162
14815.0 0.950338
14816.2 1.05552
14817.3 1.51313
14817.9 1.96401
14818.5 2.64848
14819.1 3.69140
14819.6 5.21670
14820.2 7.53355
14820.8 10.9605
14821.4 16.2813
14821.9 24.3756
14822.5 37.0078
14823.1 56.6719
14824.0 112.471
14825.0 170.258
14825.5 175.438
14826.0 162.602
14826.9 119.952
14827.8 89.9190
14828.6 69.5285
14829.4 55.8461
14830.2 46.4966
14831.9 34.7490
14833.5 27.9463
14835.2 23.6080
14836.8 20.6377
14840.1 16.8782
14843.5 14.6168
14846.8 13.1248
14853.4 11.2814
14860.0 10.1900
14866.6 9.47198
14879.8 8.58474
14893.0 8.05789
14906.2 7.70911
14932.6 7.27549
14959.0 7.01552
14985.4 6.84154
15038.3 6.62078
15091.1 6.48345
15117.5 6.43137
15143.9 6.38641
15170.3 6.34688
15196.7 6.31319
15210.0 6.30184
15223.2 6.30806
15229.8 6.33857
15233.1 6.37678
15236.4 6.45467
15239.7 6.63473
15241.3 6.82063
15243.0 7.16375
15243.8 7.45485
15244.6 7.89049
15245.5 8.60077
15246.3 9.82846
15247.1 12.2836
15247.5 14.4835
15247.9 18.0640
15248.3 24.6326
15248.6 30.0499
15248.8 37.6189
15249.0 49.8476
15249.2 68.7030
15249.4 102.605
15249.6 159.836
15249.8 255.616
15250.0 317.790
15250.2 259.048
15250.4 164.181
15250.6 118.157
15250.7 86.2274
15250.9 65.4020
15251.1 52.1662
15251.4 35.5819
15251.7 26.5122
15252.0 21.0711
15252.3 17.5671
15252.9 13.4897
15253.5 11.3001
15254.2 9.98921
15254.8 9.14152
15255.4 8.56099
15256.6 7.83720
15257.9 7.41809
15259.1 7.15245
15260.4 6.97267
15262.8 6.75023
15265.3 6.62149
15270.3 6.48285
15275.2 6.41122
15280.2 6.36782
15290.1 6.31744
15300.0 6.28885
15310.0 6.27320
15319.9 6.29001
15322.4 6.32167
15324.8 6.41805
15326.1 6.55237
15327.3 6.91855
15327.9 7.39442
15328.6 8.59615
15328.9 10.0275
15329.0 11.3236
15329.2 13.2301
15329.3 16.6755
15329.5 22.6767
15329.6 28.0595
15329.6 36.2273
15329.7 49.0129
15329.8 67.5564
15329.9 105.326
15330.0 128.988
15330.1 105.640
15330.2 67.6584
15330.3 43.8904
15330.4 30.1006
15330.5 22.4098
15330.6 17.8218
15330.9 12.9532
15331.1 10.5946
15331.3 9.28616
15331.5 8.48815
15332.0 7.60725
15332.8 6.89805
15333.7 6.62425
15335.5 6.41391
15337.2 6.33486
15340.8 6.27272
15344.3 6.24748
15358.3 6.21070
15386.4 6.17822
15442.6 6.13084
15555.0 6.04627
15611.2 6.00115
15667.4 5.94909
15695.5 5.91850
15723.6 5.88324
15751.7 5.84250
15765.8 5.82666
15772.8 5.85261
15774.6 5.89057
15776.3 6.00267
15777.2 6.15793
15778.1 6.57785
15778.5 7.11886
15779.0 8.46839
15779.2 10.0511
15779.4 13.5145
15779.5 16.9925
15779.6 23.2465
15779.7 35.6738
15779.8 45.2883
15779.8 59.8250
15779.9 93.6725
15780.0 113.884
15780.1 93.9366
15780.2 59.8423
15780.2 41.3513
15780.3 29.1727
15780.4 22.0337
15780.5 17.6256
15780.6 12.7983
15780.8 10.5046
15781.1 8.28480
15781.4 7.32797
15782.0 6.54137
15782.7 6.23269
15783.9 5.99192
15785.1 5.90122
15790.1 5.79908
15800.1 5.74875
15819.9 5.68034
15839.8 5.59661
15859.7 5.47789
15869.6 5.39599
15879.6 5.28944
15889.5 5.14432
15899.5 4.93379
15904.4 4.78799
15909.4 4.59899
15914.4 4.34407
15919.3 3.98160
15921.8 3.73605
15924.3 3.42718
15926.8 3.02474
15929.3 2.48872
15930.5 2.14803
15931.8 1.75165
15934.2 0.794148
15935.5 0.378399
15936.1 0.350765
15936.7 0.684176
15937.0 1.12760
15937.4 1.90647
15937.7 3.23389
15938.0 5.48467
15938.3 9.34310
15938.6 16.1015
15938.9 28.2312
15939.2 50.1570
15939.6 100.718
15940.0 152.536
15940.2 157.711
15940.4 146.453
15940.8 108.942
15941.1 84.6877
15941.4 67.7773
15941.7 55.7474
15942.0 47.0591
15942.5 35.7456
15943.1 28.9345
15943.7 24.4891
15944.3 21.4013
15945.4 17.4470
15946.6 15.0545
15947.8 13.4656
15948.9 12.3396
15950.1 11.5024
15952.4 10.3447
15954.7 9.58446
15957.0 9.04808
15959.4 8.64980
15964.0 8.09837
15968.6 7.73481
15973.3 7.47702
15977.9 7.28456
15987.2 7.01592
15996.5 6.83672
16005.8 6.70807
16015.0 6.61075
16033.6 6.47195
16052.2 6.37609
16089.3 6.24730
16126.4 6.15839
16163.5 6.08675
16200.6 6.02347
16219.2 6.00840
16223.8 6.02262
16228.5 6.08495
16230.8 6.18442
16233.1 6.47993
16234.3 6.88996
16234.9 7.29137
16235.4 8.00174
16236.0 9.43051
16236.3 10.7524
16236.6 12.9606
16236.9 17.0390
16237.0 20.6406
16237.2 25.7652
16237.3 34.6847
16237.5 49.2070
16237.6 78.9609
16237.8 136.110
16237.9 214.196
16238.0 268.126
16238.1 216.125
16238.2 137.965
16238.4 87.0317
16238.5 57.1190
16238.6 40.5599
16238.7 31.3332
16238.9 24.8997
16239.0 20.6143
16239.3 15.6133
16239.5 12.7132
16239.8 11.0086
16240.3 9.07271
16240.8 8.07981
16241.3 7.50256
16242.3 6.88979
16243.3 6.58622
16244.4 6.41261
16246.4 6.23000
16250.5 6.08422
16254.5 6.02382
16262.7 5.96690
16270.8 5.93460
16303.4 5.84479
16335.9 5.75082
16368.5 5.62581
16401.1 5.43367
16417.3 5.28762
16433.6 5.07676
16441.8 4.93076
16449.9 4.74172
16458.1 4.48652
16466.2 4.12283
16470.3 3.87627
16474.3 3.56385
16478.4 3.15642
16482.5 2.60710
16484.5 2.25650
16486.5 1.84294
16488.6 1.35343
16490.6 0.802955
16492.7 0.287621
16493.7 0.171318
16494.7 0.366884
16495.2 0.714531
16495.7 1.37296
16496.2 2.54951
16496.7 4.61538
16497.2 8.26244
16497.7 14.8299
16498.3 26.9562
16498.8 48.9391
16499.4 98.9870
16500.0 151.419
16500.3 156.929
16500.6 146.228
16501.3 109.022
16501.7 85.1312
16502.2 67.8921
16502.7 55.7061
16503.1 47.1132
16504.1 35.8084
16505.0 29.0154
16505.9 24.5468
16506.9 21.4822
16508.7 17.5550
16510.6 15.1661
16512.4 13.5880
16514.3 12.4681
16516.2 11.6347
16519.9 10.4783
16523.6 9.71852
16527.4 9.18225
16531.1 8.78485
16538.5 8.23277
16546.0 7.86909
16553.4 7.61110
16560.9 7.41847
16575.8 7.14953
16590.7 6.97041
16620.5 6.74552
16650.3 6.60866
16665.2 6.55816
16680.1 6.51576
16695.1 6.47996
16710.0 6.45181
16717.4 6.44418
16724.9 6.45414
16728.6 6.48441
16732.3 6.58966
16734.2 6.74754
16735.1 6.90715
16736.0 7.19832
16737.0 7.80832
16737.4 8.40385
16737.9 9.41876
16738.4 11.4606
16738.6 13.2705
16738.8 16.2065
16739.1 21.7114
16739.2 26.2890
16739.3 32.4427
16739.4 42.7879
16739.5 58.1495
16739.7 86.9451
16739.8 134.317
16739.9 211.304
16740.0 264.572
16740.1 213.173
16740.2 136.643
16740.4 85.9860
16740.5 58.2701
16740.6 41.2955
16740.7 31.8908
16740.9 25.3644
16741.0 21.3128
16741.2 16.3028
16741.5 13.3621
16741.7 11.5664
16742.2 9.60711
16742.7 8.57765
16743.2 7.99053
16744.2 7.35878
16745.2 7.04584
16746.2 6.86706
16748.1 6.67955
16752.1 6.53114
16756.1 6.47148
16764.0 6.41864
16771.9 6.39227
16787.7 6.36106
16803.5 6.33992
16835.1 6.30976
16866.8 6.29068
16898.4 6.28602
16914.2 6.29439
16930.0 6.31911
16938.0 6.34359
16945.9 6.38358
16953.8 6.45198
16961.7 6.57869
16965.6 6.68546
16969.6 6.84657
16973.6 7.10652
16977.5 7.56112
16981.5 8.46798
16983.4 9.30033
16985.4 10.6725
16987.4 13.1952
16988.4 15.3170
16989.4 18.4915
16990.4 23.6284
16991.3 32.4855
16992.3 49.0466
16993.3 81.2351
16994.2 126.780
16995.0 156.789
16995.9 126.365
16996.7 81.4426
16997.4 54.9819
16998.2 39.1808
16998.9 29.5912
16999.7 23.5044
17001.2 16.6513
17002.7 13.1616
17004.2 11.1422
17005.7 9.88296
17008.7 8.46774
17011.7 7.72925
17014.7 7.29866
17017.7 7.02489
17020.6 6.83994
17026.6 6.61252
17032.6 6.48317
17038.6 6.40189
17044.6 6.34727
17056.6 6.27955
17068.5 6.23982
17080.5 6.21367
17092.5 6.19493
17116.4 6.16909
17140.4 6.15117
17188.3 6.12551
17236.1 6.10592
17284.0 6.08914
17331.9 6.07421
17355.9 6.07167
17367.8 6.09725
17370.8 6.13051
17373.8 6.23134
17375.3 6.37565
17376.8 6.77798
17377.6 7.32018
17377.9 7.84974
17378.3 8.74605
17378.7 10.5570
17378.9 12.2077
17379.1 14.7392
17379.3 19.4714
17379.4 28.3837
17379.5 37.4383
17379.6 50.6824
17379.7 72.7725
17379.8 111.984
17379.9 174.890
17380.0 218.997
17380.1 176.198
17380.2 113.069
17380.3 84.7528
17380.3 65.5235
17380.5 41.0514
17380.6 28.6833
17380.7 22.1886
17380.8 17.8399
17381.0 15.2093
17381.2 11.9400
17381.5 10.1063
17381.7 9.05218
17382.2 7.89503
17382.7 7.29789
17383.2 6.96102
17384.2 6.60468
17386.2 6.32740
17388.3 6.22327
17392.3 6.14263
17396.3 6.11136
17404.4 6.08571
17412.4 6.07449
17444.7 6.05689
17476.9 6.04904
17509.2 6.04619
17541.4 6.05306
17557.5 6.06560
17573.6 6.09366
17581.7 6.11971
17589.8 6.16158
17597.8 6.23298
17605.9 6.36595
17609.9 6.47855
17613.9 6.64984
17618.0 6.92696
17622.0 7.41500
17626.0 8.38778
17628.0 9.28109
17630.1 10.7481
17632.1 13.4216
17633.1 15.6460
17634.1 18.9353
17635.1 24.1649
17636.1 32.9493
17637.1 48.7424
17638.1 77.8610
17639.1 122.077
17640.0 151.772
17641.0 122.944
17641.9 79.5732
17642.7 54.5989
17643.5 39.5164
17644.3 30.0585
17645.1 24.0379
17646.7 17.0969
17648.3 13.4856
17649.9 11.3881
17651.6 10.0671
17654.8 8.56543
17658.0 7.77173
17661.2 7.30260
17664.4 7.00184
17667.6 6.79763
17674.1 6.54348
17680.5 6.39709
17686.9 6.30419
17693.4 6.24128
17706.2 6.16295
17719.1 6.11777
17732.0 6.09746
17738.4 6.13765
17740.0 6.19227
17741.6 6.35528
17742.5 6.58475
17743.3 7.20498
17743.7 8.00834
17744.1 10.0197
17744.3 12.3838
17744.5 17.5662
17744.6 22.7811
17744.7 32.1905
17744.7 39.8822
17744.8 51.0509
17744.8 67.6332
17744.9 94.0651
17744.9 150.085
17745.0 183.357
17745.1 151.086
17745.1 95.3559
17745.2 61.3847
17745.3 42.8287
17745.4 30.6792
17745.4 24.2566
17745.6 16.7323
17745.7 13.2258
17746.0 9.78638
17746.3 8.38019
17746.9 7.20836
17747.5 6.75655
17748.7 6.40061
17749.8 6.26514
17752.2 6.15989
17754.5 6.11850
17763.9 6.06719
17782.6 6.03861
17820.1 6.01229
17857.6 5.99543
17895.0 5.98220
17970.0 5.96031
18007.4 5.95006
18026.2 5.94436
18035.6 5.94105
18040.2 5.94218
18042.6 5.96220
18043.7 6.05908
18044.3 6.42918
18044.6 7.52724
18044.8 10.1144
18044.8 13.7739
18044.9 25.1485
18045.0 37.3273
18045.0 45.1971
18045.0 37.9163
18045.1 25.8947
18045.2 14.3789
18045.2 10.5856
18045.4 7.92872
18045.7 6.64657
18046.2 6.16748
18047.4 6.01516
18049.6 5.96676
18054.1 5.94989
18063.2 5.94205
18081.3 5.93546
18117.5 5.92589
18189.9 5.90827
18262.3 5.89123
18298.5 5.88832
18307.6 5.89400
18316.6 5.91683
18321.1 5.95284
18325.7 6.06022
18327.9 6.21238
18329.1 6.36331
18330.2 6.63550
18331.3 7.20013
18331.9 7.74673
18332.5 8.67833
18333.0 10.5388
18333.3 12.1908
18333.6 14.8709
18333.9 19.8511
18334.0 23.8123
18334.2 29.6344
18334.3 38.6075
18334.4 53.2260
18334.6 78.4607
18334.7 126.804
18334.9 200.222
18335.0 248.585
18335.1 201.228
18335.3 127.641
18335.4 87.2376
18335.5 61.7108
18335.6 45.9172
18335.8 35.7496
18336.0 24.1426
18336.2 18.1237
18336.5 14.6392
18336.7 12.4518
18337.2 9.97102
18337.7 8.67311
18338.2 7.91050
18339.1 7.10148
18340.1 6.69486
18341.0 6.46565
18342.9 6.22522
18346.8 6.04216
18350.6 5.97335
18358.2 5.91983
18365.9 5.89842
18381.2 5.87928
18396.4 5.86926
18457.6 5.84528
18518.7 5.82473
18549.3 5.81420
18564.6 5.81046
18572.3 5.81834
18576.1 5.86621
18578.0 6.06521
18578.5 6.26534
18578.9 6.80064
18579.2 7.48258
18579.4 9.15562
18579.5 11.0770
18579.7 15.1624
18579.7 19.1337
18579.8 26.0172
18579.8 38.9739
18579.9 64.1057
18580.0 99.5021
18580.0 122.613
18580.1 100.031
18580.1 64.7722
18580.2 39.5767
18580.2 26.5240
18580.3 19.5605
18580.3 15.5275
18580.5 11.3571
18580.6 9.50220
18580.8 7.68846
18581.0 6.96825
18581.5 6.37269
18582.0 6.14318
18583.9 5.90141
18587.6 5.83120
18595.1 5.80851
18610.1 5.79669
18640.1 5.78280
18700.0 5.75600
18759.9 5.72550
18819.9 5.68911
18879.8 5.64411
18909.8 5.61715
18939.8 5.58635
18969.7 5.55102
18999.7 5.51159
19014.7 5.49260
19029.7 5.48271
19037.2 5.49296
19044.7 5.54891
19048.4 5.63981
19050.3 5.73334
19052.1 5.90495
19054.0 6.26914
19055.0 6.62339
19055.9 7.23934
19056.8 8.48527
19057.3 9.63915
19057.8 11.5194
19058.2 15.0654
19058.5 18.1678
19058.7 22.7339
19058.9 30.5500
19059.2 43.8331
19059.4 69.3622
19059.5 92.0126
19059.6 122.030
19059.8 193.943
19060.0 238.934
19060.2 194.129
19060.4 122.269
19060.6 72.7786
19060.8 46.4409
19061.0 32.4842
19061.2 24.7295
19061.5 19.6420
19061.7 16.3016
19062.1 12.4146
19062.5 10.2390
19063.0 8.95637
19063.8 7.53424
19064.7 6.81569
19065.6 6.40268
19067.3 5.97110
19069.1 5.75813
19070.8 5.63701
19074.3 5.50880
19081.2 5.40089
19088.2 5.34774
19115.9 5.21327
19129.8 5.14481
19143.7 5.06624
19171.5 4.85885
19199.3 4.53004
19213.2 4.27928
19227.1 3.92229
19234.0 3.68035
19241.0 3.37416
19247.9 2.97565
19254.9 2.44108
19258.4 2.10120
19261.8 1.70108
19265.3 1.23273
19268.8 0.708617
19272.3 0.228715
19274.0 0.127971
19275.7 0.324261
19276.6 0.654682
19277.5 1.26831
19278.3 2.34536
19279.2 4.17266
19280.1 7.35238
19280.9 12.9148
19281.8 22.8183
19282.7 40.2293
19283.3 58.7815
19283.8 82.7248
19285.0 129.314
19285.6 134.909
19286.2 126.512
19287.3 94.9533
19288.7 66.7038
19290.0 49.4842
19291.3 38.9196
19292.6 32.0711
19293.9 27.3796
19295.2 24.0113
19297.8 19.5625
19300.4 16.7968
19303.1 14.9304
19308.3 12.5937
19313.5 11.2018
19318.8 10.2832
19324.0 9.63349
19329.3 9.15128
19339.7 8.48206
19350.2 8.04137
19371.2 7.49799
19392.1 7.17666
19413.1 6.96574
19455.0 6.71138
19475.9 6.63404
19496.9 6.58159
19517.8 6.55556
19538.8 6.56819
19549.3 6.59970
19559.7 6.66197
19570.2 6.77970
19580.7 7.01034
19585.9 7.20956
19591.2 7.51479
19596.4 8.01049
19601.6 8.88257
19606.9 10.6233
19609.5 12.2167
19612.1 14.8476
19614.7 19.6226
19616.1 23.5973
19617.4 29.5526
19618.7 38.9670
19620.0 54.8402
19621.3 83.5474
19622.6 137.071
19623.8 216.870
19625.0 270.167
19626.2 217.599
19627.4 138.884
19628.3 97.6296
19629.3 71.0879
19630.2 53.9374
19631.1 42.6167
19632.9 29.0670
19634.8 21.8338
19636.6 17.5258
19638.4 14.7930
19642.1 11.6338
19645.8 9.95459
19649.4 8.95657
19653.1 8.31459
19656.8 7.87658
19664.1 7.33204
19671.5 7.01674
19678.8 6.81583
19686.1 6.67831
19700.8 6.50259
19715.5 6.39040
19730.2 6.29602
19737.5 6.24407
19741.2 6.28897
19742.1 6.39804
19743.0 6.76918
19743.5 7.32159
19743.9 8.84298
19744.2 10.7581
19744.4 15.2142
19744.5 20.2063
19744.6 28.8448
19744.7 36.8304
19744.7 46.6120
19744.8 64.3523
19744.8 86.5591
19744.9 137.871
19745.0 174.715
19745.1 144.196
19745.2 94.4651
19745.3 58.8352
19745.3 41.4682
19745.4 31.2461
19745.5 24.8702
19745.7 17.7675
19745.8 14.1385
19746.1 10.7179
19746.5 9.19747
19747.1 7.87884
19747.7 7.33869
19749.0 6.88134
19750.3 6.69039
19752.9 6.52271
19755.5 6.44743
19760.6 6.37437
19765.8 6.33606
19776.0 6.29135
19786.3 6.26266
19806.9 6.22315
19827.5 6.19459
19868.7 6.15255
19889.3 6.13733
19899.6 6.13960
19904.7 6.18176
19907.3 6.36387
19907.9 6.54822
19908.6 7.02882
19908.9 7.62911
19909.2 9.06046
19909.4 10.6492
19909.5 13.8818
19909.7 21.8094
19909.8 30.4479
19909.8 47.1565
19909.9 71.1765
19910.0 88.4341
19910.1 71.5847
19910.2 47.3973
19910.2 30.9090
19910.3 21.4292
19910.4 16.3209
19910.5 13.3459
19910.7 10.2566
19910.9 8.84778
19911.2 7.53876
19911.6 6.99031
19912.3 6.54716
19913.0 6.37514
19915.8 6.19131
19921.4 6.13574
19932.6 6.11315
19955.1 6.09372
20000.0 6.06166
20014.9 6.06686
20018.6 6.09095
20022.3 6.18084
20024.2 6.32218
20026.0 6.74248
20026.9 7.32291
20027.4 7.89354
20027.9 8.86775
20028.3 10.8216
20028.6 12.5412
20028.8 15.3023
20029.0 20.1032
20029.3 29.4026
20029.4 38.0005
20029.5 50.2358
20029.6 71.8768
20029.7 106.979
20029.9 167.346
20030.0 211.795
20030.1 170.812
20030.3 110.877
20030.4 78.2959
20030.5 56.7545
20030.6 43.0737
20030.7 34.0851
20030.9 23.6025
20031.2 18.0450
20031.4 14.7753
20031.6 12.6962
20032.0 10.3032
20032.5 9.02915
20032.9 8.26917
20033.8 7.44834
20034.7 7.02514
20035.5 6.78144
20037.3 6.51817
20040.8 6.30717
20044.3 6.22235
20051.3 6.15129
20058.3 6.12032
20072.3 6.09091
20086.3 6.07539
20114.3 6.05663
20142.3 6.04395
20170.3 6.03465
20198.3 6.03090
20212.3 6.03601
20226.3 6.06203
20233.3 6.10467
20236.8 6.14935
20240.3 6.23264
20243.8 6.41120
20245.6 6.58655
20247.3 6.89772
20249.1 7.52582
20249.9 8.11314
20250.8 9.08630
20251.7 10.9146
20252.1 12.4768
20252.6 14.8105
20253.0 18.6956
20253.4 25.5628
20253.9 38.8603
20254.1 50.1228
20254.3 65.4091
20254.7 101.113
20255.0 125.130
20255.4 100.953
20255.7 65.7168
20256.0 45.5692
20256.3 33.2384
20256.6 25.5962
20256.9 20.7995
20257.5 15.0851
20258.1 12.1534
20258.7 10.4172
20259.3 9.34116
20260.5 8.10208
20261.7 7.44998
20262.9 7.06482
20265.2 6.65056
20267.6 6.44325
20270.0 6.32421
20274.8 6.19868
20279.5 6.13640
20284.3 6.10043
20293.8 6.06160
20312.8 6.02857
20331.9 6.01310
20369.9 5.99587
20408.0 5.98447
20484.1 5.96710
20560.2 5.95276
20712.5 5.92803
20788.6 5.91636
20826.7 5.91070
20845.7 5.91258
20855.3 5.94125
20857.6 5.97571
20860.0 6.07797
20861.2 6.22076
20862.4 6.61147
20863.0 7.12454
20863.6 8.38434
20863.9 9.88134
20864.2 12.9914
20864.3 16.1513
20864.5 21.7582
20864.6 32.6613
20864.8 53.1347
20864.9 81.9043
20865.0 101.444
20865.1 82.7676
20865.2 54.2145
20865.3 40.8182
20865.4 32.6309
20865.5 22.0671
20865.7 16.5540
20865.8 13.4038
20866.1 10.1807
20866.4 8.66568
20867.0 7.33805
20867.6 6.79516
20868.8 6.35149
20870.0 6.17848
20872.4 6.04351
20874.8 5.99164
20884.3 5.93451
20903.3 5.91438
20941.4 5.90348
21017.6 5.89187
21093.7 5.88208
21131.8 5.87720
21150.9 5.87544
21160.4 5.88033
21165.1 5.91143
21167.5 6.04700
21168.7 6.56327
21169.0 7.05823
21169.3 8.31260
21169.5 9.80870
21169.6 13.1507
21169.7 16.8879
21169.8 22.9018
21169.8 34.6964
21169.9 61.2134
21170.0 96.7888
21170.0 116.822
21170.1 97.3896
21170.1 61.4833
21170.2 40.7444
21170.2 29.2295
21170.3 17.3625
21170.4 12.5854
21170.5 10.2539
21170.8 8.15934
21171.0 7.27842
21171.9 6.28865
21173.6 5.99488
21177.1 5.91047
21184.2 5.88499
21198.2 5.87566
21226.3 5.86986
21282.5 5.86266
21338.7 5.85608
21366.8 5.85262
21380.8 5.85161
21387.9 5.85741
21391.4 5.89125
21393.1 6.03531
21394.0 6.56271
21394.5 8.18664
21394.7 12.0173
21394.8 18.2059
21394.8 24.0232
21394.9 35.2423
21394.9 51.9927
21395.0 64.9801
21395.1 52.4899
21395.1 35.5888
21395.2 23.1582
21395.3 16.3325
21395.4 10.9397
21395.6 7.78980
21396.2 6.47060
21397.2 6.03893
21399.3 5.90803
21403.5 5.86903
21412.0 5.85620
21428.8 5.85042
21462.5 5.84540
21496.2 5.84129
21513.1 5.83925
21521.5 5.83993
21525.7 5.85092
21527.8 5.90473
21528.9 6.11666
21529.4 6.84479
21529.6 8.78367
21529.8 12.5235
21529.8 17.8647
21529.9 28.7265
21530.0 42.0414
21530.0 52.1313
21530.1 42.4649
21530.1 29.2435
21530.2 17.2532
21530.2 12.4024
21530.4 8.73901
21530.7 6.87174
21531.2 6.15934
21532.4 5.93631
21534.6 5.86934
21539.1 5.84874
21548.2 5.84139
21566.3 5.83745
21602.5 5.83370
21638.7 5.83262
21656.8 5.83945
21665.8 5.86984
21670.3 5.98564
21671.5 6.10002
21672.6 6.40867
21673.2 6.81670
21673.7 7.84671
21674.0 9.16316
21674.3 12.1608
21674.4 15.4142
21674.6 21.8625
21674.6 27.6768
21674.7 36.9802
21674.8 52.6325
21674.9 79.5179
21674.9 126.751
21675.0 152.977
21675.1 120.290
21675.2 79.2818
21675.2 52.4131
21675.3 36.7879
21675.4 27.5096
21675.4 22.3969
21675.6 15.6178
21675.7 12.4173
21676.0 9.29691
21676.2 7.95400
21676.8 6.85538
21677.3 6.43382
21678.4 6.10630
21679.4 5.98554
21683.7 5.86488
21692.3 5.83380
21709.4 5.82533
21743.7 5.82182
21812.1 5.82184
21846.4 5.82808
21863.5 5.83573
21880.6 5.85055
21897.8 5.88260
21906.3 5.91400
21914.9 5.96991
21923.5 6.08491
21927.7 6.19536
21932.0 6.38983
21934.2 6.54870
21936.3 6.78482
21938.4 7.15881
21940.6 7.80547
21942.7 9.07700
21943.8 10.2355
21944.9 12.1507
21945.9 15.6529
21946.5 18.6346
21947.0 23.0789
21947.5 30.3923
21948.1 42.8832
21948.6 67.0803
21948.9 87.3460
21949.1 114.901
21949.6 179.747
21950.0 220.754
21950.4 176.521
21950.9 111.602
21951.4 68.4169
21951.8 45.6836
21952.3 32.8896
21952.7 25.2018
21953.2 20.2923
21953.7 16.9923
21954.6 12.9993
21955.5 10.7653
21956.4 9.42344
21958.3 7.94871
21960.1 7.20034
21962.0 6.77538
21963.8 6.51081
21965.6 6.33555
21969.3 6.12573
21973.0 6.01095
21980.4 5.89792
21987.8 5.84762
21995.1 5.82281
22009.9 5.80795
22024.6 5.82884
22032.0 5.86310
22039.4 5.93581
22043.1 6.00190
22046.8 6.10706
22050.5 6.28506
22054.1 6.61312
22056.0 6.89077
22057.8 7.30837
22059.7 7.98210
22061.5 9.14662
22063.4 11.4296
22064.3 13.4575
22065.2 16.7083
22066.1 22.3467
22067.0 33.2240
22067.5 42.7221
22068.0 57.3998
22068.4 80.9393
22068.9 119.070
22069.4 188.815
22070.0 236.811
22070.6 192.498
22071.1 123.685
22071.6 83.3636
22072.1 58.9239
22072.6 43.9112
22073.1 34.4479
22074.1 23.4117
22075.0 17.7416
22076.0 14.4132
22077.0 12.3369
22078.9 9.95986
22080.9 8.69525
22082.8 7.94463
22084.8 7.46132
22086.7 7.13233
22090.6 6.71964
22094.5 6.48049
22098.4 6.32775
22102.3 6.22407
22110.1 6.09455
22117.9 6.01877
22125.7 5.96993
22133.4 5.93624
22149.0 5.89312
22164.6 5.86695
22195.7 5.83668
22226.9 5.81933
22258.0 5.80765
22320.3 5.79179
22444.9 5.77035
22507.2 5.76281
22522.8 5.76416
22538.4 5.77599
22546.2 5.79825
22554.0 5.87110
22557.9 5.97940
22559.8 6.08998
22561.8 6.29185
22563.7 6.72064
22564.7 7.13473
22565.6 7.86002
22566.6 9.31777
22567.1 10.6545
22567.6 12.8068
22568.1 16.7733
22568.3 19.9909
22568.6 24.7597
22568.8 32.5837
22569.1 45.1445
22569.3 67.3292
22569.5 109.513
22569.8 173.029
22570.0 215.371
22570.2 174.871
22570.5 111.602
22570.7 76.0760
22570.9 53.9045
22571.1 40.2526
22571.3 31.4928
22571.7 21.5197
22572.1 16.3568
22572.5 13.3684
22572.9 11.4912
22573.7 9.35841
22574.5 8.23892
22575.3 7.57865
22576.9 6.86927
22578.5 6.51457
22580.1 6.31108
22583.3 6.09732
22586.5 5.99135
22589.6 5.93081
22596.0 5.86647
22608.8 5.81496
22621.6 5.79379
22647.2 5.77489
22672.7 5.76550
22723.9 5.75447
22775.0 5.74677
22877.3 5.73496
22928.4 5.73622
22941.2 5.74397
22954.0 5.77159
22960.4 5.81380
22966.7 5.93861
22969.9 6.11376
22971.5 6.28740
22973.1 6.59673
22974.7 7.23664
22975.5 7.84421
22976.3 8.88856
22977.1 10.9042
22977.5 12.6930
22977.9 15.5550
22978.3 20.5185
22978.7 30.1225
22978.9 38.5501
22979.1 51.6498
22979.3 72.8259
22979.5 106.556
22979.8 166.673
22980.0 208.535
22980.2 167.757
22980.5 107.690
22980.7 74.0991
22980.9 53.6227
22981.1 40.0811
22981.3 31.7145
22981.6 21.7510
22982.0 16.5310
22982.4 13.4888
22982.8 11.5699
22983.6 9.38338
22984.4 8.23398
22985.2 7.55635
22986.7 6.82987
22988.3 6.46827
22989.8 6.26192
22992.9 6.04692
22996.1 5.94156
22999.2 5.88209
23005.4 5.81986
23017.9 5.77142
23030.3 5.75222
23055.3 5.73566
23080.2 5.72770
23130.0 5.71854
23155.0 5.71537
23167.4 5.71512
23173.7 5.72119
23176.8 5.75098
23178.3 5.87032
23179.1 6.29496
23179.5 7.58039
23179.7 10.4287
23179.8 15.1737
23179.9 29.0734
23180.0 43.2601
23180.0 52.5262
23180.1 43.4798
23180.1 29.3505
23180.2 16.2056
23180.3 11.2293
23180.5 7.94052
23180.8 6.46939
23181.5 5.93867
23182.9 5.77830
23185.8 5.73182
23191.4 5.71806
23202.7 5.71306
23225.3 5.70999
23270.6 5.70727
23315.8 5.70777
23361.1 5.71470
23383.7 5.72332
23406.3 5.73899
23428.9 5.76825
23451.5 5.82694
23462.9 5.87907
23474.2 5.96113
23485.5 6.09886
23496.8 6.35214
23502.4 6.56515
23508.1 6.88668
23513.8 7.40435
23519.4 8.30667
23525.1 10.0865
23527.9 11.6961
23530.7 14.3067
23533.5 18.9596
23536.4 28.2546
23537.8 36.7824
23539.2 50.4581
23540.6 73.6879
23542.0 114.062
23543.5 180.641
23545.0 225.638
23546.5 182.439
23548.0 116.920
23549.0 85.2438
23550.1 63.9072
23551.1 49.5541
23552.1 39.7619
23554.2 27.6571
23556.2 20.9714
23558.3 16.9012
23560.3 14.2756
23564.4 11.1979
23568.5 9.53102
23572.6 8.53210
23580.8 7.43930
23589.1 6.88422
23597.3 6.56347
23605.5 6.36063
23613.7 6.22405
23630.1 6.05840
23638.3 6.00824
23646.5 5.97464
23654.8 5.96149
23663.0 5.99565
23667.1 6.07032
23669.1 6.15029
23671.2 6.29821
23673.2 6.60999
23674.3 6.90864
23675.3 7.41764
23676.3 8.40958
23676.8 9.28038
23677.3 10.6671
23677.9 13.1185
23678.4 17.7578
23678.6 21.8943
23678.9 28.0286
23679.1 38.2611
23679.4 54.4987
23679.7 83.7008
23680.0 103.701
23680.3 84.1975
23680.6 55.0389
23680.9 38.8454
23681.1 28.5484
23681.4 22.1572
23681.7 18.0328
23682.2 13.3128
23682.7 10.8941
23683.2 9.45694
23683.7 8.56849
23684.7 7.54382
23685.8 7.00077
23686.8 6.68377
23688.9 6.34209
23690.9 6.16960
23693.0 6.07031
23697.1 5.96343
23705.4 5.87497
23713.6 5.83571
23730.2 5.79585
23746.7 5.77300
23779.7 5.74421
23812.7 5.72495
23878.8 5.69668
23911.8 5.68162
23928.3 5.67138
23936.6 5.67930
23940.7 5.78082
23941.7 5.90433
23942.8 6.26736
23943.3 6.76916
23943.8 8.05228
23944.1 9.64174
23944.3 13.2804
23944.4 17.1010
23944.6 24.3129
23944.6 31.0501
23944.7 39.7576
23944.8 52.8511
23944.8 76.3495
23944.9 117.449
23945.0 150.034
23945.1 120.279
23945.2 79.3693
23945.2 58.9136
23945.3 46.5981
23945.4 31.4030
23945.5 22.5127
23945.6 17.8556
23945.8 12.7348
23946.0 10.3849
23946.4 8.17217
23946.8 7.26362
23947.7 6.50556
23948.5 6.20331
23950.2 5.96089
23951.8 5.86465
23958.4 5.75227
23971.7 5.71005
23998.2 5.68932
24051.1 5.67309
24157.1 5.65322
24263.1 5.63971
24289.6 5.64022
24316.0 5.65087
24329.3 5.67070
24342.5 5.73266
24349.2 5.82121
24352.5 5.90929
24355.8 6.06777
24359.1 6.39457
24360.8 6.70619
24362.4 7.23858
24364.1 8.27253
24364.9 9.19159
24365.7 10.6416
24366.5 13.1822
24367.4 18.1036
24367.8 22.4907
24368.2 29.1521
24368.6 39.8677
24369.0 57.2836
24369.5 88.3985
24370.0 109.306
24370.5 88.9650
24371.0 57.9966
24371.4 39.8847
24371.8 28.9536
24372.3 22.2655
24372.7 18.0749
24373.5 13.2339
24374.4 10.7282
24375.2 9.27858
24376.1 8.36869
24377.8 7.33636
24379.5 6.79572
24381.2 6.47763
24384.6 6.13707
24388.0 5.96760
24391.4 5.87080
24398.2 5.76942
24405.0 5.71964
24411.8 5.69123
24425.4 5.66122
24452.6 5.63788
24466.2 5.63496
24473.0 5.65499
24476.4 5.77560
24477.3 5.90880
24478.1 6.28004
24478.5 6.77096
24479.0 7.95250
24479.2 9.37657
24479.4 12.2432
24479.5 15.1171
24479.6 19.4900
24479.7 28.1354
24479.8 42.6778
24479.9 65.6779
24480.0 81.6644
24480.1 67.2447
24480.2 44.6367
24480.3 29.9440
24480.4 21.6378
24480.6 14.0821
24480.8 10.8129
24481.0 9.13969
24481.4 7.56932
24481.7 6.87911
24482.5 6.29275
24483.3 6.05894
24484.8 5.86927
24486.3 5.79457
24492.4 5.71404
24504.7 5.70448
24516.9 5.73608
24529.1 5.81245
24535.2 5.88255
24541.3 5.99352
24547.5 6.18046
24553.6 6.52280
24556.6 6.80952
24559.7 7.24084
24562.8 7.92855
24565.8 9.10966
24568.9 11.3932
24570.4 13.4112
24571.9 16.5914
24573.4 22.0660
24575.0 32.4296
24575.7 41.3769
24576.5 54.7659
24577.3 75.6553
24578.0 108.423
24579.0 171.628
24580.0 215.011
24581.0 174.595
24582.0 112.145
24582.6 82.7628
24583.3 62.6719
24584.6 39.4527
24585.9 27.6748
24587.3 21.0634
24588.6 17.0267
24589.9 14.3942
24592.5 11.3008
24595.2 9.61086
24597.8 8.59076
24603.1 7.47168
24608.4 6.89833
24613.6 6.56484
24618.9 6.35228
24624.2 6.20778
24634.7 6.02793
24645.3 5.92329
24655.8 5.85620
24666.4 5.81010
24687.5 5.75137
24708.6 5.71577
24729.6 5.69176
24750.7 5.67429
24792.9 5.64985
24835.1 5.63280
24877.3 5.62267
24887.9 5.62529
24898.4 5.64219
24903.7 5.67177
24908.9 5.76377
24911.6 5.89539
24914.2 6.25843
24915.5 6.73425
24916.2 7.17946
24916.9 7.93072
24917.5 9.33678
24917.8 10.5431
24918.2 12.4047
24918.5 15.4675
24918.8 20.9322
24919.2 31.6683
24919.3 40.5647
24919.5 54.1300
24919.7 83.2552
24920.0 103.943
24920.3 84.3725
24920.5 55.4201
24920.7 42.5761
24920.8 33.8553
24921.1 23.1615
24921.4 17.3883
24921.7 14.0112
24922.0 11.8347
24922.3 10.4426
24922.9 8.76845
24923.5 7.82923
24924.1 7.26707
24925.3 6.64298
24926.6 6.31959
24927.8 6.13137
24930.2 5.93141
24935.0 5.77356
24939.8 5.71200
24949.5 5.66230
24959.1 5.64157
24978.5 5.62247
24997.8 5.61251
25036.4 5.60017
25075.0 5.59120
25229.5 5.56321
25306.8 5.55070
25384.0 5.54077
25422.7 5.54106
25442.0 5.54617
25461.3 5.56034
25480.6 5.59878
25490.3 5.64140
25499.9 5.72324
25504.7 5.79411
25509.6 5.90371
25514.4 6.08439
25519.2 6.40940
25521.6 6.67941
25524.0 7.08109
25526.5 7.72033
25528.9 8.81287
25531.3 10.9240
25532.5 12.7929
25533.7 15.7428
25534.9 20.8644
25536.1 30.5743
25536.7 39.1427
25537.3 52.1065
25537.9 72.7015
25538.5 105.686
25539.3 166.138
25540.0 206.799
25540.7 167.246
25541.5 107.083
25542.0 76.6907
25542.6 56.9996
25543.1 43.9394
25543.6 35.0584
25544.7 24.2624
25545.7 18.4194
25546.8 14.8846
25547.9 12.6335
25550.0 10.0145
25552.1 8.60473
25554.3 7.76387
25558.5 6.85281
25562.8 6.39082
25567.0 6.12300
25571.3 5.95115
25575.5 5.83209
25584.0 5.67533
25592.5 5.57544
25596.8 5.55194
25601.0 5.61017
25603.2 5.77046
25604.2 5.95895
25605.3 6.32901
25606.4 7.15256
25606.9 7.95152
25607.4 9.33211
25608.0 11.9594
25608.2 14.2785
25608.5 17.7193
25608.8 23.5612
25609.0 33.4160
25609.3 52.9154
25609.5 91.8496
25609.8 147.034
25610.0 188.728
25610.2 155.631
25610.5 102.513
25610.7 67.0129
25610.9 46.3891
25611.1 34.3691
25611.4 26.9419
25611.6 22.0840
25611.8 18.7479
25612.3 14.5977
25612.8 12.2099
25613.2 10.7064
25614.1 8.99226
25615.0 8.05885
25616.0 7.49872
25617.8 6.86699
25619.6 6.53161
25621.4 6.32768
25625.1 6.09566
25628.8 5.96855
25632.4 5.88853
25639.7 5.79297
25647.1 5.73721
25654.4 5.70026
25669.0 5.65343
25698.3 5.60394
25727.6 5.57657
25786.2 5.54407
25844.8 5.52230
25961.9 5.48628
25991.2 5.47827
26020.5 5.47658
26035.1 5.48832
26042.5 5.50578
26049.8 5.54424
26057.1 5.63859
26060.8 5.73938
26064.4 5.92953
26066.2 6.09199
26068.1 6.34049
26069.9 6.74431
26071.7 7.45731
26073.6 8.87703
26074.5 10.1798
26075.4 12.2915
26076.3 16.1150
26077.2 23.7711
26077.7 30.8773
26078.1 42.4741
26078.6 62.4672
26079.1 96.8066
26079.5 153.851
26080.0 192.146
26080.5 155.775
26081.0 100.790
26081.4 67.3466
26081.8 47.7823
26082.2 35.5816
26082.7 27.9963
26083.5 19.2903
26084.4 14.8031
26085.2 12.2085
26086.1 10.5775
26087.8 8.71921
26089.5 7.73835
26091.2 7.15602
26092.9 6.78078
26094.6 6.52395
26098.0 6.20298
26101.4 6.01583
26108.1 5.81424
26114.9 5.71063
26121.7 5.64859
26135.3 5.57716
26162.5 5.49940
26176.1 5.47193
26182.9 5.54762
26184.6 5.67234
26186.3 6.07326
26187.2 6.64592
26187.6 7.21503
26188.0 8.18576
26188.4 10.1236
26188.7 11.8048
26188.9 14.4594
26189.1 18.9510
26189.3 27.2637
26189.4 34.6057
26189.5 44.4603
26189.6 60.8995
26189.7 83.5069
26189.9 132.871
26190.0 167.924
26190.2 138.012
26190.3 89.9339
26190.4 67.0698
26190.5 52.6608
26190.7 35.0410
26190.9 25.5282
26191.0 19.9475
26191.2 16.4284
26191.4 14.0759
26191.8 11.2289
26192.1 9.63559
26192.5 8.65192
26193.2 7.54412
26193.9 6.95541
26194.6 6.61015
26196.1 6.23009
26199.0 5.91359
26201.9 5.78194
26207.6 5.66849
26213.4 5.61817
26225.0 5.57063
26236.5 5.54679
26259.6 5.52076
26282.7 5.50526
26328.9 5.48498
26375.2 5.47038
26467.6 5.44718
26560.0 5.42678
26744.9 5.38625
26837.3 5.36333
26883.5 5.35082
26906.6 5.35247
26918.1 5.40299
26921.0 5.46486
26923.9 5.64894
26925.4 5.90713
26926.8 6.60609
26927.5 7.50483
26927.9 8.33548
26928.3 9.72033
26928.6 12.2683
26928.8 14.4175
26929.0 17.6794
26929.2 22.9260
26929.3 31.9913
26929.5 48.9865
26929.6 62.9822
26929.7 83.7092
26929.9 132.518
26930.0 164.039
26930.2 134.066
26930.3 85.6685
26930.4 63.0543
26930.5 47.0180
26930.6 36.4057
26930.7 29.7591
26931.0 20.8330
26931.2 16.1521
26931.4 13.1955
26931.6 11.3758
26932.0 9.23059
26932.4 8.04344
26932.9 7.33449
26933.7 6.57063
26935.4 5.95594
26937.1 5.71873
26940.5 5.53258
26944.0 5.46045
26950.8 5.40255
26957.6 5.37864
26984.9 5.34565
27039.5 5.32202
27066.8 5.31764
27094.1 5.33414
27107.7 5.37635
27114.6 5.42641
27121.4 5.52628
27124.8 5.61509
27128.2 5.75410
27131.6 5.98614
27135.0 6.40844
27138.4 7.28217
27140.1 8.11040
27141.8 9.50793
27143.6 12.1532
27144.4 14.4167
27145.3 17.9097
27146.1 23.7373
27147.0 34.0202
27147.8 54.1234
27148.2 71.5605
27148.7 96.2188
27149.3 152.331
27150.0 191.126
27150.7 155.886
27151.3 100.677
27151.9 71.1262
27152.4 52.1181
27152.9 39.8446
27153.4 31.8012
27154.4 22.1379
27155.5 16.9214
27156.5 13.8146
27157.5 11.8216
27159.6 9.50724
27161.7 8.25932
27163.7 7.51458
27165.8 7.03092
27167.8 6.69808
27172.0 6.27920
27176.1 6.03465
27180.2 5.87754
27184.3 5.77027
27192.6 5.63523
27200.8 5.55530
27217.3 5.46651
27233.8 5.41853
27250.3 5.38811
27283.3 5.35020
27316.3 5.32564
27349.3 5.30684
27415.3 5.27652
27547.3 5.22380
27613.3 5.19988
27646.3 5.20388
27654.6 5.22085
27662.8 5.27748
27667.0 5.35976
27671.1 5.58894
27673.2 5.89336
27674.2 6.18017
27675.2 6.67035
27676.3 7.60744
27676.8 8.44048
27677.3 9.73337
27677.8 11.9860
27678.3 16.1566
27678.6 19.7920
27678.8 25.3280
27679.1 34.0381
27679.3 47.1607
27679.7 72.6017
27680.0 89.7640
27680.3 73.0833
27680.7 47.7640
27681.0 30.7558
27681.4 21.5284
27681.7 16.3372
27682.1 13.2171
27682.4 11.2222
27682.8 9.87882
27683.5 8.26437
27684.2 7.34653
27684.9 6.78449
27686.2 6.16416
27687.6 5.84284
27689.0 5.65718
27691.8 5.45896
27697.4 5.30412
27703.0 5.24404
27714.1 5.19476
27725.3 5.17265
27747.6 5.14845
27769.9 5.13222
27792.2 5.12036
27814.6 5.12070
27825.7 5.14005
27831.3 5.16598
27836.9 5.22004
27842.5 5.34637
27845.2 5.47709
27848.0 5.71802
27850.8 6.22590
27852.2 6.71763
27853.6 7.56553
27855.0 9.23200
27855.7 10.7259
27856.4 13.0919
27857.1 17.2763
27857.8 25.2929
27858.1 32.4524
27858.5 43.6576
27858.8 61.9243
27859.2 91.0882
27859.6 143.720
27860.0 179.828
27860.4 145.888
27860.8 93.8004
27861.2 61.8668
27861.6 42.8208
27862.0 31.5638
27862.4 24.6994
27863.1 16.9385
27863.9 13.0028
27864.7 10.7517
27865.4 9.34775
27867.0 7.76134
27868.5 6.93121
27870.1 6.44151
27871.6 6.12751
27873.1 5.91345
27876.2 5.64697
27879.3 5.49207
27885.5 5.32486
27891.6 5.23809
27897.8 5.18489
27910.1 5.12053
27922.4 5.08003
27934.7 5.05864
27940.9 5.07231
27947.1 5.17116
27950.1 5.34974
27951.7 5.54293
27953.2 5.90699
27954.8 6.68294
27955.5 7.42897
27956.3 8.70927
27957.1 11.1395
27957.5 13.2737
27957.8 16.4923
27958.2 21.9364
27958.6 31.3631
27959.0 49.5319
27959.2 64.8551
27959.4 87.5112
27959.7 140.243
27960.0 176.994
27960.3 145.858
27960.6 94.5658
27961.0 57.2628
27961.4 38.1231
27961.7 27.6256
27962.1 21.4075
27962.4 17.4617
27962.8 14.8127
27963.5 11.5937
27964.2 9.78538
27965.0 8.66625
27966.4 7.40302
27967.8 6.73361
27969.3 6.33699
27972.2 5.89961
27975.1 5.67073
27977.9 5.53389
27983.7 5.37986
27989.5 5.29628
27995.2 5.24367
28006.8 5.17993
28029.8 5.11335
28052.9 5.07337
28099.1 5.01573
28145.2 4.96573
28191.3 4.91502
28237.5 4.85979
28283.6 4.79721
28306.7 4.76489
28318.2 4.76271
28324.0 4.82622
28326.9 5.10430
28327.6 5.37442
28328.3 6.06303
28328.7 6.88853
28329.0 8.74523
28329.2 10.6681
28329.4 14.2552
28329.6 21.8259
28329.7 28.8244
28329.8 39.6513
28329.9 60.8099
28330.0 75.0834
28330.1 61.2119
28330.2 40.1539
28330.3 29.3025
28330.4 22.2585
28330.6 14.6006
28330.8 10.9487
28331.0 8.97905
28331.3 7.06132
28331.7 6.21524
28332.4 5.47787
28333.1 5.17886
28334.5 4.93998
28335.9 4.84794
28341.6 4.74278
28353.0 4.69370
28375.8 4.63825
28398.6 4.58324
28421.4 4.52206
28467.0 4.37031
28512.5 4.15566
28535.3 4.00939
28558.1 3.82195
28580.9 3.57226
28603.7 3.22258
28615.1 2.98914
28626.5 2.69800
28637.9 2.32562
28649.3 1.83880
28660.7 1.19464
28672.1 0.414061
28674.9 0.242074
28677.8 0.130257
28680.6 0.152524
28683.5 0.462208
28684.9 0.821379
28686.3 1.40408
28687.7 2.33658
28689.2 3.79153
28690.6 6.09147
28692.0 9.68937
28693.4 15.3669
28694.8 24.2603
28696.1 36.2398
28697.4 52.3056
28700.0 84.8346
28701.3 89.8942
28702.6 85.4585
28705.2 65.6852
28706.8 53.9497
28708.5 44.8769
28711.9 32.9563
28715.2 25.9463
28718.6 21.5414
28721.9 18.5655
28725.3 16.4569
28732.0 13.6885
28738.7 11.9746
28745.4 10.8183
28758.8 9.36661
28772.3 8.49681
28785.7 7.91884
28799.1 7.50710
28812.5 7.19890
28839.4 6.76658
28866.2 6.47605
28879.6 6.36269
28893.0 6.26361
28906.5 6.17491
28913.2 6.14324
28916.5 6.19714
28918.2 6.53862
28919.0 7.84764
28919.2 9.02140
28919.5 11.7310
28919.6 14.7842
28919.7 20.0591
28919.8 31.0466
28919.8 41.0590
28919.9 57.1264
28919.9 88.0752
28920.0 110.290
28920.1 90.1105
28920.1 59.2779
28920.2 36.8223
28920.3 25.3782
28920.5 15.1218
28920.6 11.2951
28920.8 9.56761
28921.1 7.95654
28921.5 7.27454
28922.8 6.48456
28925.4 6.21987
28930.7 6.11200
28941.3 6.03476
28962.5 5.93801
28983.7 5.86116
29004.9 5.79542
29026.1 5.73813
29047.3 5.68883
29068.5 5.65689
29079.1 5.69447
29081.7 5.74897
29084.4 5.90681
29085.7 6.11972
29087.0 6.66973
29087.7 7.34519
29088.3 8.92127
29088.7 10.6288
29089.0 14.0013
29089.2 17.1433
29089.3 21.8491
29089.5 30.2211
29089.6 43.6181
29089.8 66.4681
29090.0 81.7299
29090.2 66.5351
29090.4 43.7021
29090.5 29.6681
29090.7 21.5512
29090.9 16.7520
29091.0 13.9060
29091.4 10.5972
29091.7 8.91229
29092.4 7.34739
29093.0 6.67139
29094.3 6.11237
29095.7 5.89470
29098.3 5.72381
29101.0 5.65755
29111.5 5.57586
29132.7 5.52253
29175.0 5.45126
29217.4 5.39030
29259.7 5.33496
29302.0 5.28400
29344.3 5.23866
29365.5 5.22138
29386.7 5.21871
29397.3 5.23742
29407.8 5.31282
29413.1 5.42602
29415.8 5.53941
29418.4 5.74132
29421.1 6.15273
29422.4 6.53475
29423.7 7.17675
29425.0 8.38591
29425.7 9.41582
29426.4 11.0037
29427.0 13.6159
29427.7 18.2819
29428.3 27.4807
29428.7 35.4257
29429.0 47.0297
29429.5 72.6698
29430.0 89.4916
29430.5 72.5124
29431.0 47.5031
29431.6 29.7822
29432.1 20.6566
29432.7 15.5568
29433.3 12.5984
29433.8 10.6956
29434.4 9.44822
29435.5 7.94068
29436.7 7.09687
29437.8 6.58283
29440.0 6.01678
29442.3 5.72532
29444.5 5.55635
29449.1 5.37525
29453.6 5.28382
29458.1 5.22990
29467.1 5.16912
29485.1 5.11039
29503.2 5.07559
29539.2 5.02315
29575.3 4.97654
29647.5 4.88412
29683.5 4.83812
29701.6 4.83003
29706.1 4.84411
29710.6 4.89933
29712.9 4.98370
29715.1 5.22281
29716.2 5.54186
29717.4 6.34736
29717.9 7.32859
29718.5 9.48308
29718.8 11.6806
29719.0 15.7014
29719.2 19.0308
29719.3 23.9200
29719.5 31.2716
29719.6 42.3267
29719.8 65.2250
29720.0 80.8025
29720.2 65.9723
29720.4 43.2611
29720.5 32.8214
29720.7 25.6215
29720.9 17.4401
29721.2 13.1530
29721.4 10.6940
29721.9 8.13466
29722.4 6.95726
29723.4 5.91136
29724.4 5.47796
29726.5 5.12749
29728.5 4.98932
29732.5 4.87803
29736.6 4.83174
29752.7 4.76355
29785.0 4.69912
29817.3 4.64764
29825.3 4.64374
29833.4 4.66781
29837.4 4.72222
29841.5 4.90239
29843.5 5.16454
29844.5 5.42538
29845.5 5.89073
29846.5 6.83033
29847.0 7.70951
29847.5 9.14252
29848.0 11.8185
29848.3 14.0178
29848.5 17.3136
29848.8 22.5195
29849.0 31.2781
29849.3 47.0591
29849.5 77.4731
29849.8 122.775
29850.0 153.028
29850.2 125.027
29850.5 80.1501
29850.6 59.4677
29850.8 44.8281
29851.1 28.5191
29851.4 20.2248
29851.7 15.5585
29852.0 12.6317
29852.3 10.7915
29853.0 8.61504
29853.6 7.41236
29854.2 6.69784
29855.5 5.90860
29856.7 5.50004
29858.0 5.26132
29860.4 5.00496
29865.4 4.79579
29870.4 4.70808
29880.4 4.62643
29890.4 4.58214
29910.3 4.52232
29930.3 4.47329
29970.2 4.37977
30010.1 4.28174
30050.0 4.17419
30090.0 4.05354
30129.9 3.91515
30149.8 3.83911
30159.8 3.81917
30164.8 3.92052
30166.0 4.05237
30167.3 4.43266
30167.9 4.95334
30168.5 6.27390
30168.8 7.85137
30169.2 11.3563
30169.3 15.0756
30169.5 21.4307
30169.5 27.0131
30169.6 35.3056
30169.7 47.9471
30169.8 66.9475
30169.9 105.863
30170.0 132.231
30170.1 107.769
30170.2 69.0502
30170.3 50.2333
30170.4 38.7139
30170.5 25.0275
30170.7 17.8625
30170.8 13.7507
30171.1 9.42105
30171.4 7.46268
30171.9 5.70216
30172.5 4.97844
30173.6 4.37891
30174.8 4.13914
30177.0 3.94255
30179.3 3.85985
30188.3 3.73751
30206.4 3.62518
30242.6 3.42619
30278.9 3.20182
30315.1 2.93645
30351.3 2.61568
30387.5 2.22127
30423.7 1.72947
30441.8 1.44044
30450.8 1.28918
30455.4 1.23203
30457.6 1.28543
30458.7 1.60240
30459.3 2.66063
30459.6 5.24121
30459.7 9.65315
30459.8 14.6428
30459.9 24.3914
30459.9 39.2473
30460.0 47.6274
30460.1 39.3562
30460.1 24.3508
30460.3 10.8895
30460.4 6.15921
30460.6 3.04785
30461.1 1.71472
30462.1 1.25423
30464.1 1.08716
30468.1 0.974889
30476.1 0.809149
30492.1 0.489911
30508.1 0.197773
30516.1 0.0853934
30524.1 0.0209639
30528.1 0.0169390
30532.1 0.0396972
30536.1 0.0974875
30540.1 0.200809
30544.1 0.364450
30548.0 0.606517
30552.0 0.953690
30556.0 1.43853
30560.0 2.11035
30564.0 3.03256
30568.0 4.29407
30572.0 6.01288
30576.0 8.36688
30580.0 11.5739
30588.0 21.8582
30593.5 33.2163
30599.0 48.6299
30610.0 80.6687
30615.5 86.2807
30621.0 82.7232
30632.0 64.5663
30643.5 48.1554
30649.2 42.3125
30654.9 37.8439
30660.7 34.6999
30663.5 33.7358
30666.4 33.4150
30669.3 34.2756
30670.7 35.5573
30672.1 37.9237
30673.6 42.3106
30675.0 50.6722
30676.4 67.9324
30677.1 83.3322
30677.8 105.820
30678.9 155.206
30680.0 189.247
30681.1 157.615
30682.2 108.328
30683.2 77.7542
30684.2 59.7032
30685.2 48.7986
30686.2 41.8484
30688.2 33.8637
30690.2 29.5651
30692.3 26.9113
30694.3 25.0988
30698.3 22.7227
30702.4 21.1603
30706.4 19.9989
30714.5 18.2935
30722.6 17.0310
30730.6 16.0282
30746.8 14.4956
30762.9 13.3620
30779.1 12.4845
30811.4 11.2098
30843.7 10.3272
30876.0 9.68029
30940.6 8.79463
31005.2 8.21496
31037.5 7.99308
31069.8 7.80242
31102.1 7.63574
31134.4 7.48913
31150.6 7.42627
31166.7 7.38897
31174.8 7.40971
31178.8 7.45350
31182.9 7.55471
31186.9 7.80317
31188.9 8.06288
31191.0 8.53842
31193.0 9.51777
31194.0 10.4319
31195.0 11.9586
31196.0 14.7530
31196.5 17.1145
31197.0 20.5824
31197.5 26.1611
31198.0 35.3115
31198.5 51.5358
31199.0 81.6146
31199.5 128.059
31200.0 161.095
31200.5 132.249
31201.0 86.7623
31201.3 65.2760
31201.6 50.2139
31202.0 39.9605
31202.3 32.8390
31203.0 24.0363
31203.6 19.0911
31204.3 16.0654
31204.9 14.0862
31206.3 11.7419
31207.6 10.4562
31208.9 9.67241
31211.5 8.80057
31214.2 8.34212
31216.8 8.06890
31222.1 7.76348
31227.3 7.59880
31232.6 7.49550
31243.2 7.36899
31253.7 7.28962
31264.2 7.23147
31285.3 7.14472
31306.4 7.07739
31327.5 7.02054
31369.7 6.92609
31411.8 6.85125
31432.9 6.82193
31454.0 6.80114
31475.1 6.79719
31485.6 6.80908
31496.2 6.84217
31506.7 6.92528
31512.0 7.01071
31517.3 7.16439
31522.5 7.47672
31525.2 7.76904
31527.8 8.26146
31530.5 9.19606
31531.8 10.0116
31533.1 11.2852
31534.4 13.4653
31535.7 17.5779
31536.4 21.1016
31537.0 26.4577
31537.7 34.8761
31538.4 47.9316
31539.2 72.2958
31540.0 87.8458
31540.8 71.0496
31541.7 46.5207
31542.6 30.0245
31543.5 21.2852
31544.4 16.4580
31545.3 13.6226
31546.2 11.8063
31547.0 10.6070
31548.8 9.15617
31550.6 8.35683
31552.4 7.87262
31556.0 7.34287
31559.6 7.07557
31563.2 6.92217
31570.3 6.76098
31577.5 6.68078
31584.6 6.63369
31599.0 6.57960
31627.6 6.52295
31656.3 6.48556
31713.5 6.42724
31770.8 6.38005
31828.1 6.34341
31885.4 6.32412
31914.1 6.32819
31942.7 6.35408
31957.0 6.38402
31971.4 6.43735
31985.7 6.53850
31992.8 6.62500
32000.0 6.75827
32000.0 8.44834
40000.0 8.55137
50000.0 8.67186
60000.0 8.78034
70000.0 8.87682
80000.0 8.96216
99999.9 9.10376
100000 9.15145
144665 9.27961
150000 9.29230
200000 9.28411
206067 9.27196
206246 9.27158
206247 9.27158
206269 9.27153
206270 9.27153
226973 9.22989
250000 9.18782
300000 9.04007
420000 8.53290
420000 8.53290
485906 8.31328
485910 8.31327
485956 8.31313
485957 8.31313
490000 8.30075
500000 8.27056
531250 8.16498
541007 8.13329
541010 8.13328
541231 8.13258
541232 8.13258
562500 8.06546
593750 7.97132
599694 7.95398
600000 7.95310
600000 7.95310
616012 7.89259
625000 7.85931
656250 7.74724
664748 7.71769
664817 7.71744
686670 7.64317
686674 7.64316
687500 7.64040
700000 7.59901
701411 7.59396
701701 7.59292
718750 7.53267
726686 7.50511
726690 7.50509
726762 7.50485
726763 7.50485
726989 7.50407
728303 7.49953
728606 7.49849
742370 7.45152
742370 7.45152
742471 7.45118
742526 7.45098
750000 7.42555
760838 7.38950
760917 7.38925
770646 7.35771
773939 7.34685
781250 7.32304
786380 7.30659
786385 7.30658
786486 7.30626
794556 7.28079
795510 7.27782
795512 7.27778
795512 7.27778
800000 7.26389
803275 7.25240
812500 7.22075
829228 7.16596
829321 7.16566
843750 7.12100
848528 7.10672
849653 7.10306
875000 7.02433
880259 7.00884
880260 7.00885
880356 7.00856
880457 7.00827
880460 7.00826
897344 6.96050
897445 6.96021
900000 6.95323
906250 6.93405
937500 6.84154
957664 6.78475
957665 6.78476
957770 6.78447
957772 6.78445
957873 6.78418
968750 6.75446
999999 6.67245
1.00000E+06 6.67245
1.00334E+06 6.66404
1.03125E+06 6.59528
1.03516E+06 6.58586
1.03520E+06 6.58577
1.03527E+06 6.58559
1.03528E+06 6.58557
1.05014E+06 6.55027
1.05024E+06 6.55004
1.06250E+06 6.52147
1.06781E+06 6.50925
1.06790E+06 6.50904
1.06793E+06 6.50898
1.07026E+06 6.50365
1.07444E+06 6.49412
1.08510E+06 6.47009
1.08511E+06 6.47006
1.08552E+06 6.46915
1.09375E+06 6.45084
1.10000E+06 6.43707
1.10397E+06 6.42808
1.10417E+06 6.42761
1.12500E+06 6.38105
1.12832E+06 6.37373
1.12840E+06 6.37355
1.12842E+06 6.37352
1.12854E+06 6.37325
1.12855E+06 6.37323
1.12863E+06 6.37305
1.12874E+06 6.37281
1.14747E+06 6.33206
1.14757E+06 6.33184
1.15625E+06 6.31325
1.15997E+06 6.30534
1.16056E+06 6.30407
1.16240E+06 6.30018
1.18750E+06 6.24776
1.20000E+06 6.22220
1.21875E+06 6.18685
1.23549E+06 6.15584
1.25000E+06 6.12935
1.27630E+06 6.08232
1.28125E+06 6.07359
1.28180E+06 6.07263
1.28625E+06 6.06483
1.29736E+06 6.04550
1.29797E+06 6.04444
1.30000E+06 6.04093
1.31250E+06 6.01915
1.31599E+06 6.01311
1.31614E+06 6.01284
1.32392E+06 5.99946
1.34375E+06 5.96572
1.37500E+06 5.91372
1.38426E+06 5.89858
1.39062E+06 5.88824
1.40000E+06 5.87311
1.40625E+06 5.86270
1.42417E+06 5.83305
1.43750E+06 5.81117
1.44069E+06 5.80596
1.44085E+06 5.80569
1.44706E+06 5.79558
1.44823E+06 5.79363
1.45226E+06 5.78693
1.46206E+06 5.77081
1.46875E+06 5.75994
1.47807E+06 5.74497
1.50000E+06 5.71055
1.50000E+06 5.71054
1.51345E+06 5.68887
1.51355E+06 5.68871
1.52556E+06 5.66956
1.52566E+06 5.66939
1.52607E+06 5.66874
1.52610E+06 5.66869
1.53125E+06 5.66044
1.53138E+06 5.66023
1.55700E+06 5.61993
1.55718E+06 5.61965
1.55738E+06 5.61934
1.56128E+06 5.61331
1.56250E+06 5.61143
1.56819E+06 5.60270
1.56930E+06 5.60100
1.58139E+06 5.58267
1.59060E+06 5.56888
1.59375E+06 5.56419
1.59645E+06 5.56019
1.60000E+06 5.55496
1.62500E+06 5.51716
1.63724E+06 5.49896
1.63742E+06 5.49870
1.64300E+06 5.49048
1.64310E+06 5.49032
1.64512E+06 5.48736
1.64522E+06 5.48721
1.65625E+06 5.47111
1.66248E+06 5.46209
1.66258E+06 5.46195
1.68750E+06 5.42636
1.68775E+06 5.42600
1.70000E+06 5.40880
1.70089E+06 5.40751
1.71875E+06 5.38200
1.72514E+06 5.37295
1.75000E+06 5.33809
1.76071E+06 5.32325
1.76082E+06 5.32309
1.76122E+06 5.32254
1.77662E+06 5.30140
1.78125E+06 5.29505
1.78140E+06 5.29485
1.78353E+06 5.29194
1.78827E+06 5.28546
1.80000E+06 5.26955
1.80160E+06 5.26741
1.81250E+06 5.25285
1.84375E+06 5.21140
1.86620E+06 5.18188
1.87500E+06 5.17037
1.88390E+06 5.15875
1.88422E+06 5.15834
1.88433E+06 5.15819
1.88916E+06 5.15191
1.90000E+06 5.13783
1.90028E+06 5.13747
1.90625E+06 5.12994
1.92736E+06 5.10337
1.92740E+06 5.10332
1.93750E+06 5.09063
1.95860E+06 5.06419
1.96875E+06 5.05150
1.98040E+06 5.03695
1.98524E+06 5.03091
1.98525E+06 5.03090
1.98566E+06 5.03039
1.99911E+06 5.01395
1.99921E+06 5.01382
2.00000E+06 5.01286
2.00596E+06 5.00602
2.01000E+06 5.00139
2.01000E+06 5.00139
2.02126E+06 4.98847
2.03829E+06 4.96896
2.03830E+06 4.96895
2.03839E+06 4.96885
2.05320E+06 4.95211
2.05353E+06 4.95174
2.05859E+06 4.94603
2.05859E+06 4.94603
2.05902E+06 4.94556
2.06060E+06 4.94380
2.06250E+06 4.94169
2.08961E+06 4.91167
2.09184E+06 4.90919
2.09403E+06 4.90678
2.09450E+06 4.90625
2.11764E+06 4.88068
2.12262E+06 4.87519
2.12500E+06 4.87256
2.12648E+06 4.87092
2.12649E+06 4.87091
2.12659E+06 4.87080
2.18750E+06 4.80561
2.20000E+06 4.79225
2.22903E+06 4.76190
2.22903E+06 4.76190
2.22950E+06 4.76141
2.22964E+06 4.76127
2.24264E+06 4.74782
2.24671E+06 4.74362
2.24671E+06 4.74362
2.24691E+06 4.74341
2.25000E+06 4.74023
2.25800E+06 4.73221
2.26533E+06 4.72487
2.26860E+06 4.72158
2.30660E+06 4.68343
2.30765E+06 4.68238
2.31250E+06 4.67750
2.31864E+06 4.67132
2.31985E+06 4.67010
2.35740E+06 4.63230
2.35744E+06 4.63226
2.35744E+06 4.63226
2.35744E+06 4.63226
2.36362E+06 4.62621
2.36774E+06 4.62217
2.36775E+06 4.62217
2.36785E+06 4.62207
2.36815E+06 4.62177
2.37500E+06 4.61512
2.39520E+06 4.59551
2.40000E+06 4.59084
2.41836E+06 4.57357
2.41870E+06 4.57325
2.41891E+06 4.57305
2.42150E+06 4.57061
2.42972E+06 4.56286
2.43750E+06 4.55552
2.43999E+06 4.55317
2.44473E+06 4.54870
2.44903E+06 4.54463
2.44953E+06 4.54417
2.45162E+06 4.54218
2.45172E+06 4.54210
2.45280E+06 4.54108
2.46405E+06 4.53043
2.46627E+06 4.52833
2.47524E+06 4.51984
2.49494E+06 4.50115
2.50000E+06 4.49635
2.50679E+06 4.49129
2.50709E+06 4.49106
2.51101E+06 4.48815
2.52000E+06 4.48144
2.52000E+06 4.48144
2.52050E+06 4.48106
2.52629E+06 4.47673
2.52781E+06 4.47559
2.53212E+06 4.47236
2.54735E+06 4.46092
2.55473E+06 4.45536
2.55483E+06 4.45528
2.55607E+06 4.45435
2.55790E+06 4.45297
2.56054E+06 4.45099
2.56055E+06 4.45097
2.56092E+06 4.45069
2.56110E+06 4.45056
2.56112E+06 4.45054
2.56250E+06 4.44950
2.56712E+06 4.44601
2.58908E+06 4.42937
2.59437E+06 4.42536
2.59457E+06 4.42521
2.60000E+06 4.42108
2.61615E+06 4.40967
2.62128E+06 4.40605
2.62159E+06 4.40583
2.62500E+06 4.40342
2.63803E+06 4.39420
2.63955E+06 4.39312
2.64107E+06 4.39204
2.64168E+06 4.39162
2.64645E+06 4.38825
2.68750E+06 4.35913
2.75000E+06 4.31461
2.76861E+06 4.30131
2.76923E+06 4.30087
2.76943E+06 4.30072
2.78973E+06 4.28619
2.79029E+06 4.28580
2.79069E+06 4.28551
2.79301E+06 4.28385
2.79783E+06 4.28039
2.80000E+06 4.27884
2.81250E+06 4.27053
2.83530E+06 4.25539
2.83594E+06 4.25497
2.85081E+06 4.24510
2.86636E+06 4.23479
2.87500E+06 4.22907
2.87936E+06 4.22618
2.88098E+06 4.22510
2.88100E+06 4.22509
2.90038E+06 4.21226
2.90103E+06 4.21183
2.90325E+06 4.21035
2.93750E+06 4.18769
2.98688E+06 4.15508
2.98755E+06 4.15463
2.99000E+06 4.15302
2.99000E+06 4.15302
2.99685E+06 4.14850
2.99690E+06 4.14847
2.99695E+06 4.14843
3.00000E+06 4.14642
3.03030E+06 4.13336
3.03120E+06 4.13297
3.03125E+06 4.13295
3.03160E+06 4.13280
3.03190E+06 4.13266
3.03292E+06 4.13223
3.04000E+06 4.12919
3.06250E+06 4.11951
3.07661E+06 4.11345
3.09375E+06 4.10609
3.09632E+06 4.10498
3.09773E+06 4.10438
3.12500E+06 4.09268
3.12520E+06 4.09260
3.12523E+06 4.09259
3.15323E+06 4.08060
3.18750E+06 4.06595
3.19817E+06 4.06140
3.21619E+06 4.05370
3.22371E+06 4.05050
3.22985E+06 4.04788
3.25000E+06 4.03930
3.30646E+06 4.01530
3.30712E+06 4.01502
3.37399E+06 3.98665
3.40452E+06 3.97372
3.40608E+06 3.97306
3.41362E+06 3.96987
3.44087E+06 3.95836
3.46410E+06 3.94855
3.50000E+06 3.93341
3.50000E+06 3.93341
3.50774E+06 3.93149
3.53530E+06 3.92468
3.53610E+06 3.92447
3.53680E+06 3.92431
3.53760E+06 3.92411
3.57462E+06 3.91538
3.57924E+06 3.91429
3.58087E+06 3.91390
3.61959E+06 3.90480
3.62153E+06 3.90434
3.64149E+06 3.89967
3.65927E+06 3.89551
3.66094E+06 3.89512
3.66458E+06 3.89427
3.70837E+06 3.88406
3.72848E+06 3.87939
3.72850E+06 3.87939
3.75000E+06 3.87441
3.77524E+06 3.86856
3.84211E+06 3.85314
3.92105E+06 3.83507
4.00000E+06 3.81712
4.02000E+06 3.81559
4.02000E+06 3.81559
4.12500E+06 3.80759
4.21930E+06 3.80042
4.25000E+06 3.79810
4.37500E+06 3.78864
4.45062E+06 3.78293
4.50000E+06 3.77921
4.51000E+06 3.77970
4.51000E+06 3.77970
4.62500E+06 3.78519
4.69462E+06 3.78840
4.75000E+06 3.79090
4.87500E+06 3.79637
4.95200E+06 3.79962
5.00000E+06 3.80160
5.00000E+06 3.80160
5.01563E+06 3.80423
5.02627E+06 3.80602
5.03125E+06 3.80686
5.04688E+06 3.80947
5.05255E+06 3.81042
5.06250E+06 3.81208
5.07813E+06 3.81468
5.07882E+06 3.81479
5.09375E+06 3.81726
5.10510E+06 3.81914
5.10938E+06 3.81985
5.12500E+06 3.82242
5.13137E+06 3.82346
5.14063E+06 3.82498
5.15625E+06 3.82754
5.15764E+06 3.82777
5.17188E+06 3.83009
5.18392E+06 3.83205
5.18750E+06 3.83263
5.20313E+06 3.83516
5.21019E+06 3.83630
5.21875E+06 3.83769
5.23438E+06 3.84020
5.24457E+06 3.84184
5.25000E+06 3.84271
5.26563E+06 3.84521
5.27895E+06 3.84734
5.28125E+06 3.84771
5.29688E+06 3.85019
5.31250E+06 3.85267
5.31333E+06 3.85280
5.32813E+06 3.85514
5.34375E+06 3.85760
5.34772E+06 3.85823
5.35938E+06 3.86006
5.37500E+06 3.86250
5.38210E+06 3.86361
5.39063E+06 3.86495
5.40625E+06 3.86738
5.41648E+06 3.86897
5.42188E+06 3.86980
5.43750E+06 3.87222
5.45086E+06 3.87428
5.45313E+06 3.87463
5.46875E+06 3.87703
5.48438E+06 3.87943
5.48524E+06 3.87956
5.50000E+06 3.88183
5.50152E+06 3.88206
5.51563E+06 3.88422
5.53125E+06 3.88660
5.54350E+06 3.88846
5.54688E+06 3.88898
5.56250E+06 3.89134
5.57813E+06 3.89370
5.58548E+06 3.89481
5.59375E+06 3.89606
5.60938E+06 3.89840
5.62500E+06 3.90074
5.62746E+06 3.90111
5.64063E+06 3.90308
5.65625E+06 3.90541
5.66944E+06 3.90737
5.67188E+06 3.90773
5.68506E+06 3.90969
5.68750E+06 3.91005
5.70313E+06 3.91236
5.71875E+06 3.91466
5.72443E+06 3.91550
5.73438E+06 3.91696
5.75000E+06 3.91925
5.76380E+06 3.92126
5.76563E+06 3.92153
5.78125E+06 3.92381
5.79688E+06 3.92608
5.80316E+06 3.92699
5.81250E+06 3.92834
5.82813E+06 3.93060
5.84253E+06 3.93268
5.84375E+06 3.93286
5.85938E+06 3.93510
5.87500E+06 3.93734
5.88190E+06 3.93833
5.89063E+06 3.93958
5.90625E+06 3.94181
5.92127E+06 3.94394
5.92188E+06 3.94403
5.93750E+06 3.94625
5.95313E+06 3.94846
5.96063E+06 3.94952
5.96875E+06 3.95067
5.98438E+06 3.95287
6.00000E+06 3.95506
6.02000E+06 3.95888
6.02000E+06 3.95888
6.06250E+06 3.96695
6.12500E+06 3.97873
6.12664E+06 3.97904
6.18750E+06 3.99039
6.25000E+06 4.00193
6.25328E+06 4.00254
6.31250E+06 4.01336
6.37500E+06 4.02468
6.39579E+06 4.02842
6.43750E+06 4.03588
6.48074E+06 4.04358
6.50000E+06 4.04698
6.56250E+06 4.05798
6.58186E+06 4.06136
6.62500E+06 4.06887
6.68298E+06 4.07888
6.68750E+06 4.07966
6.75000E+06 4.09035
6.78409E+06 4.09614
6.81250E+06 4.10094
6.87500E+06 4.11144
6.88521E+06 4.11314
6.88694E+06 4.11343
6.88766E+06 4.11355
6.89675E+06 4.11507
6.93750E+06 4.12184
6.99205E+06 4.13084
7.00000E+06 4.13215
7.03335E+06 4.13634
7.04000E+06 4.13718
7.04000E+06 4.13718
7.06546E+06 4.14037
7.07056E+06 4.14100
7.14112E+06 4.14977
7.21167E+06 4.15845
7.23762E+06 4.16162
7.28223E+06 4.16705
7.35278E+06 4.17556
7.42334E+06 4.18400
7.45347E+06 4.18758
7.45430E+06 4.18767
7.45598E+06 4.18788
7.48331E+06 4.19110
7.49390E+06 4.19235
7.53044E+06 4.19666
7.54412E+06 4.19826
7.54566E+06 4.19844
7.54755E+06 4.19866
7.56445E+06 4.20064
7.67334E+06 4.21327
7.71054E+06 4.21754
7.71191E+06 4.21770
7.73734E+06 4.22061
7.78223E+06 4.22573
7.89064E+06 4.23798
7.89065E+06 4.23798
7.89112E+06 4.23803
8.00000E+06 4.25015
8.00000E+06 4.25015
8.09201E+06 4.25625
8.18403E+06 4.26228
8.23907E+06 4.26585
8.27604E+06 4.26823
8.29411E+06 4.26940
8.36805E+06 4.27413
8.37937E+06 4.27486
8.38459E+06 4.27518
8.46006E+06 4.27997
8.47504E+06 4.28091
8.48528E+06 4.28156
8.55207E+06 4.28572
8.58324E+06 4.28766
8.58822E+06 4.28796
8.64408E+06 4.29142
8.70061E+06 4.29489
8.73003E+06 4.29668
8.73046E+06 4.29672
8.73143E+06 4.29677
8.73609E+06 4.29704
8.73885E+06 4.29719
8.76111E+06 4.29844
8.78336E+06 4.29971
8.80562E+06 4.30099
8.82787E+06 4.30229
8.84981E+06 4.30359
8.86805E+06 4.30468
8.87175E+06 4.30490
8.89369E+06 4.30623
8.91563E+06 4.30758
8.93361E+06 4.30870
8.95021E+06 4.30973
8.96681E+06 4.31077
8.98340E+06 4.31183
8.99000E+06 4.31224
8.99000E+06 4.31225
9.00000E+06 4.31289
9.03003E+06 4.31262
9.06005E+06 4.31240
9.09008E+06 4.31223
9.11963E+06 4.31211
9.12011E+06 4.31211
9.15013E+06 4.31204
9.18016E+06 4.31201
9.21018E+06 4.31204
9.23926E+06 4.31211
9.24021E+06 4.31211
9.25057E+06 4.31214
9.25523E+06 4.31215
9.28581E+06 4.31230
9.31639E+06 4.31249
9.32621E+06 4.31256
9.35889E+06 4.31283
9.36031E+06 4.31284
9.39440E+06 4.31318
9.39472E+06 4.31319
9.39988E+06 4.31324
9.40010E+06 4.31326
9.43931E+06 4.31373
9.47852E+06 4.31429
9.48683E+06 4.31442
9.55576E+06 4.31561
9.62468E+06 4.31703
9.62972E+06 4.31713
9.68488E+06 4.31845
9.74004E+06 4.31991
9.74409E+06 4.32001
9.76036E+06 4.32047
9.77649E+06 4.32094
9.78944E+06 4.32133
9.84274E+06 4.32299
9.89603E+06 4.32477
9.89837E+06 4.32486
9.94919E+06 4.32670
1.00000E+07 4.32865
1.00300E+07 4.32744
1.00300E+07 4.32744
1.01220E+07 4.32393
1.02441E+07 4.31977
1.02500E+07 4.31959
1.03661E+07 4.31616
1.04881E+07 4.31307
1.05000E+07 4.31281
1.06108E+07 4.31050
1.07215E+07 4.30861
1.07500E+07 4.30820
1.08608E+07 4.30684
1.10000E+07 4.30570
1.10371E+07 4.30329
1.10743E+07 4.30091
1.11114E+07 4.29856
1.11485E+07 4.29625
1.11737E+07 4.29471
1.11982E+07 4.29322
1.11988E+07 4.29318
1.12240E+07 4.29167
1.12491E+07 4.29017
1.12791E+07 4.28841
1.13091E+07 4.28666
1.13391E+07 4.28494
1.13691E+07 4.28324
1.13963E+07 4.28172
1.13991E+07 4.28156
1.14291E+07 4.27991
1.14591E+07 4.27827
1.14891E+07 4.27666
1.15000E+07 4.27608
1.15366E+07 4.27416
1.15732E+07 4.27226
1.15945E+07 4.27117
1.16097E+07 4.27040
1.16463E+07 4.26857
1.16829E+07 4.26677
1.17195E+07 4.26501
1.17560E+07 4.26327
1.17926E+07 4.26157
1.18715E+07 4.25794
1.19358E+07 4.25509
1.20000E+07 4.25234
1.20000E+07 4.25234
1.20515E+07 4.24803
1.21029E+07 4.24377
1.21544E+07 4.23955
1.22058E+07 4.23538
1.22500E+07 4.23184
1.22573E+07 4.23125
1.23087E+07 4.22718
1.23602E+07 4.22315
1.24117E+07 4.21916
1.24631E+07 4.21523
1.25000E+07 4.21243
1.25146E+07 4.21133
1.25660E+07 4.20749
1.26175E+07 4.20369
1.26689E+07 4.19993
1.27204E+07 4.19622
1.27500E+07 4.19411
1.27719E+07 4.19255
1.28233E+07 4.18893
1.28314E+07 4.18836
1.29157E+07 4.18253
1.30000E+07 4.17683
1.31250E+07 4.16290
1.32500E+07 4.14923
1.33750E+07 4.13580
1.35000E+07 4.12263
1.36035E+07 4.11190
1.37069E+07 4.10134
1.38342E+07 4.08857
1.39615E+07 4.07605
1.39800E+07 4.07425
1.39800E+07 4.07425
1.40000E+07 4.07231
1.41806E+07 4.04784
1.43611E+07 4.02387
1.43671E+07 4.02308
1.43694E+07 4.02278
1.45000E+07 4.00576
1.45009E+07 4.00564
1.45019E+07 4.00552
1.45039E+07 4.00525
1.45058E+07 4.00500
1.45078E+07 4.00475
1.45117E+07 4.00424
1.45156E+07 4.00373
1.45195E+07 4.00323
1.45234E+07 4.00272
1.45312E+07 4.00171
1.45390E+07 4.00070
1.45468E+07 3.99968
1.45625E+07 3.99766
1.45781E+07 3.99565
1.45937E+07 3.99364
1.46250E+07 3.98962
1.46562E+07 3.98562
1.46875E+07 3.98162
1.47187E+07 3.97766
1.47500E+07 3.97368
1.47812E+07 3.96975
1.48125E+07 3.96581
1.48750E+07 3.95799
1.49597E+07 3.94747
1.50000E+07 3.94250
1.51852E+07 3.91757
1.54015E+07 3.88899
1.56177E+07 3.86097
1.56321E+07 3.85912
1.56503E+07 3.85677
1.56847E+07 3.85236
1.57274E+07 3.84690
1.58773E+07 3.82786
1.60000E+07 3.81247
1.61365E+07 3.79765
1.61510E+07 3.79609
1.62958E+07 3.78055
1.63869E+07 3.77089
1.64472E+07 3.76452
1.67032E+07 3.73769
1.67087E+07 3.73712
1.67104E+07 3.73696
1.69056E+07 3.71686
1.69900E+07 3.70828
1.69900E+07 3.70828
1.70000E+07 3.70727
1.72289E+07 3.69005
1.72426E+07 3.68903
1.74015E+07 3.67727
1.79355E+07 3.63889
1.79482E+07 3.63800
1.79483E+07 3.63799
1.80000E+07 3.63438
1.90000E+07 3.56542
2.00000E+07 3.50001