Pd-106(n,tot) ENDF/B-VII.1
Energy(eV) XS(b)
1.00000E-05 20.1211
1.25000E-05 18.4831
1.50000E-05 17.2739
2.00000E-05 15.5767
2.75000E-05 13.9617
3.50000E-05 12.8989
4.25000E-05 12.1316
5.00000E-05 11.5443
6.25000E-05 10.8117
7.50000E-05 10.2710
0.000100000 9.51193
0.000125000 8.99393
0.000150000 8.61157
0.000200000 8.07484
0.000275000 7.56415
0.000350000 7.22806
0.000425000 6.98542
0.000500000 6.79967
0.000625000 6.56801
0.000750000 6.39701
0.00100000 6.15698
0.00125000 5.99316
0.00150000 5.87224
0.00200000 5.70251
0.00275000 5.54100
0.00350000 5.43470
0.00425000 5.35796
0.00500000 5.29921
0.00625000 5.22594
0.00750000 5.17185
0.0100000 5.09591
0.0125000 5.04409
0.0150000 5.00582
0.0200000 4.95210
0.0253000 4.91359
0.0314750 4.88163
0.0376500 4.85788
0.0500000 4.82436
0.0625000 4.80111
0.0750000 4.78393
0.100000 4.75978
0.125000 4.74326
0.150000 4.73104
0.200000 4.71381
0.275000 4.69731
0.350000 4.68635
0.500000 4.67217
0.750000 4.65845
1.00000 4.64993
1.50000 4.63917
2.00000 4.63214
2.75000 4.62466
3.50000 4.61904
5.00000 4.61048
7.50000 4.59980
10.0000 4.59115
15.0000 4.57650
20.0000 4.56350
27.5000 4.54523
35.0000 4.52743
50.0000 4.49130
56.6833 4.47468
60.0249 4.46696
60.8603 4.46571
61.6957 4.46616
62.1134 4.46865
62.3223 4.47162
62.5311 4.47735
62.7400 4.48968
62.8444 4.50164
62.9488 4.52248
63.0532 4.56335
63.1054 4.60018
63.1577 4.66002
63.2099 4.76631
63.2360 4.85291
63.2621 4.97996
63.2882 5.17546
63.3143 5.49286
63.3404 6.03794
63.3665 6.99775
63.3933 8.52290
63.4200 9.54030
63.4468 8.52447
63.4735 6.99960
63.4913 6.28758
63.5092 5.80292
63.5449 5.24592
63.5805 4.96526
63.6162 4.80867
63.6519 4.71361
63.6875 4.65195
63.7589 4.57982
63.8302 4.54097
63.9016 4.51769
64.0442 4.49234
64.1869 4.47948
64.3296 4.47198
64.6150 4.46382
64.9003 4.45950
65.1857 4.45675
65.7564 4.45319
66.8979 4.44861
68.0393 4.44495
72.6051 4.43166
81.7368 4.40470
100.000 4.34471
123.156 4.25278
134.733 4.19894
137.628 4.18546
140.522 4.17424
141.969 4.17225
142.693 4.17417
143.417 4.18097
144.140 4.20002
144.502 4.22089
144.864 4.26033
145.045 4.29399
145.226 4.34551
145.407 4.42962
145.587 4.58007
145.678 4.70407
145.768 4.88874
145.859 5.18162
145.949 5.68489
146.040 6.66120
146.085 7.53211
146.130 8.93622
146.175 11.4097
146.221 16.2953
146.243 20.6907
146.266 27.7073
146.288 39.4755
146.311 59.6232
146.336 93.1485
146.360 115.599
146.385 93.1626
146.409 59.6408
146.429 41.0154
146.450 29.5930
146.470 22.4389
146.490 17.8295
146.531 12.5213
146.572 9.75462
146.613 8.14865
146.653 7.13921
146.735 5.99389
146.816 5.39518
146.897 5.04401
146.979 4.82070
147.060 4.67011
147.223 4.48539
147.386 4.38070
147.549 4.31553
147.711 4.27211
148.037 4.21926
148.362 4.18916
149.013 4.15689
149.664 4.13978
150.315 4.12882
151.618 4.11468
152.920 4.10601
153.571 4.10383
154.222 4.10442
154.873 4.11152
155.198 4.12098
155.524 4.14000
155.850 4.18239
156.012 4.22462
156.175 4.30004
156.338 4.45367
156.419 4.59770
156.501 4.84171
156.582 5.30446
156.623 5.70781
156.663 6.34176
156.704 7.41450
156.745 9.41597
156.765 11.1142
156.785 13.6497
156.806 17.5658
156.826 23.6433
156.853 35.5443
156.880 43.5456
156.907 35.5491
156.934 23.6491
156.955 17.3813
156.976 13.4275
156.997 10.8910
157.018 9.22534
157.060 7.27062
157.102 6.23473
157.144 5.62438
157.186 5.23831
157.271 4.79587
157.355 4.56240
157.439 4.42481
157.607 4.27718
157.775 4.20354
157.944 4.16135
158.280 4.11665
158.616 4.09398
158.953 4.08032
159.626 4.06405
160.299 4.05377
160.972 4.04587
162.317 4.03291
165.009 4.01028
167.701 3.98829
178.467 3.89347
200.000 3.64201
210.200 3.47798
220.400 3.26817
230.599 2.99022
240.799 2.60580
245.899 2.35413
250.999 2.04749
256.099 1.67257
261.199 1.22667
263.749 0.992121
266.298 0.786248
267.573 0.717883
268.848 0.699251
269.486 0.719738
269.805 0.740285
270.123 0.769135
270.442 0.807616
270.761 0.857236
271.080 0.919801
271.398 0.997427
271.717 1.09265
272.036 1.20838
272.355 1.34823
272.673 1.51635
273.311 1.95914
273.948 2.59220
274.586 3.49905
275.223 4.80911
275.861 6.73006
276.498 9.60885
277.136 14.0584
277.773 21.2278
278.411 33.4622
279.048 56.1003
279.367 75.0413
279.686 103.365
280.004 147.975
280.323 223.103
280.642 362.020
280.801 478.961
280.961 655.172
281.120 935.183
281.279 1407.92
281.439 2262.06
281.598 3863.49
281.749 6324.62
281.900 8084.73
282.051 6612.77
282.202 4225.90
282.341 2756.25
282.479 1880.85
282.618 1349.82
282.757 1012.62
283.034 630.934
283.311 433.505
283.589 318.701
283.866 246.050
284.420 162.430
284.975 117.627
285.530 90.6331
286.084 72.9900
286.639 60.7504
287.748 45.1770
288.857 35.8885
289.966 29.8271
291.076 25.6098
293.294 20.1978
295.512 16.9214
297.731 14.7534
298.840 13.9458
299.395 13.6585
299.533 13.6452
299.672 13.7435
299.741 13.9164
299.810 14.3449
299.845 14.7977
299.880 15.6288
299.914 17.3197
299.932 18.8077
299.949 21.0131
299.975 25.6746
300.000 28.7750
300.026 25.6456
300.051 20.9544
300.077 17.8870
300.103 16.1894
300.129 15.2125
300.155 14.6131
300.207 13.9514
300.259 13.6116
300.363 13.2727
300.467 13.0967
300.676 12.8882
300.884 12.7412
301.717 12.2898
303.382 11.5665
306.713 10.4711
313.376 9.06997
320.038 8.21443
326.700 7.63900
333.363 7.22566
340.025 6.91423
353.350 6.47530
366.675 6.17939
379.999 5.96497
393.324 5.80160
396.655 5.76691
399.986 5.73519
401.652 5.72148
403.318 5.71245
404.150 5.71390
404.567 5.71915
404.983 5.73178
405.400 5.76259
405.608 5.79453
405.816 5.85300
405.920 5.90178
406.024 5.97508
406.128 6.09208
406.232 6.29509
406.336 6.69279
406.389 7.05219
406.441 7.63709
406.493 8.68357
406.519 9.53986
406.545 10.8040
406.571 12.7643
406.597 15.9841
406.623 21.5994
406.649 31.6930
406.674 47.3029
406.700 57.7080
406.726 47.3032
406.751 31.6931
406.779 21.2887
406.806 15.6393
406.833 12.4598
406.860 10.5493
406.887 9.32861
406.914 8.50741
406.968 7.51186
407.022 6.95750
407.077 6.61863
407.185 6.24388
407.293 6.05240
407.402 5.94152
407.510 5.87150
407.619 5.82435
407.835 5.76644
408.052 5.73320
408.486 5.69744
408.919 5.67853
409.353 5.66646
410.220 5.65070
411.954 5.63021
413.689 5.61401
417.157 5.58534
420.626 5.55887
434.500 5.46487
448.374 5.38470
451.843 5.36678
455.311 5.35065
457.046 5.34448
458.780 5.34329
459.647 5.34933
460.081 5.35747
460.514 5.37396
460.948 5.41111
461.165 5.44852
461.381 5.51613
461.490 5.57226
461.598 5.65643
461.707 5.79067
461.815 6.02372
461.923 6.48134
461.978 6.89575
462.032 7.57405
462.086 8.79239
462.113 9.79724
462.140 11.2905
462.167 13.6265
462.194 17.5112
462.221 24.4051
462.248 37.0167
462.274 56.0579
462.300 68.7597
462.326 56.0574
462.352 37.0160
462.370 27.6320
462.388 21.4209
462.407 17.3073
462.425 14.5143
462.462 11.1491
462.499 9.31517
462.536 8.21425
462.572 7.50777
462.646 6.69099
462.719 6.25527
462.793 5.99694
462.866 5.83124
462.940 5.71867
463.087 5.57982
463.234 5.50065
463.381 5.45116
463.528 5.41811
463.822 5.37776
464.117 5.35473
464.705 5.33000
465.293 5.31687
465.881 5.30841
467.058 5.29719
469.411 5.28216
471.764 5.26998
476.470 5.24798
481.176 5.22730
490.588 5.18818
500.000 5.15159
505.462 5.13192
508.192 5.12294
510.923 5.11519
513.654 5.11039
515.019 5.11071
516.385 5.11550
517.067 5.12130
517.750 5.13153
518.433 5.15001
519.115 5.18577
519.457 5.21673
519.798 5.26462
520.139 5.34379
520.481 5.48765
520.651 5.60799
520.822 5.79009
520.993 6.08435
521.163 6.60490
521.249 7.03069
521.334 7.66049
521.419 8.64930
521.505 10.3298
521.590 13.5321
521.633 16.3390
521.675 20.7644
521.718 28.3321
521.761 42.5932
521.782 54.8738
521.803 73.4493
521.825 102.599
521.846 148.628
521.873 234.671
521.900 291.999
521.927 234.351
521.954 148.389
521.974 104.179
521.995 75.6761
522.015 57.1268
522.035 44.7053
522.075 29.9512
522.116 22.0059
522.156 17.2863
522.197 14.2854
522.278 10.8330
522.358 9.00309
522.439 7.92272
522.520 7.23133
522.601 6.76363
522.763 6.18876
522.924 5.86259
523.086 5.65985
523.248 5.52524
523.571 5.36300
523.895 5.27243
524.218 5.21656
524.541 5.17952
525.188 5.13452
525.835 5.10877
526.482 5.09222
527.128 5.08063
528.422 5.06506
529.715 5.05451
532.303 5.03946
534.890 5.02771
537.477 5.01732
542.651 4.99841
547.825 4.98111
552.999 4.96646
555.586 4.96227
556.880 4.96256
558.174 4.96676
559.467 4.98080
560.114 4.99695
560.761 5.02816
561.084 5.05516
561.407 5.09688
561.731 5.16578
562.054 5.29085
562.216 5.39535
562.378 5.55333
562.539 5.80834
562.701 6.25916
562.782 6.62731
562.863 7.17120
562.944 8.02517
563.024 9.47231
563.105 12.2221
563.146 14.6215
563.186 18.4019
563.227 24.8219
563.267 36.8672
563.287 47.1155
563.307 62.5759
563.328 86.6372
563.348 124.269
563.374 195.958
563.400 243.475
563.426 195.634
563.452 124.228
563.482 74.5283
563.511 48.4682
563.540 34.1831
563.569 25.7554
563.598 20.4406
563.628 16.8991
563.686 12.6473
563.744 10.3023
563.803 8.87850
563.919 7.31547
564.036 6.52204
564.153 6.06574
564.270 5.77958
564.387 5.58855
564.620 5.35689
564.854 5.22717
565.087 5.14711
565.321 5.09418
565.788 5.03043
566.255 4.99464
566.722 4.97226
567.189 4.95711
568.123 4.93793
569.057 4.92609
570.926 4.91127
572.794 4.90127
574.662 4.89330
578.399 4.88049
582.136 4.87156
584.004 4.86987
585.873 4.87255
586.807 4.87720
587.741 4.88618
588.675 4.90320
589.609 4.93715
590.076 4.96699
590.543 5.01354
591.011 5.09110
591.478 5.23324
591.711 5.35298
591.945 5.53519
592.178 5.83209
592.412 6.36338
592.529 6.80248
592.645 7.45981
592.762 8.50745
592.879 10.3247
592.996 13.9019
593.054 17.1492
593.112 22.4680
593.171 32.0751
593.200 40.0342
593.229 51.9146
593.258 70.6141
593.288 101.977
593.317 158.319
593.346 263.075
593.373 418.281
593.400 521.229
593.427 417.716
593.454 263.134
593.479 169.213
593.504 114.380
593.529 81.7164
593.555 61.2723
593.605 38.5691
593.655 27.1037
593.705 20.5804
593.755 16.5360
593.856 12.0065
593.956 9.66786
594.057 8.30733
594.157 7.44737
594.257 6.87011
594.458 6.16615
594.659 5.77017
594.860 5.52526
595.060 5.36337
595.462 5.16892
595.863 5.06080
596.265 4.99425
596.666 4.95016
597.469 4.89664
598.272 4.86599
599.076 4.84623
599.879 4.83233
601.485 4.81349
603.091 4.80053
606.303 4.78166
609.515 4.76649
612.727 4.75273
619.152 4.72667
625.576 4.70110
632.000 4.67542
638.425 4.65003
641.637 4.64042
642.440 4.64091
643.243 4.64835
643.644 4.66134
644.046 4.69965
644.247 4.75139
644.347 4.80095
644.447 4.88669
644.548 5.05436
644.598 5.20524
644.648 5.45044
644.698 5.88606
644.724 6.24127
644.749 6.76315
644.774 7.56712
644.799 8.87554
644.824 11.1281
644.849 15.0884
644.875 21.3770
644.900 25.5465
644.926 21.3538
644.951 15.0918
644.979 10.8336
645.006 8.56015
645.034 7.28853
645.061 6.53253
645.089 6.05008
645.116 5.72786
645.171 5.33829
645.227 5.12160
645.282 4.98945
645.392 4.84367
645.502 4.76920
645.612 4.72612
645.832 4.68051
646.273 4.64479
646.713 4.63049
647.594 4.61757
648.475 4.61048
651.999 4.59184
659.048 4.55933
673.144 4.49176
701.337 4.33590
729.530 4.13812
757.723 3.87035
785.916 3.47524
800.013 3.19258
814.109 2.81119
821.157 2.56475
828.206 2.26482
835.254 1.89284
842.302 1.42524
845.826 1.14991
849.350 0.851537
852.875 0.555301
854.637 0.431378
856.399 0.354695
857.280 0.348845
858.161 0.377874
858.601 0.410110
859.042 0.457464
859.482 0.523114
859.923 0.610983
860.363 0.725966
860.804 0.874095
861.244 1.06305
861.685 1.30256
862.566 1.98679
863.447 3.07904
864.328 4.84903
865.209 7.80351
866.090 12.9754
866.530 17.0279
866.971 22.7013
867.412 30.8802
867.852 43.1023
868.293 62.2381
868.733 94.0726
869.174 151.527
869.394 198.598
869.614 267.545
869.834 372.829
870.055 540.942
870.275 821.719
870.495 1298.29
870.748 2152.00
871.000 2784.61
871.253 2304.63
871.505 1489.50
871.701 1044.84
871.896 755.332
872.092 566.336
872.288 439.222
872.679 286.883
873.070 203.578
873.461 153.282
873.853 120.595
874.635 81.9188
875.418 60.5987
876.200 47.4789
876.983 38.7564
877.765 32.6155
879.330 24.6554
880.895 19.7910
882.460 16.5397
884.025 14.2193
887.155 11.1150
890.285 9.09207
893.415 7.61173
896.545 6.41878
902.805 4.37709
905.935 3.36893
909.065 2.30686
910.630 1.76643
912.195 1.26422
913.760 0.918034
914.151 0.887004
914.543 0.893953
914.934 0.951655
915.325 1.07746
915.716 1.29539
915.912 1.44884
916.108 1.63882
916.499 2.15551
916.890 2.91411
917.281 4.01706
917.673 5.61879
918.064 7.96284
918.455 11.4418
918.846 16.7248
919.238 25.0008
919.629 38.5474
920.020 62.0678
920.411 106.457
920.607 144.066
920.803 200.694
920.998 289.930
921.194 437.886
921.389 696.645
921.585 1161.18
921.793 1960.48
922.000 2582.23
922.208 2173.99
922.415 1428.35
922.591 983.601
922.767 702.617
922.943 523.966
923.119 406.095
923.470 267.227
923.822 192.197
924.174 147.090
924.526 117.754
925.229 82.8862
925.933 63.4725
926.637 51.3888
927.340 43.2620
928.044 37.4775
929.451 29.8722
930.858 25.1474
932.265 21.9518
933.673 19.6559
936.487 16.5867
939.301 14.6319
942.116 13.2766
944.930 12.2795
950.559 10.9042
956.188 9.99505
959.002 9.64856
961.816 9.36360
963.224 9.25416
963.927 9.21687
964.631 9.20503
964.983 9.21760
965.334 9.25363
965.686 9.33259
966.038 9.49992
966.214 9.64951
966.390 9.88313
966.566 10.2693
966.742 10.9639
966.830 11.5363
966.917 12.3865
967.005 13.7280
967.093 16.0124
967.181 20.3774
967.225 24.2115
967.269 30.2685
967.313 40.6515
967.357 60.2930
967.379 77.2227
967.401 103.049
967.423 143.821
967.445 208.283
967.473 327.978
967.500 407.783
967.528 327.978
967.555 208.281
967.587 123.282
967.618 79.6110
967.650 56.0265
967.682 42.2526
967.714 33.6269
967.745 27.9078
967.809 21.0821
967.872 17.3264
967.935 15.0516
968.062 12.5577
968.189 11.2907
968.316 10.5598
968.442 10.0981
968.569 9.78710
968.823 9.40331
969.076 9.18064
969.330 9.03661
969.583 8.93556
970.090 8.80034
970.597 8.70987
971.611 8.58443
972.625 8.49021
973.639 8.40960
975.666 8.26788
979.722 8.02005
983.778 7.79380
987.833 7.57238
991.889 7.33518
993.917 7.19888
995.944 7.03776
997.972 6.83036
998.986 6.69612
1000.00 6.52774
1000.66 6.39205
1001.31 6.22560
1001.97 6.01554
1002.62 5.74352
1002.95 5.57670
1003.27 5.38850
1003.60 5.18582
1003.93 5.00662
1004.09 4.96506
1004.26 5.01614
1004.42 5.28025
1004.58 6.05628
1004.67 6.87006
1004.75 8.25465
1004.83 10.7009
1004.87 12.6189
1004.91 15.2177
1004.93 16.9849
1004.95 19.0108
1004.97 21.5930
1004.99 24.6044
1005.01 28.5176
1005.03 33.1809
1005.05 39.3912
1005.07 46.9989
1005.10 57.4535
1005.12 70.7229
1005.14 89.7078
1005.16 114.910
1005.18 152.792
1005.20 205.680
1005.22 283.945
1005.24 399.508
1005.27 673.244
1005.30 876.932
1005.32 846.854
1005.33 737.863
1005.36 484.820
1005.40 302.722
1005.43 202.498
1005.47 145.292
1005.50 110.334
1005.54 87.5761
1005.57 71.9597
1005.64 52.6770
1005.71 41.2877
1005.78 34.1305
1005.92 25.6820
1006.06 21.0038
1006.20 18.1282
1006.34 16.1948
1006.48 14.8169
1006.76 12.9948
1007.04 11.8624
1007.31 11.0929
1007.59 10.5377
1008.15 9.79087
1008.70 9.31351
1009.26 8.98046
1009.82 8.73486
1010.93 8.39329
1012.04 8.16480
1013.16 7.99860
1014.27 7.87048
1016.50 7.68157
1018.72 7.54470
1023.18 7.34927
1027.63 7.20769
1032.08 7.09495
1040.99 6.91781
1058.80 6.66308
1076.61 6.47724
1112.23 6.21054
1121.13 6.15766
1130.04 6.10890
1138.94 6.06528
1141.17 6.05659
1143.40 6.05231
1144.51 6.05602
1145.62 6.07612
1146.18 6.10828
1146.46 6.14119
1146.74 6.20138
1147.01 6.32852
1147.15 6.45145
1147.29 6.66770
1147.43 7.10119
1147.50 7.50611
1147.57 8.17513
1147.64 9.44039
1147.68 10.5288
1147.71 12.1560
1147.74 14.9118
1147.78 19.8816
1147.80 24.0797
1147.81 29.8247
1147.83 38.2273
1147.85 50.4778
1147.87 77.1527
1147.90 94.9355
1147.93 77.1507
1147.95 50.4751
1147.98 31.9674
1148.01 22.5019
1148.04 17.0726
1148.07 13.9629
1148.10 11.9205
1148.12 10.6028
1148.18 8.98169
1148.24 8.08485
1148.29 7.53913
1148.41 6.94201
1148.52 6.63503
1148.64 6.45825
1148.86 6.27344
1149.09 6.18282
1149.32 6.13191
1149.77 6.07887
1150.68 6.03714
1151.59 6.01956
1153.41 6.00157
1155.23 5.98996
1162.50 5.95481
1169.78 5.92370
1177.05 5.89423
1184.33 5.86611
1191.60 5.83978
1195.24 5.82813
1198.87 5.82016
1200.69 5.82106
1202.51 5.83576
1203.42 5.86191
1203.88 5.88952
1204.33 5.94083
1204.78 6.05118
1205.01 6.15990
1205.24 6.35473
1205.35 6.51656
1205.47 6.75921
1205.58 7.14667
1205.69 7.81318
1205.81 9.13568
1205.86 10.3387
1205.92 12.2724
1205.98 15.8114
1206.01 18.8077
1206.03 23.1274
1206.06 30.1818
1206.09 41.6018
1206.12 61.8823
1206.15 99.1751
1206.17 155.910
1206.20 191.707
1206.23 153.684
1206.25 99.1838
1206.28 64.8906
1206.30 45.6048
1206.33 33.5841
1206.35 26.3492
1206.40 18.0922
1206.45 13.9784
1206.50 11.5746
1206.55 10.0856
1206.64 8.43138
1206.74 7.56677
1206.84 7.06856
1206.94 6.75270
1207.03 6.53999
1207.23 6.27921
1207.42 6.13232
1207.81 5.98139
1208.20 5.90860
1208.59 5.86786
1209.37 5.82527
1210.15 5.80382
1210.93 5.79082
1212.48 5.77506
1215.60 5.75671
1218.72 5.74323
1224.95 5.71978
1231.18 5.69771
1256.10 5.61153
1268.56 5.56749
1281.03 5.52156
1287.26 5.49762
1293.49 5.47309
1299.72 5.45014
1301.28 5.44683
1302.83 5.44978
1303.61 5.45985
1304.39 5.49407
1304.78 5.54350
1304.98 5.59266
1305.17 5.68036
1305.37 5.86171
1305.46 6.03309
1305.56 6.32789
1305.66 6.90735
1305.71 7.42832
1305.75 8.25216
1305.80 9.73414
1305.85 12.6138
1305.88 15.3323
1305.90 19.5329
1305.92 26.5768
1305.95 38.6312
1305.97 58.6526
1306.00 72.0396
1306.03 58.6540
1306.05 38.6329
1306.07 29.4613
1306.09 23.4852
1306.12 16.1994
1306.15 12.4444
1306.18 10.3185
1306.22 9.01539
1306.25 8.16457
1306.32 7.16331
1306.38 6.62153
1306.45 6.29659
1306.58 5.94355
1306.71 5.76616
1306.84 5.66459
1307.11 5.55844
1307.64 5.47729
1308.16 5.44624
1309.22 5.42046
1310.28 5.40819
1312.39 5.39336
1314.50 5.38270
1316.61 5.37518
1318.72 5.37607
1319.78 5.38786
1320.31 5.40258
1320.83 5.43180
1321.36 5.49705
1321.63 5.56269
1321.89 5.68166
1322.15 5.92981
1322.29 6.16888
1322.42 6.58721
1322.55 7.41921
1322.62 8.18309
1322.68 9.45229
1322.75 11.7839
1322.78 13.7520
1322.81 16.7453
1322.85 21.5791
1322.88 29.9867
1322.91 45.9042
1322.95 76.4383
1322.97 120.064
1323.00 147.820
1323.03 118.405
1323.06 76.4421
1323.08 49.4287
1323.11 34.5860
1323.14 25.5475
1323.16 20.1694
1323.19 16.5231
1323.21 14.1255
1323.27 11.1482
1323.32 9.42508
1323.37 8.36308
1323.48 7.18796
1323.58 6.57686
1323.69 6.22531
1323.79 6.00276
1323.90 5.85299
1324.11 5.66941
1324.32 5.56618
1324.74 5.45882
1325.16 5.40638
1325.58 5.37621
1326.42 5.34309
1328.11 5.31201
1329.79 5.29362
1333.16 5.26481
1336.53 5.23759
1343.27 5.17877
1350.00 5.10878
1356.74 5.02127
1363.48 4.90625
1366.84 4.83324
1370.21 4.74576
1371.90 4.69570
1373.58 4.64269
1374.42 4.61797
1375.26 4.60387
1375.69 4.61295
1376.11 4.66774
1376.32 4.75494
1376.42 4.84176
1376.53 4.99515
1376.63 5.30320
1376.69 5.58436
1376.74 6.03531
1376.79 6.85849
1376.82 7.52223
1376.84 8.49974
1376.87 10.0841
1376.90 12.6061
1376.92 16.9955
1376.95 24.8757
1376.97 37.2753
1377.00 45.6137
1377.03 37.2726
1377.05 24.8705
1377.07 18.1700
1377.09 14.1510
1377.11 11.4659
1377.13 9.78513
1377.18 7.76516
1377.22 6.71537
1377.26 6.08031
1377.30 5.68640
1377.38 5.22664
1377.46 4.98005
1377.54 4.83515
1377.70 4.67617
1378.03 4.54221
1378.35 4.48133
1379.00 4.41286
1379.65 4.36296
1380.95 4.27030
1382.25 4.17125
1384.85 3.92896
1387.45 3.59258
1388.75 3.36945
1390.05 3.09346
1391.35 2.74627
1392.65 2.30920
1393.30 2.05598
1393.95 1.79254
1394.60 1.56103
1395.24 1.49891
1395.57 1.65205
1395.73 1.82464
1395.89 2.09637
1396.06 2.51579
1396.22 3.14660
1396.38 4.09933
1396.46 4.74800
1396.54 5.55177
1396.71 7.82582
1396.87 11.4480
1397.03 17.5465
1397.11 22.1205
1397.19 28.3182
1397.28 37.0346
1397.36 49.3290
1397.44 67.4439
1397.52 95.2427
1397.60 140.072
1397.68 216.767
1397.76 356.561
1397.84 620.903
1397.92 1049.80
1398.00 1385.40
1398.08 1169.03
1398.16 769.983
1398.21 563.563
1398.27 424.555
1398.32 329.345
1398.38 262.766
1398.49 179.565
1398.60 132.034
1398.71 102.226
1398.82 82.5973
1399.04 58.7693
1399.26 45.2189
1399.48 36.7525
1399.70 31.0300
1399.92 26.9475
1400.36 21.5694
1400.80 18.2465
1401.24 16.0055
1401.68 14.4093
1402.57 12.2932
1403.45 10.9685
1404.33 10.0651
1405.21 9.41170
1406.97 8.53183
1408.73 7.96864
1410.50 7.57747
1412.26 7.28994
1415.78 6.89503
1419.31 6.63595
1422.83 6.45199
1426.36 6.31401
1433.40 6.11891
1440.45 5.98536
1447.50 5.88615
1454.55 5.80788
1468.65 5.68756
1482.75 5.59332
1489.80 5.55163
1496.85 5.51334
1500.37 5.49711
1503.90 5.48860
1505.66 5.49495
1506.54 5.50641
1507.42 5.53157
1508.30 5.59106
1508.74 5.65269
1509.18 5.76615
1509.40 5.86241
1509.62 6.00843
1509.84 6.24600
1510.06 6.67012
1510.17 7.02321
1510.28 7.54628
1510.39 8.37647
1510.50 9.80933
1510.61 12.6012
1510.67 15.1094
1510.72 19.1812
1510.78 26.4057
1510.81 32.4185
1510.83 40.9265
1510.86 54.5149
1510.89 75.7874
1510.92 113.699
1510.94 177.910
1510.97 279.940
1511.00 347.357
1511.03 276.042
1511.06 174.863
1511.08 119.198
1511.10 85.6896
1511.13 63.4174
1511.15 49.4236
1511.19 32.6651
1511.24 23.8047
1511.28 18.6138
1511.33 15.3304
1511.42 11.6121
1511.51 9.62977
1511.60 8.46449
1511.69 7.72261
1511.78 7.22619
1511.96 6.61036
1512.13 6.26356
1512.31 6.04790
1512.49 5.90458
1512.85 5.73120
1513.21 5.63437
1513.93 5.53400
1514.64 5.48443
1515.36 5.45520
1516.79 5.42136
1519.66 5.38503
1522.53 5.35966
1528.27 5.31450
1534.00 5.26777
1539.74 5.21538
1545.48 5.15390
1548.35 5.11842
1551.21 5.07925
1554.08 5.03960
1554.80 5.03359
1555.52 5.03883
1555.87 5.05693
1556.23 5.11711
1556.41 5.20164
1556.59 5.42262
1556.68 5.69589
1556.77 6.32170
1556.82 7.00008
1556.86 8.32754
1556.88 9.53902
1556.91 11.3615
1556.93 14.3202
1556.95 19.1790
1556.98 27.7624
1557.00 33.1481
1557.03 27.4132
1557.05 19.1791
1557.08 13.3602
1557.11 10.3423
1557.13 8.63822
1557.16 7.61133
1557.22 6.49684
1557.27 5.96442
1557.38 5.48071
1557.49 5.27839
1557.70 5.11132
1557.92 5.04469
1558.36 4.98808
1558.79 4.96107
1560.53 4.90199
1562.27 4.85148
1564.01 4.79643
1567.49 4.66040
1570.97 4.46777
1572.71 4.33643
1574.44 4.16846
1576.18 3.94559
1577.92 3.63615
1578.79 3.43233
1579.66 3.18216
1580.53 2.87210
1581.40 2.49226
1581.84 2.28071
1582.27 2.07361
1582.71 1.92177
1583.14 1.97824
1583.36 2.21481
1583.58 2.76343
1583.68 3.24547
1583.79 3.95079
1583.90 4.98910
1584.01 6.52132
1584.12 8.87475
1584.23 12.5743
1584.34 18.6410
1584.39 23.0993
1584.45 29.0553
1584.50 37.3561
1584.55 48.7882
1584.61 65.2576
1584.66 89.8320
1584.72 128.942
1584.77 191.835
1584.83 299.320
1584.88 486.690
1584.94 825.997
1585.00 1087.18
1585.06 918.986
1585.12 605.917
1585.17 432.649
1585.22 320.247
1585.26 245.420
1585.31 194.240
1585.40 131.200
1585.49 96.3949
1585.59 74.7864
1585.68 60.6865
1585.86 43.6598
1586.05 34.0019
1586.23 27.9510
1586.42 23.8655
1586.60 20.9642
1586.97 17.1213
1587.34 14.7406
1587.71 13.1292
1588.08 11.9785
1588.82 10.4481
1589.56 9.48470
1590.30 8.82600
1591.03 8.34927
1592.51 7.71202
1593.25 7.49425
1593.99 7.32687
1594.73 7.21412
1595.10 7.18900
1595.47 7.20501
1595.84 7.31403
1596.02 7.45019
1596.21 7.71290
1596.30 7.93957
1596.39 8.27931
1596.49 8.82917
1596.58 9.76937
1596.67 11.6110
1596.72 13.2320
1596.76 15.8230
1596.81 20.3114
1596.85 28.9889
1596.88 36.6034
1596.90 48.4479
1596.92 67.6300
1596.95 99.0741
1596.97 154.462
1597.00 191.389
1597.03 154.457
1597.05 99.0625
1597.08 63.5530
1597.11 44.2193
1597.13 32.5319
1597.16 25.6143
1597.19 20.9421
1597.21 17.8781
1597.27 14.0827
1597.32 11.8903
1597.37 10.5600
1597.48 9.05284
1597.58 8.27173
1597.69 7.81353
1597.79 7.52025
1597.90 7.31986
1598.11 7.06779
1598.32 6.91719
1598.74 6.74405
1599.16 6.64255
1599.58 6.57172
1600.42 6.47049
1602.10 6.33245
1603.78 6.23122
1605.46 6.14997
1607.14 6.08222
1610.50 5.97448
1613.86 5.89230
1617.22 5.82979
1618.91 5.80765
1620.59 5.80110
1621.43 5.81664
1621.85 5.83851
1622.27 5.88329
1622.69 5.98453
1622.90 6.08648
1623.11 6.27067
1623.32 6.65189
1623.42 7.01562
1623.53 7.64484
1623.63 8.87347
1623.69 9.99225
1623.74 11.7764
1623.79 15.0124
1623.82 17.6071
1623.84 21.4088
1623.87 27.5272
1623.90 37.1691
1623.92 53.7065
1623.95 82.7622
1623.97 129.233
1624.00 158.434
1624.03 127.454
1624.05 81.3902
1624.07 60.0659
1624.09 46.2750
1624.12 30.0301
1624.16 21.6192
1624.19 16.8380
1624.23 13.8293
1624.26 11.9270
1624.33 9.67819
1624.40 8.44207
1624.47 7.71137
1624.60 6.91370
1624.74 6.50875
1624.87 6.27811
1625.15 6.03527
1625.42 5.91596
1625.69 5.84823
1626.24 5.77602
1627.33 5.71489
1628.43 5.68518
1630.61 5.64908
1632.80 5.62263
1637.17 5.57930
1641.54 5.54213
1650.28 5.47782
1659.03 5.42147
1676.51 5.31991
1694.00 5.22144
1711.48 5.11610
1728.97 4.99414
1737.71 4.92314
1746.46 4.84312
1750.83 4.79963
1755.20 4.75587
1757.39 4.73720
1759.57 4.73114
1760.66 4.74646
1761.21 4.76860
1761.76 4.81455
1762.30 4.91995
1762.58 5.02684
1762.85 5.22121
1762.99 5.38390
1763.12 5.62694
1763.26 6.01921
1763.40 6.69904
1763.53 8.05650
1763.60 9.28901
1763.67 11.3231
1763.74 15.0976
1763.77 18.2234
1763.81 22.9358
1763.84 30.4545
1763.87 43.3089
1763.91 67.0435
1763.94 112.986
1763.97 178.286
1764.00 219.546
1764.03 175.981
1764.06 111.184
1764.08 82.4132
1764.10 63.3837
1764.13 40.4684
1764.17 28.0832
1764.21 21.1782
1764.24 16.7855
1764.28 13.9782
1764.35 10.6313
1764.42 8.77768
1764.50 7.66292
1764.64 6.45438
1764.79 5.84035
1764.93 5.49038
1765.08 5.26926
1765.22 5.12225
1765.52 4.94229
1765.81 4.84003
1766.39 4.73180
1766.97 4.67585
1767.55 4.64105
1768.71 4.59680
1771.04 4.54006
1773.37 4.49327
1778.02 4.40034
1782.67 4.29803
1791.98 4.04452
1801.28 3.68721
1805.93 3.44624
1810.59 3.14203
1815.24 2.74714
1819.89 2.21985
1822.22 1.88901
1824.54 1.50563
1826.87 1.07565
1829.20 0.653551
1830.36 0.507562
1830.94 0.479378
1831.52 0.503711
1832.11 0.609403
1832.40 0.706066
1832.69 0.841451
1832.98 1.02669
1833.27 1.27463
1833.56 1.60261
1833.85 2.03186
1834.14 2.59596
1834.43 3.33531
1835.01 5.58792
1835.59 9.61181
1835.89 12.7751
1836.18 17.1676
1836.47 23.4508
1836.76 32.6714
1837.05 46.6929
1837.34 68.8941
1837.63 106.348
1837.92 173.965
1838.07 228.776
1838.21 306.365
1838.36 418.367
1838.50 579.471
1838.75 989.816
1839.00 1316.17
1839.25 1119.27
1839.50 742.276
1839.66 564.733
1839.81 437.285
1840.13 281.606
1840.44 197.002
1840.75 147.176
1841.07 115.330
1841.38 93.8523
1842.01 67.3131
1842.64 52.0410
1843.26 42.3466
1844.52 31.0111
1845.77 24.7464
1847.02 20.8408
1848.28 18.2002
1849.53 16.3080
1852.04 13.7949
1854.55 12.2129
1857.06 11.1309
1859.56 10.3468
1864.58 9.28857
1869.59 8.60941
1874.61 8.13697
1879.63 7.78954
1889.66 7.31234
1899.69 6.99954
1909.72 6.77807
1919.75 6.61254
1939.81 6.38038
1959.88 6.22399
1979.94 6.11029
2000.00 6.02306
2037.40 5.90313
2074.79 5.81611
2149.58 5.69239
2224.37 5.60143
2299.17 5.52409
2373.96 5.44946
2448.75 5.36764
2486.14 5.31986
2523.54 5.26395
2542.24 5.23174
2560.94 5.19618
2570.28 5.17755
2579.63 5.16036
2584.31 5.15511
2588.98 5.16058
2591.32 5.17828
2592.49 5.19880
2593.66 5.23852
2594.83 5.32630
2595.41 5.41447
2595.99 5.57501
2596.29 5.71018
2596.58 5.91477
2596.87 6.24698
2597.16 6.83971
2597.31 7.32810
2597.45 8.05758
2597.60 9.21716
2597.75 11.2243
2597.89 15.1553
2597.97 18.7086
2598.04 24.5165
2598.11 34.9314
2598.15 43.6512
2598.18 56.2425
2598.22 76.4806
2598.26 109.166
2598.29 168.767
2598.33 277.175
2598.37 439.000
2598.40 548.816
2598.44 438.607
2598.47 276.690
2598.49 197.019
2598.52 144.907
2598.54 108.786
2598.57 85.1843
2598.62 55.9612
2598.66 40.2158
2598.71 30.5420
2598.76 24.4399
2598.86 17.2651
2598.96 13.4042
2599.05 11.1381
2599.15 9.68360
2599.25 8.69559
2599.44 7.47432
2599.64 6.78442
2599.83 6.35516
2600.02 6.07010
2600.41 5.72635
2600.80 5.53576
2601.58 5.34160
2602.36 5.24930
2603.13 5.19778
2604.69 5.14400
2607.79 5.09941
2610.90 5.07737
2617.12 5.04800
2623.33 5.02275
2635.77 4.97079
2648.20 4.91154
2660.63 4.84147
2666.85 4.80133
2673.06 4.75734
2679.28 4.70987
2685.50 4.66299
2688.60 4.64671
2690.16 4.64565
2691.71 4.65712
2693.27 4.70085
2694.04 4.75298
2694.82 4.85510
2695.60 5.08151
2695.99 5.30911
2696.37 5.72052
2696.57 6.06527
2696.76 6.58248
2696.96 7.41325
2697.15 8.87121
2697.25 10.0667
2697.35 11.8082
2697.44 14.5142
2697.54 19.0459
2697.64 27.4746
2697.69 34.7750
2697.73 45.8001
2697.78 64.3510
2697.83 96.8875
2697.86 124.476
2697.88 162.807
2697.90 218.976
2697.93 301.042
2697.96 481.476
2698.00 597.350
2698.04 476.031
2698.07 300.738
2698.11 195.048
2698.14 133.972
2698.17 96.6675
2698.20 72.8671
2698.27 45.6424
2698.33 31.9212
2698.40 23.9172
2698.46 19.0036
2698.59 13.4178
2698.72 10.5197
2698.85 8.82834
2698.98 7.75691
2699.10 7.04047
2699.36 6.15807
2699.62 5.66020
2699.88 5.35145
2700.14 5.14704
2700.65 4.89848
2701.17 4.75808
2702.20 4.60857
2703.23 4.52992
2704.26 4.47926
2706.32 4.41080
2710.44 4.31095
2714.57 4.21623
2718.69 4.11270
2722.81 3.99402
2731.06 3.68620
2735.18 3.47904
2739.31 3.21706
2743.43 2.87506
2747.55 2.41198
2749.61 2.11560
2751.67 1.76309
2753.74 1.34732
2755.80 0.885270
2756.83 0.667105
2757.86 0.512898
2758.38 0.492072
2758.89 0.542466
2759.41 0.710118
2759.92 1.07386
2760.18 1.37009
2760.44 1.77595
2760.69 2.32879
2760.95 3.07793
2761.21 4.10464
2761.47 5.51759
2761.73 7.48442
2761.98 10.2527
2762.24 14.2609
2762.50 20.1996
2762.76 29.2984
2763.01 43.7723
2763.27 68.2582
2763.53 112.181
2763.66 147.604
2763.79 197.863
2763.92 270.068
2764.04 372.438
2764.27 644.103
2764.50 866.364
2764.73 744.881
2764.96 499.096
2765.11 379.184
2765.25 294.000
2765.55 189.826
2765.84 133.684
2766.14 100.657
2766.43 79.5249
2766.73 65.2095
2767.32 47.5253
2767.91 37.2772
2768.50 30.7479
2769.67 23.0496
2770.85 18.7556
2772.03 16.0580
2773.21 14.2232
2774.39 12.9037
2776.75 11.1570
2777.93 10.5673
2779.11 10.1198
2780.29 9.82910
2780.88 9.77552
2781.46 9.84480
2781.76 9.96595
2782.05 10.1948
2782.35 10.6180
2782.64 11.4302
2782.79 12.1273
2782.94 13.1776
2783.09 14.8607
2783.23 17.7796
2783.38 23.5205
2783.45 28.6841
2783.53 36.9164
2783.60 51.6260
2783.67 80.4242
2783.71 106.761
2783.75 149.096
2783.79 220.724
2783.82 342.358
2783.86 544.118
2783.90 676.451
2783.94 544.296
2783.98 342.575
2784.02 204.176
2784.07 131.878
2784.11 91.8604
2784.15 68.0828
2784.20 52.7269
2784.24 42.7293
2784.32 30.6573
2784.41 23.8977
2784.50 19.8296
2784.67 15.3265
2784.84 13.0075
2785.02 11.6601
2785.19 10.8036
2785.36 10.2243
2785.71 9.49508
2786.05 9.06353
2786.40 8.77716
2786.74 8.57088
2787.43 8.28506
2788.12 8.08707
2789.50 7.80667
2790.88 7.59905
2792.27 7.42895
2795.03 7.15342
2797.79 6.93157
2800.55 6.74499
2806.08 6.44051
2811.60 6.19322
2817.13 5.97828
2828.17 5.58301
2839.22 5.14420
2844.75 4.86228
2850.27 4.49009
2853.03 4.24717
2855.80 3.94476
2858.56 3.55444
2861.32 3.02959
2862.70 2.69447
2864.08 2.29531
2865.46 1.82268
2866.84 1.29007
2867.54 1.03095
2868.23 0.833114
2868.57 0.789959
2868.92 0.818829
2869.26 0.966951
2869.61 1.31531
2869.78 1.60674
2869.95 2.01055
2870.13 2.56499
2870.30 3.31876
2870.47 4.35729
2870.64 5.77976
2870.82 7.77067
2870.99 10.5639
2871.16 14.6041
2871.33 20.5632
2871.51 29.6292
2871.68 43.8668
2871.85 67.6182
2872.02 109.148
2872.20 187.533
2872.28 251.071
2872.37 339.578
2872.53 591.446
2872.70 802.608
2872.87 694.583
2873.03 469.123
2873.19 316.485
2873.35 223.860
2873.51 166.895
2873.67 130.145
2873.83 105.235
2873.99 87.6022
2874.30 64.8999
2874.62 51.2011
2874.94 42.2762
2875.57 31.5347
2876.21 25.4432
2876.85 21.5937
2877.48 18.9630
2878.12 17.0630
2879.39 14.5175
2880.66 12.9034
2881.93 11.7922
2883.20 10.9835
2885.74 9.88611
2888.28 9.17713
2890.82 8.68120
2893.36 8.31455
2898.44 7.80700
2903.52 7.47088
2908.61 7.23057
2913.69 7.04936
2923.85 6.79220
2934.01 6.61668
2954.34 6.38874
2974.67 6.24444
2994.99 6.14358
3005.16 6.10369
3015.32 6.06926
3025.48 6.04050
3030.57 6.03239
3033.11 6.04680
3033.74 6.06616
3034.38 6.12233
3034.70 6.19913
3035.01 6.40516
3035.17 6.67175
3035.33 7.34314
3035.41 8.14968
3035.49 9.93402
3035.53 11.8018
3035.57 15.1802
3035.59 18.0925
3035.61 22.4623
3035.63 29.2095
3035.65 39.0118
3035.67 59.1998
3035.70 71.9885
3035.73 58.3847
3035.75 38.9887
3035.78 26.4797
3035.80 19.6049
3035.83 15.5325
3035.85 12.9920
3035.91 10.1401
3035.96 8.73947
3036.06 7.43902
3036.16 6.88829
3036.36 6.43452
3036.56 6.25941
3036.96 6.12489
3037.37 6.07483
3038.17 6.03681
3038.98 6.02207
3042.20 6.00261
3048.65 5.98759
3055.09 5.97832
3061.54 5.97490
3067.99 5.98386
3071.21 5.99925
3074.44 6.03222
3076.05 6.06193
3077.66 6.10870
3079.27 6.18695
3080.88 6.33042
3081.69 6.45124
3082.49 6.63506
3083.30 6.93424
3084.11 7.46973
3084.51 7.91230
3084.91 8.57540
3085.32 9.63403
3085.72 11.4783
3086.12 15.1286
3086.32 18.4767
3086.52 23.9911
3086.73 34.1241
3086.83 42.6495
3086.93 55.4164
3087.03 76.0983
3087.13 111.364
3087.23 177.943
3087.33 307.786
3087.42 489.835
3087.50 609.066
3087.59 486.838
3087.67 306.884
3087.75 194.497
3087.83 130.709
3087.92 92.6992
3088.00 69.4156
3088.08 54.0041
3088.16 43.5906
3088.32 30.6590
3088.49 23.3424
3088.65 18.8242
3088.97 13.7954
3089.30 11.1999
3089.63 9.69888
3089.95 8.74939
3090.28 8.11482
3090.93 7.34168
3091.58 6.90892
3092.23 6.64223
3092.88 6.46634
3094.18 6.25586
3095.49 6.13944
3096.79 6.06806
3098.09 6.02092
3100.70 5.96390
3103.30 5.93137
3108.51 5.89589
3113.72 5.87669
3118.93 5.86551
3124.14 5.86731
3125.44 5.87685
3126.74 5.90688
3127.39 5.94919
3128.04 6.06681
3128.37 6.22495
3128.53 6.37806
3128.69 6.64583
3128.86 7.18774
3128.94 7.69666
3129.02 8.54609
3129.10 10.1696
3129.14 11.5848
3129.18 13.7411
3129.22 17.4538
3129.26 24.1258
3129.28 30.0026
3129.30 38.3432
3129.32 50.9948
3129.34 71.1783
3129.37 109.683
3129.40 136.310
3129.43 109.615
3129.46 70.9765
3129.48 46.5422
3129.51 32.4806
3129.54 24.2988
3129.56 19.4149
3129.59 16.0955
3129.62 13.8385
3129.67 11.1114
3129.72 9.54192
3129.78 8.59251
3129.88 7.52967
3129.99 6.97736
3130.10 6.65760
3130.31 6.32241
3130.74 6.06673
3131.16 5.97324
3132.02 5.90505
3132.87 5.88202
3134.58 5.87073
3136.28 5.87943
3137.99 5.91325
3138.84 5.95136
3139.70 6.02410
3140.55 6.18392
3140.98 6.34430
3141.40 6.63480
3141.83 7.24480
3142.05 7.83695
3142.26 8.87206
3142.47 10.9495
3142.58 12.8655
3142.69 16.0215
3142.79 21.8789
3142.85 26.7792
3142.90 34.2124
3142.95 46.4620
3143.01 67.3851
3143.06 106.793
3143.11 185.287
3143.16 294.894
3143.20 366.311
3143.25 293.505
3143.29 186.795
3143.33 127.783
3143.36 91.6293
3143.40 68.5268
3143.43 53.2684
3143.50 35.3885
3143.57 25.8788
3143.64 20.2826
3143.71 16.7301
3143.85 12.6584
3143.99 10.4962
3144.13 9.22944
3144.27 8.41877
3144.41 7.86874
3144.69 7.18940
3144.97 6.80387
3145.53 6.40223
3146.09 6.20687
3146.65 6.09706
3147.77 5.98311
3150.02 5.89551
3152.26 5.86117
3156.74 5.83167
3161.23 5.81734
3170.20 5.80048
3179.17 5.78870
3197.11 5.77049
3206.08 5.76385
3210.56 5.76420
3212.81 5.77622
3213.93 5.82517
3214.21 5.87339
3214.49 6.00091
3214.63 6.16319
3214.77 6.56441
3214.84 7.03208
3214.91 8.05096
3214.94 9.07148
3214.98 10.9054
3215.01 14.5596
3215.03 17.8614
3215.05 22.4519
3215.07 32.4310
3215.10 39.0585
3215.13 32.3856
3215.15 22.3631
3215.18 15.8109
3215.21 12.3032
3215.23 10.2777
3215.26 9.03746
3215.31 7.67080
3215.36 7.01020
3215.47 6.40534
3215.57 6.15214
3215.78 5.94615
3215.99 5.86689
3216.83 5.78481
3218.50 5.76326
3221.85 5.76175
3223.52 5.76879
3225.20 5.79216
3226.03 5.82555
3226.87 5.91929
3227.29 6.04652
3227.50 6.17032
3227.71 6.39026
3227.92 6.83911
3228.02 7.26596
3228.13 7.99176
3228.23 9.40993
3228.28 10.6636
3228.33 12.6788
3228.39 16.2961
3228.44 23.3319
3228.47 29.6429
3228.49 39.6886
3228.52 56.4779
3228.54 85.8229
3228.57 134.270
3228.60 165.769
3228.63 134.161
3228.66 85.6856
3228.69 51.6465
3228.72 34.3348
3228.75 24.6824
3228.79 19.2227
3228.82 15.6957
3228.85 13.4305
3228.92 10.6760
3228.98 9.16599
3229.05 8.25292
3229.18 7.25933
3229.31 6.75261
3229.44 6.46229
3229.69 6.16061
3230.21 5.93288
3230.73 5.84994
3231.77 5.78876
3232.81 5.76658
3234.88 5.74968
3236.96 5.74281
3245.25 5.73184
3261.85 5.71971
3278.45 5.71028
3286.75 5.70916
3290.90 5.72071
3291.93 5.73401
3292.97 5.77175
3293.49 5.82332
3294.01 5.96398
3294.27 6.15103
3294.53 6.64055
3294.66 7.25924
3294.72 7.82640
3294.79 8.74887
3294.85 10.4586
3294.88 11.9249
3294.92 14.0819
3294.95 17.6676
3294.98 23.6889
3295.01 34.9169
3295.05 57.4921
3295.07 88.8132
3295.10 109.140
3295.13 88.6969
3295.15 57.3460
3295.17 43.3075
3295.19 33.8439
3295.22 22.6203
3295.26 16.7779
3295.29 13.4483
3295.33 11.3982
3295.36 10.0555
3295.43 8.47090
3295.50 7.60199
3295.56 7.08958
3295.70 6.53209
3295.97 6.09112
3296.25 5.92537
3296.79 5.80094
3297.34 5.75580
3298.43 5.72267
3299.52 5.71066
3303.88 5.69749
3312.60 5.69055
3330.05 5.68230
3347.49 5.67853
3351.85 5.68041
3356.22 5.68822
3358.40 5.69980
3360.58 5.73229
3361.67 5.77636
3362.76 5.89701
3363.30 6.05875
3363.58 6.21641
3363.85 6.49563
3364.12 7.07022
3364.26 7.61521
3364.39 8.55835
3364.53 10.4273
3364.60 12.1138
3364.67 14.8820
3364.73 19.8797
3364.77 24.0265
3364.80 30.2280
3364.84 40.0183
3364.87 56.5168
3364.90 86.3802
3364.94 143.460
3364.97 225.293
3365.00 280.254
3365.03 224.662
3365.06 142.451
3365.09 94.5231
3365.12 65.1615
3365.15 47.5347
3365.17 36.4461
3365.23 24.0804
3365.29 17.8157
3365.34 14.2468
3365.40 12.0333
3365.51 9.55524
3365.62 8.27764
3365.73 7.53586
3365.96 6.75462
3366.18 6.37427
3366.41 6.16150
3366.85 5.94498
3367.30 5.84303
3367.75 5.78729
3368.65 5.73186
3370.44 5.69285
3372.23 5.67984
3375.81 5.67211
3379.40 5.67246
3382.98 5.67934
3386.56 5.70287
3388.36 5.73619
3390.15 5.82909
3391.04 5.95529
3391.49 6.07916
3391.94 6.30155
3392.39 6.76431
3392.61 7.21191
3392.83 8.00143
3392.95 8.64503
3393.06 9.59673
3393.17 11.0894
3393.28 13.6245
3393.39 18.4462
3393.45 22.6708
3393.51 29.3511
3393.56 40.7593
3393.62 62.3528
3393.65 80.8941
3393.67 109.117
3393.70 153.537
3393.73 222.323
3393.77 352.999
3393.80 438.220
3393.84 352.357
3393.87 221.520
3393.90 148.878
3393.93 103.612
3393.96 75.6773
3393.99 57.7332
3394.05 37.3043
3394.11 26.7481
3394.17 20.6572
3394.23 16.8459
3394.35 12.5672
3394.47 10.3186
3394.59 9.00654
3394.71 8.17599
3394.83 7.62160
3395.07 6.94005
3395.31 6.55859
3395.79 6.16733
3396.27 5.98190
3396.74 5.87993
3397.70 5.77777
3399.62 5.70478
3401.53 5.67972
3405.36 5.66340
3409.20 5.66110
3413.03 5.66808
3416.86 5.69707
3418.77 5.74047
3419.73 5.78461
3420.69 5.86573
3421.65 6.03957
3422.13 6.21198
3422.61 6.52365
3422.85 6.78427
3423.08 7.17635
3423.32 7.81167
3423.56 8.92964
3423.68 9.84521
3423.80 11.2001
3423.92 13.3256
3424.04 16.8934
3424.16 23.6993
3424.22 29.6360
3424.28 38.7782
3424.34 54.4463
3424.40 83.6471
3424.43 108.310
3424.46 145.234
3424.49 202.105
3424.52 286.315
3424.56 454.911
3424.60 567.450
3424.64 455.228
3424.68 286.716
3424.71 204.852
3424.74 150.217
3424.76 113.768
3424.79 88.8753
3424.85 58.6975
3424.90 42.3423
3424.96 32.2972
3425.01 25.9322
3425.13 18.4444
3425.24 14.4363
3425.35 12.0493
3425.46 10.5157
3425.57 9.47287
3425.79 8.18689
3426.01 7.45438
3426.24 6.99796
3426.46 6.69447
3426.90 6.32793
3427.35 6.12423
3428.23 5.91670
3429.12 5.81815
3430.01 5.76369
3431.79 5.70831
3435.34 5.66699
3438.89 5.65133
3446.00 5.63825
3453.11 5.63199
3481.54 5.61926
3509.96 5.61352
3517.07 5.61542
3524.18 5.62509
3527.73 5.64063
3531.29 5.68683
3533.06 5.75183
3533.95 5.81683
3534.84 5.93498
3535.73 6.18515
3536.17 6.43028
3536.62 6.86834
3536.84 7.22970
3537.06 7.76987
3537.28 8.62908
3537.50 10.1169
3537.73 13.0308
3537.84 15.6632
3537.95 19.9617
3538.06 27.6560
3538.12 34.0486
3538.17 43.3460
3538.23 58.0976
3538.28 82.0357
3538.34 124.959
3538.39 202.555
3538.45 320.252
3538.50 399.768
3538.55 320.396
3538.61 202.741
3538.67 120.163
3538.73 76.8290
3538.79 53.2671
3538.85 39.4453
3538.91 30.7635
3538.97 24.9953
3539.10 18.0896
3539.22 14.2912
3539.34 11.9888
3539.58 9.47055
3539.83 8.18841
3540.07 7.45415
3540.31 6.99173
3540.56 6.68411
3541.04 6.31009
3541.53 6.10134
3542.51 5.88805
3543.48 5.78660
3544.45 5.73053
3546.40 5.67361
3550.30 5.63149
3554.20 5.61579
3562.00 5.60309
3569.79 5.59731
3585.38 5.59078
3600.97 5.58636
3632.16 5.58025
3647.75 5.57947
3655.54 5.58386
3659.44 5.60377
3660.42 5.62450
3661.39 5.68283
3661.88 5.76252
3662.37 5.98045
3662.61 6.26885
3662.73 6.54396
3662.85 7.01539
3662.97 7.94353
3663.04 8.78095
3663.10 10.1462
3663.16 12.5832
3663.19 14.6192
3663.22 17.5268
3663.25 22.1880
3663.28 29.5839
3663.31 42.3271
3663.34 64.8810
3663.37 101.145
3663.40 124.331
3663.43 100.014
3663.46 65.0246
3663.50 39.7980
3663.53 26.7928
3663.57 19.7518
3663.60 15.6324
3663.64 13.0494
3663.67 11.3351
3663.74 9.30607
3663.81 8.17052
3663.88 7.48327
3664.02 6.73411
3664.16 6.35155
3664.30 6.13313
3664.58 5.90409
3665.13 5.72987
3665.69 5.66604
3666.81 5.61883
3667.92 5.60187
3672.38 5.58544
3681.30 5.58353
3690.21 5.58823
3699.13 5.59958
3703.59 5.60988
3708.05 5.62608
3712.51 5.65314
3716.97 5.70278
3719.20 5.74466
3721.42 5.80855
3723.65 5.91315
3725.88 6.10235
3727.00 6.26069
3728.11 6.50102
3729.23 6.89194
3730.34 7.59173
3730.90 8.17255
3731.46 9.04394
3732.01 10.4411
3732.57 12.8916
3732.85 14.8817
3733.13 17.8097
3733.41 22.3699
3733.69 29.9999
3733.96 44.3140
3734.10 56.5832
3734.24 75.5962
3734.38 107.435
3734.52 164.836
3734.59 212.402
3734.66 280.791
3734.73 384.339
3734.80 536.458
3734.90 856.205
3735.00 1066.02
3735.10 851.329
3735.20 534.625
3735.31 318.395
3735.42 203.088
3735.53 139.075
3735.64 100.982
3735.75 76.8137
3735.86 60.6407
3736.07 41.1437
3736.29 30.3511
3736.51 23.7837
3736.95 16.5590
3737.38 12.8930
3737.82 10.7851
3738.25 9.46446
3738.69 8.58507
3739.56 7.51964
3740.43 6.92622
3741.30 6.56183
3742.17 6.32283
3743.92 6.03879
3745.66 5.88573
3746.53 5.83949
3747.40 5.82148
3747.84 5.84161
3748.28 5.94046
3748.49 6.09465
3748.71 6.52777
3748.82 7.08705
3748.93 8.44983
3748.98 10.0040
3749.04 13.1417
3749.07 16.0557
3749.09 20.8528
3749.12 29.2295
3749.15 44.2992
3749.17 68.0565
3749.20 84.4110
3749.23 69.2944
3749.25 45.8454
3749.27 33.8078
3749.29 25.9225
3749.31 20.7485
3749.33 17.2594
3749.37 13.0799
3749.41 10.8056
3749.49 8.56913
3749.57 7.54995
3749.73 6.67152
3749.89 6.30935
3750.21 6.01324
3750.53 5.89267
3751.17 5.78955
3751.81 5.74247
3754.37 5.66656
3756.93 5.63305
3759.49 5.61226
3764.61 5.58736
3769.73 5.57307
3779.96 5.55756
3790.20 5.54935
3810.67 5.54060
3831.14 5.53604
3851.61 5.53437
3872.08 5.53808
3882.31 5.54534
3892.55 5.56379
3897.67 5.58456
3902.78 5.62985
3905.34 5.67967
3906.62 5.72305
3907.90 5.79430
3909.18 5.93064
3909.82 6.05586
3910.46 6.27014
3911.10 6.69751
3911.42 7.09970
3911.74 7.79452
3911.90 8.35678
3912.06 9.18440
3912.22 10.4801
3912.38 12.6868
3912.54 16.9318
3912.62 20.7137
3912.70 26.8201
3912.78 37.6045
3912.82 46.3663
3912.86 59.2121
3912.90 78.9665
3912.94 111.075
3912.98 166.295
3913.02 260.521
3913.06 412.490
3913.10 508.063
3913.14 402.570
3913.18 253.088
3913.22 152.451
3913.27 98.3554
3913.31 68.1605
3913.35 50.4717
3913.40 38.9156
3913.44 31.3422
3913.52 22.0687
3913.61 16.9399
3913.69 13.8286
3913.86 10.4282
3914.03 8.71550
3914.20 7.75127
3914.37 7.15591
3914.54 6.76504
3914.88 6.30348
3915.22 6.05726
3915.90 5.82383
3916.59 5.72793
3917.27 5.68589
3918.63 5.66632
3921.35 5.72456
3924.07 5.87572
3925.43 6.00878
3926.79 6.21485
3928.15 6.55630
3929.52 7.17953
3930.20 7.70318
3930.88 8.49640
3931.56 9.78290
3932.24 12.0594
3932.58 13.9243
3932.92 16.6742
3933.26 20.9775
3933.60 28.2473
3933.94 41.9819
3934.11 53.8380
3934.28 72.3164
3934.45 103.191
3934.62 159.647
3934.70 206.410
3934.79 275.129
3934.87 378.581
3934.96 534.362
3935.08 855.410
3935.20 1068.85
3935.32 856.594
3935.44 539.418
3935.52 395.609
3935.60 295.993
3935.75 179.026
3935.90 118.784
3936.06 84.8506
3936.21 63.8758
3936.36 50.1771
3936.67 34.0801
3936.98 25.3200
3937.29 20.0714
3937.90 14.3456
3938.52 11.4511
3939.13 9.78869
3939.75 8.74546
3940.36 8.04825
3941.59 7.19903
3942.82 6.72103
3944.05 6.42450
3945.28 6.22746
3947.74 5.98911
3950.19 5.85522
3952.65 5.77211
3955.11 5.71674
3960.03 5.64931
3964.95 5.61096
3969.86 5.58678
3974.78 5.57039
3984.62 5.54985
3994.45 5.53764
4014.12 5.52400
4033.79 5.51743
4053.46 5.51761
4063.30 5.52418
4068.21 5.53227
4073.13 5.54826
4078.05 5.58418
4080.51 5.62073
4082.97 5.68797
4084.20 5.74493
4085.42 5.83201
4086.65 5.97478
4087.88 6.23280
4088.50 6.44818
4089.11 6.77363
4089.73 7.29893
4090.34 8.22580
4090.65 8.98467
4090.96 10.1037
4091.26 11.8574
4091.57 14.8302
4091.88 20.4882
4092.03 25.4327
4092.19 33.1621
4092.34 46.3535
4092.49 70.8655
4092.57 91.7839
4092.65 123.287
4092.72 172.194
4092.80 247.217
4092.90 393.207
4093.00 489.350
4093.10 391.830
4093.20 247.439
4093.27 178.877
4093.34 133.044
4093.47 80.3445
4093.61 53.6330
4093.74 38.8631
4093.87 29.8374
4094.01 24.0332
4094.28 17.2231
4094.55 13.5647
4094.82 11.3812
4095.08 9.97616
4095.35 9.01980
4095.89 7.83925
4096.43 7.16620
4096.97 6.74662
4097.50 6.46796
4098.58 6.13118
4099.66 5.94350
4100.73 5.82825
4101.81 5.75245
4103.96 5.66180
4106.11 5.61166
4110.41 5.56069
4114.72 5.53630
4119.02 5.52256
4127.62 5.50797
4144.83 5.49596
4153.44 5.49545
4157.74 5.50770
4158.82 5.52204
4159.89 5.56375
4160.43 5.62190
4160.97 5.78366
4161.24 6.00044
4161.51 6.57515
4161.64 7.30707
4161.71 7.97476
4161.78 9.08202
4161.84 11.1095
4161.88 12.8457
4161.91 15.3987
4161.94 19.6299
4161.98 26.7208
4162.01 40.4504
4162.04 67.4111
4162.07 105.033
4162.10 129.624
4162.13 105.263
4162.16 67.7004
4162.19 43.6616
4162.21 30.4314
4162.24 22.7631
4162.27 18.0556
4162.30 14.9122
4162.33 12.8592
4162.38 10.3355
4162.44 8.89102
4162.50 8.01852
4162.61 7.03767
4162.72 6.53431
4162.83 6.24239
4163.06 5.93537
4163.51 5.69916
4163.96 5.61171
4164.87 5.54621
4165.77 5.52215
4169.38 5.49704
4176.60 5.48875
4183.82 5.48718
4187.43 5.49296
4189.24 5.52119
4189.69 5.55065
4190.14 5.63213
4190.37 5.74084
4190.59 6.02386
4190.71 6.37752
4190.82 7.22093
4190.88 8.16996
4190.93 10.0717
4190.96 11.8301
4190.99 14.7190
4191.02 19.7627
4191.04 29.2493
4191.07 43.3019
4191.10 53.1309
4191.13 43.4299
4191.16 29.3647
4191.17 22.5737
4191.19 18.1490
4191.23 12.9037
4191.27 10.2673
4191.30 8.82904
4191.38 7.34338
4191.45 6.66878
4191.60 6.08277
4191.74 5.84600
4192.04 5.65789
4192.33 5.58632
4193.50 5.51180
4195.85 5.49077
4200.54 5.48406
4209.92 5.48062
4228.68 5.47768
4238.07 5.47773
4247.45 5.48169
4252.14 5.48918
4256.83 5.51291
4259.18 5.54739
4261.52 5.64694
4262.69 5.78572
4263.28 5.92370
4263.87 6.17389
4264.45 6.70116
4264.75 7.21444
4265.04 8.12500
4265.19 8.87351
4265.33 9.97633
4265.48 11.7245
4265.62 14.6850
4265.77 20.3856
4265.84 25.3714
4265.92 33.2768
4265.99 47.0729
4266.06 73.1053
4266.10 95.9952
4266.14 130.132
4266.17 185.930
4266.21 273.830
4266.26 434.416
4266.30 542.599
4266.35 434.940
4266.39 274.188
4266.44 163.793
4266.49 105.405
4266.54 73.0450
4266.59 53.8036
4266.64 41.5999
4266.68 33.4333
4266.78 23.5846
4266.88 18.0857
4266.98 14.7771
4267.18 11.1279
4267.37 9.26247
4267.57 8.19302
4267.77 7.51770
4267.96 7.06828
4268.35 6.52142
4268.75 6.21481
4269.53 5.90088
4270.32 5.75132
4271.11 5.66843
4272.68 5.58433
4275.82 5.52256
4278.96 5.50090
4282.11 5.49293
4285.25 5.49734
4286.82 5.51185
4288.39 5.56092
4289.18 5.63351
4289.96 5.84325
4290.36 6.13237
4290.55 6.41705
4290.75 6.92146
4290.95 7.95513
4291.05 8.92256
4291.14 10.5673
4291.24 13.6911
4291.29 16.4186
4291.34 20.7105
4291.39 27.9802
4291.44 41.5501
4291.46 53.3119
4291.49 70.2361
4291.51 97.4789
4291.54 137.975
4291.57 219.341
4291.60 271.852
4291.63 217.813
4291.67 139.344
4291.69 98.7838
4291.71 73.1819
4291.74 55.5396
4291.76 44.0968
4291.81 29.9876
4291.85 22.4235
4291.90 17.7806
4291.95 14.8048
4292.04 11.3888
4292.13 9.54404
4292.23 8.45791
4292.41 7.27654
4292.60 6.68508
4292.79 6.34676
4293.16 5.99336
4293.91 5.72432
4294.66 5.62398
4296.15 5.54744
4297.65 5.51830
4300.64 5.49510
4303.63 5.48552
4315.59 5.47262
4339.51 5.46485
4363.43 5.46148
4375.39 5.46243
4381.37 5.46708
4384.36 5.48043
4385.85 5.52607
4386.23 5.57060
4386.60 5.69057
4386.79 5.84689
4386.97 6.24720
4387.07 6.73804
4387.16 7.86024
4387.21 9.07654
4387.25 11.3881
4387.28 13.5256
4387.30 16.7481
4387.32 21.9915
4387.35 31.0351
4387.37 46.1182
4387.40 56.5844
4387.43 46.1429
4387.45 31.0178
4387.48 21.7329
4387.50 16.4290
4387.53 13.1226
4387.55 11.1323
4387.60 8.86036
4387.65 7.71092
4387.75 6.64997
4387.84 6.19793
4388.04 5.82489
4388.23 5.67967
4388.62 5.56881
4389.01 5.52831
4390.58 5.49067
4393.70 5.49588
4395.26 5.51362
4396.82 5.56056
4397.60 5.62178
4398.38 5.78669
4398.77 6.00648
4398.96 6.21946
4399.16 6.59609
4399.35 7.35961
4399.45 8.08044
4399.55 9.29409
4399.65 11.6312
4399.70 13.6870
4399.74 16.8641
4399.79 22.3892
4399.84 32.8706
4399.87 42.1103
4399.89 55.6232
4399.91 76.7168
4399.94 110.351
4399.97 173.044
4400.00 215.515
4400.03 173.441
4400.06 110.678
4400.08 84.1593
4400.10 64.5567
4400.14 41.1634
4400.18 28.9270
4400.21 22.0769
4400.25 17.7122
4400.29 14.9155
4400.36 11.5436
4400.44 9.70461
4400.51 8.59597
4400.66 7.38605
4400.81 6.77641
4400.96 6.42762
4401.26 6.06598
4401.86 5.80140
4402.46 5.71648
4403.66 5.69295
4404.86 5.76200
4406.06 5.95537
4406.66 6.15492
4407.26 6.51758
4407.56 6.81929
4407.86 7.27267
4408.16 7.99771
4408.46 9.26100
4408.76 11.7556
4408.91 14.0275
4409.06 17.7680
4409.21 24.5438
4409.29 30.1802
4409.36 38.6262
4409.44 51.9894
4409.51 74.5649
4409.59 115.544
4409.66 193.177
4409.73 306.089
4409.80 381.580
4409.87 306.577
4409.94 193.793
4409.99 136.755
4410.04 99.4701
4410.09 75.0467
4410.14 58.8804
4410.23 39.2607
4410.33 28.5954
4410.43 22.1811
4410.53 18.1206
4410.73 13.4242
4410.93 10.9143
4411.13 9.43358
4411.33 8.47985
4411.52 7.83581
4411.92 7.04041
4412.32 6.58777
4412.72 6.30574
4413.11 6.11850
4413.91 5.89173
4414.70 5.76499
4416.29 5.63532
4417.87 5.57324
4419.46 5.53860
4422.64 5.50293
4428.98 5.47578
4435.33 5.46551
4448.03 5.46168
4451.21 5.46671
4454.38 5.48482
4455.97 5.51207
4457.56 5.59173
4458.35 5.70329
4458.75 5.81444
4459.14 6.01524
4459.54 6.43721
4459.74 6.84827
4459.94 7.57033
4460.14 9.03437
4460.23 10.3918
4460.33 12.6792
4460.43 16.9703
4460.48 20.7179
4460.53 26.4279
4460.58 36.1449
4460.63 53.4907
4460.66 68.0919
4460.68 89.5812
4460.71 121.982
4460.73 169.640
4460.77 269.191
4460.80 334.548
4460.84 269.750
4460.87 170.344
4460.89 127.539
4460.91 97.9688
4460.96 62.1247
4461.00 42.6988
4461.04 31.7810
4461.08 24.8446
4461.13 20.3855
4461.21 15.0639
4461.29 12.1176
4461.38 10.3593
4461.55 8.42174
4461.72 7.44230
4461.89 6.87961
4462.22 6.29098
4462.56 6.00505
4462.90 5.84467
4463.58 5.68017
4464.93 5.55768
4466.28 5.51283
4468.98 5.47909
4471.69 5.46632
4482.51 5.45142
4504.14 5.44408
4525.77 5.44391
4531.18 5.44843
4536.59 5.46482
4539.29 5.49007
4542.00 5.56557
4543.35 5.67308
4544.03 5.78129
4544.70 5.97922
4545.38 6.39948
4545.72 6.81226
4546.05 7.54964
4546.22 8.15694
4546.39 9.06263
4546.56 10.4976
4546.73 12.9660
4546.90 17.7452
4546.98 22.0377
4547.07 28.8642
4547.15 40.9670
4547.24 64.4849
4547.28 86.0521
4547.32 119.532
4547.36 174.992
4547.41 269.927
4547.45 428.329
4547.50 535.949
4547.55 429.515
4547.59 271.409
4547.63 186.986
4547.67 133.825
4547.70 98.8350
4547.74 76.3464
4547.81 49.5562
4547.89 35.3195
4547.96 26.9500
4548.03 21.6420
4548.18 15.5663
4548.32 12.3625
4548.47 10.4719
4548.62 9.26442
4548.76 8.44662
4549.05 7.44159
4549.35 6.87053
4549.93 6.27845
4550.51 5.99282
4551.10 5.83310
4552.26 5.66953
4554.60 5.54732
4556.93 5.50220
4561.61 5.46779
4566.28 5.45446
4575.62 5.44328
4584.96 5.43807
4622.32 5.42816
4659.69 5.42175
4678.37 5.41937
4687.71 5.41904
4692.38 5.42036
4694.71 5.42558
4695.88 5.44506
4696.47 5.51534
4696.76 5.74508
4696.90 6.36658
4696.98 7.59913
4697.01 9.19872
4697.05 12.7899
4697.07 17.1929
4697.10 20.1794
4697.13 17.2024
4697.15 12.8017
4697.18 10.0912
4697.20 8.53485
4697.25 7.00770
4697.35 6.04550
4697.54 5.62158
4697.93 5.47735
4698.71 5.43534
4700.26 5.42435
4703.37 5.42291
4709.59 5.43030
4712.70 5.44141
4715.81 5.47126
4717.36 5.51069
4718.92 5.61795
4719.69 5.76297
4720.08 5.90546
4720.47 6.16079
4720.86 6.69356
4721.05 7.20665
4721.25 8.10727
4721.44 9.92198
4721.54 11.5937
4721.64 14.3911
4721.73 19.5844
4721.78 24.0714
4721.83 30.8281
4721.88 42.1472
4721.93 61.8644
4721.98 101.378
4722.00 134.693
4722.03 183.685
4722.06 291.941
4722.10 362.582
4722.14 292.656
4722.17 184.346
4722.21 115.928
4722.25 77.6306
4722.29 55.4339
4722.32 41.8105
4722.36 32.9713
4722.40 26.9558
4722.47 19.5766
4722.55 15.3761
4722.62 12.8302
4722.77 9.99166
4722.92 8.52441
4723.07 7.67989
4723.36 6.78947
4723.66 6.35487
4723.96 6.11325
4724.55 5.87364
4725.74 5.72886
4726.92 5.74325
4728.11 5.88915
4728.70 6.05569
4729.30 6.36526
4729.59 6.62563
4729.89 7.01873
4730.19 7.64984
4730.48 8.74870
4730.78 10.9331
4730.93 12.9220
4731.08 16.2032
4731.23 22.2209
4731.30 27.2220
4731.37 34.7455
4731.45 46.7132
4731.52 67.0865
4731.60 104.482
4731.67 176.395
4731.74 280.045
4731.80 347.932
4731.87 278.786
4731.93 176.918
4732.01 104.274
4732.08 67.1288
4732.15 46.8496
4732.23 34.9129
4732.30 27.3951
4732.38 22.3893
4732.52 16.3820
4732.67 13.0521
4732.82 11.0460
4733.12 8.83929
4733.41 7.71515
4733.71 7.06988
4734.01 6.66309
4734.30 6.39177
4734.90 6.06150
4735.49 5.87583
4736.68 5.68473
4737.86 5.59284
4739.05 5.54134
4741.42 5.48813
4746.16 5.44731
4750.91 5.43139
4760.39 5.41798
4769.88 5.41174
4788.85 5.40532
4798.34 5.40761
4803.08 5.43061
4804.27 5.45679
4805.46 5.53314
4806.05 5.63959
4806.64 5.93491
4806.94 6.32934
4807.09 6.70581
4807.23 7.35906
4807.38 8.63990
4807.46 9.79678
4807.53 11.6838
4807.60 15.0528
4807.64 17.8131
4807.68 21.8866
4807.72 28.1986
4807.75 38.5538
4807.79 56.5855
4807.83 89.5384
4807.86 139.929
4807.90 174.368
4807.94 140.478
4807.97 90.2220
4808.00 64.2233
4808.03 47.5912
4808.06 36.6821
4808.08 29.3293
4808.14 20.5336
4808.19 15.7614
4808.24 12.9167
4808.30 11.0948
4808.41 8.98906
4808.51 7.86812
4808.62 7.20239
4808.84 6.48476
4809.27 5.92110
4809.70 5.70838
4810.57 5.54699
4811.43 5.48716
4813.16 5.44196
4814.89 5.42496
4821.81 5.40613
4828.73 5.40169
4832.19 5.40234
4833.92 5.40916
4834.78 5.43604
4835.22 5.53006
4835.43 5.81596
4835.54 6.49871
4835.59 7.63660
4835.62 8.89348
4835.65 11.2569
4835.67 14.7322
4835.70 17.1098
4835.73 14.7376
4835.75 11.2522
4835.78 8.60610
4835.82 7.30559
4835.88 6.26205
4836.02 5.70589
4836.28 5.49207
4836.81 5.42506
4837.86 5.40636
4839.97 5.40209
4844.19 5.40687
4846.30 5.41697
4848.41 5.44828
4849.47 5.49326
4850.52 5.62179
4851.05 5.79895
4851.32 5.97349
4851.58 6.28479
4851.84 6.92859
4851.97 7.54271
4852.11 8.60602
4852.24 10.6859
4852.30 12.5607
4852.37 15.6135
4852.44 21.0511
4852.47 25.4958
4852.50 32.0403
4852.54 42.1482
4852.57 58.6496
4852.60 87.1545
4852.63 135.678
4852.67 215.344
4852.70 266.580
4852.73 213.336
4852.77 136.287
4852.80 85.4842
4852.84 57.2518
4852.87 41.0754
4852.90 31.4599
4852.94 25.0330
4852.97 20.6848
4853.04 15.4401
4853.11 12.4483
4853.17 10.6362
4853.31 8.61325
4853.44 7.56524
4853.58 6.96141
4853.84 6.32089
4854.11 6.00720
4854.38 5.83038
4854.92 5.64829
4856.00 5.51221
4857.07 5.46233
4859.23 5.42491
4861.38 5.41085
4869.99 5.39476
4887.21 5.38661
4904.43 5.38194
4913.04 5.38147
4917.34 5.38859
4919.49 5.42211
4920.03 5.45699
4920.57 5.55412
4920.84 5.68442
4921.11 6.03038
4921.24 6.47181
4921.38 7.54550
4921.44 8.80218
4921.51 11.4540
4921.55 14.0935
4921.58 18.5598
4921.61 27.3300
4921.65 44.5050
4921.67 68.5070
4921.70 83.8054
4921.73 67.7320
4921.76 44.6770
4921.78 32.8861
4921.79 25.4540
4921.81 20.4659
4921.83 17.0399
4921.87 12.8587
4921.91 10.5449
4921.99 8.22502
4922.06 7.18182
4922.21 6.28303
4922.37 5.92073
4922.67 5.63638
4922.98 5.52919
4923.59 5.44802
4924.20 5.41819
4926.65 5.38747
4931.54 5.37801
4941.32 5.37314
4960.88 5.36726
4980.44 5.36201
5000.00 5.36000
5008.02 5.37328
5010.02 5.38918
5012.02 5.43554
5013.02 5.50033
5014.03 5.68195
5014.53 5.92857
5014.78 6.17005
5015.03 6.59788
5015.28 7.47575
5015.40 8.30275
5015.53 9.72051
5015.65 12.4538
5015.72 14.9058
5015.78 18.7752
5015.84 25.6332
5015.90 38.8123
5015.94 50.9234
5015.97 69.4603
5016.00 99.8675
5016.03 151.580
5016.07 240.066
5016.10 298.017
5016.14 240.222
5016.17 151.777
5016.20 102.606
5016.23 71.9409
5016.26 53.0034
5016.29 40.8306
5016.35 26.9601
5016.41 19.7844
5016.47 15.6392
5016.53 13.0425
5016.65 10.1228
5016.77 8.58503
5016.89 7.68571
5017.13 6.73353
5017.37 6.26286
5017.61 5.99825
5018.09 5.72514
5019.04 5.52201
5020.00 5.44838
5021.92 5.39421
5023.83 5.37457
5027.67 5.36009
5031.50 5.35555
5035.33 5.35621
5039.16 5.36724
5041.08 5.38625
5042.99 5.44424
5043.95 5.52694
5044.91 5.76150
5045.39 6.08180
5045.63 6.39585
5045.87 6.95190
5046.11 8.09000
5046.23 9.16313
5046.35 10.9772
5046.47 14.4726
5046.53 17.5528
5046.59 22.4488
5046.65 30.8653
5046.71 46.9420
5046.74 60.8670
5046.77 82.2357
5046.80 116.202
5046.83 168.333
5046.86 266.482
5046.90 332.205
5046.94 267.174
5046.97 169.199
5047.02 101.442
5047.06 65.7126
5047.10 46.0417
5047.14 34.6215
5047.18 27.1829
5047.22 22.2220
5047.30 16.3123
5047.38 12.9977
5047.46 11.0039
5047.63 8.78936
5047.79 7.66178
5047.95 7.01093
5048.28 6.32710
5048.60 5.99352
5048.93 5.80586
5049.58 5.61281
5050.89 5.46845
5052.19 5.41535
5054.80 5.37540
5057.41 5.36090
5062.62 5.36070
5063.93 5.37415
5065.23 5.41868
5065.88 5.48389
5066.53 5.67053
5066.86 5.92545
5067.02 6.17379
5067.19 6.61269
5067.35 7.49667
5067.43 8.32394
5067.51 9.69633
5067.59 12.2894
5067.64 14.5192
5067.68 17.8671
5067.72 23.5077
5067.76 33.6463
5067.80 53.8158
5067.82 70.8576
5067.84 96.0967
5067.87 150.579
5067.90 187.663
5067.93 151.343
5067.96 96.9030
5067.98 72.8126
5068.00 55.3714
5068.04 35.0310
5068.08 24.6394
5068.12 18.7904
5068.16 15.2182
5068.20 12.8911
5068.28 10.1816
5068.36 8.69303
5068.44 7.80971
5068.60 6.83933
5068.76 6.34740
5068.92 6.06686
5069.24 5.77246
5069.87 5.54706
5070.51 5.46282
5071.78 5.39838
5073.05 5.37370
5078.15 5.34501
5088.33 5.33123
5108.70 5.31743
5129.07 5.30522
5139.26 5.30033
5144.35 5.30510
5146.90 5.33855
5147.53 5.37493
5148.17 5.47778
5148.49 5.61805
5148.81 5.99478
5148.97 6.48006
5149.13 7.69370
5149.21 9.13602
5149.28 12.2748
5149.32 15.4956
5149.36 21.3858
5149.38 26.2637
5149.40 33.4271
5149.42 44.1925
5149.44 59.3750
5149.47 92.5651
5149.50 113.785
5149.53 91.6075
5149.56 59.7007
5149.58 43.8535
5149.60 33.2813
5149.62 26.2306
5149.64 21.6180
5149.68 15.7936
5149.71 12.5598
5149.79 9.30897
5149.87 7.84243
5150.03 6.57613
5150.19 6.06441
5150.50 5.66180
5150.81 5.50920
5151.44 5.39360
5152.07 5.35073
5154.58 5.30567
5159.60 5.29009
5164.63 5.28450
5167.14 5.28518
5168.39 5.29696
5169.02 5.34489
5169.34 5.50745
5169.49 5.96170
5169.57 6.88999
5169.61 8.16619
5169.65 11.2278
5169.67 14.7834
5169.70 17.2166
5169.73 14.8154
5169.75 11.2675
5169.78 8.74281
5169.81 7.41520
5169.87 6.29670
5169.99 5.65667
5170.23 5.39634
5170.70 5.31169
5171.65 5.28639
5173.54 5.27792
5177.33 5.27264
5184.90 5.26526
5192.47 5.25843
5196.26 5.25688
5198.16 5.26422
5199.10 5.29916
5199.58 5.42700
5199.81 5.83024
5199.93 6.83102
5199.99 8.58552
5200.02 10.6682
5200.05 14.5674
5200.07 20.1568
5200.10 23.9147
5200.13 20.1953
5200.15 14.5975
5200.19 10.0948
5200.22 8.05407
5200.30 6.48706
5200.44 5.68531
5200.73 5.38117
5201.30 5.28600
5202.45 5.25795
5204.74 5.24818
5209.33 5.24116
5218.50 5.23014
5227.67 5.22049
5232.26 5.22351
5234.55 5.25727
5235.13 5.29413
5235.70 5.39747
5235.99 5.53692
5236.27 5.90691
5236.42 6.38228
5236.56 7.54840
5236.63 8.91240
5236.70 11.8121
5236.74 14.7190
5236.77 19.8877
5236.81 30.0029
5236.83 38.6660
5236.84 50.3853
5236.87 77.5459
5236.90 95.6970
5236.93 77.6513
5236.96 50.5171
5236.98 35.5314
5237.00 26.5394
5237.02 20.5849
5237.05 16.8556
5237.09 12.4047
5237.14 10.0591
5237.23 7.82158
5237.32 6.84156
5237.50 6.01249
5237.67 5.68619
5238.03 5.43216
5238.39 5.33706
5239.11 5.26568
5239.83 5.23951
5242.70 5.21551
5244.13 5.21948
5245.57 5.24353
5246.29 5.28173
5247.01 5.39343
5247.36 5.54742
5247.72 5.96644
5247.90 6.51388
5247.99 7.02867
5248.08 7.89257
5248.17 9.54998
5248.22 11.0001
5248.26 13.2229
5248.31 17.0599
5248.35 24.2387
5248.37 30.4895
5248.40 39.4717
5248.42 53.2438
5248.44 75.3954
5248.47 117.057
5248.50 145.997
5248.53 117.470
5248.56 75.7889
5248.58 52.9630
5248.61 38.9275
5248.63 29.9130
5248.65 23.9354
5248.70 16.9022
5248.74 13.1470
5248.79 10.9316
5248.84 9.52298
5248.93 7.90607
5249.02 7.04393
5249.11 6.54076
5249.30 5.99983
5249.67 5.57591
5250.04 5.41577
5250.77 5.29404
5251.51 5.24826
5254.46 5.19698
5260.36 5.17279
5272.16 5.14639
5278.07 5.13687
5283.97 5.13815
5286.92 5.15509
5289.87 5.22031
5291.34 5.31945
5292.08 5.42044
5292.82 5.60505
5293.56 5.99530
5293.93 6.37545
5294.29 7.04524
5294.48 7.59400
5294.66 8.39972
5294.85 9.66608
5295.03 11.7912
5295.22 15.8086
5295.31 19.2636
5295.40 24.6395
5295.49 33.6038
5295.59 49.9548
5295.63 63.4675
5295.68 83.2850
5295.72 113.047
5295.77 157.738
5295.84 250.362
5295.90 311.081
5295.97 249.369
5296.03 158.369
5296.08 114.447
5296.12 84.8957
5296.17 65.0389
5296.21 51.3980
5296.30 34.7573
5296.39 25.5564
5296.48 20.0045
5296.57 16.4192
5296.75 12.2437
5296.93 10.0059
5297.11 8.67157
5297.29 7.81323
5297.47 7.22884
5297.83 6.50676
5298.19 6.09414
5298.91 5.66412
5299.63 5.45451
5300.35 5.33621
5301.79 5.21222
5304.67 5.11248
5307.55 5.06780
5313.30 5.01611
5319.06 4.97554
5324.82 4.93470
5330.57 4.88973
5342.08 4.77708
5353.60 4.61191
5359.35 4.49531
5365.11 4.34126
5370.87 4.12817
5373.75 3.98796
5376.62 3.81503
5379.50 3.59728
5380.94 3.46672
5382.38 3.31905
5383.82 3.15472
5385.26 2.98885
5385.98 2.93287
5386.70 2.98190
5387.06 3.15605
5387.42 3.74020
5387.60 4.55020
5387.69 5.32150
5387.78 6.63693
5387.87 9.12896
5387.91 11.2920
5387.96 14.6703
5388.00 20.3266
5388.05 30.6941
5388.07 39.5290
5388.09 51.9631
5388.11 70.5408
5388.14 99.0610
5388.17 156.784
5388.20 196.241
5388.23 157.156
5388.26 99.5141
5388.30 57.4629
5388.34 36.3701
5388.38 25.0112
5388.41 18.3848
5388.45 14.1458
5388.49 11.4211
5388.56 8.15398
5388.64 6.33015
5388.71 5.23467
5388.86 4.01334
5389.01 3.37055
5389.16 2.98411
5389.45 2.54109
5390.05 2.09404
5390.64 1.80746
5391.83 1.32361
5393.02 0.868270
5393.62 0.680524
5394.21 0.583610
5394.81 0.709614
5395.11 0.945034
5395.40 1.38836
5395.70 2.17704
5396.00 3.54472
5396.15 4.57743
5396.30 5.95314
5396.45 7.80191
5396.59 10.2956
5396.74 13.7547
5396.89 18.6110
5397.04 25.5758
5397.19 35.7350
5397.34 51.1911
5397.49 75.2994
5397.64 113.911
5397.78 175.570
5397.99 314.739
5398.20 437.498
5398.41 387.872
5398.62 267.371
5398.75 208.625
5398.88 165.452
5399.14 111.336
5399.40 81.0143
5399.66 62.7324
5399.92 50.7972
5400.18 42.6070
5400.69 32.2547
5401.21 26.1340
5401.73 22.1584
5402.77 17.3816
5403.81 14.6569
5404.85 12.9147
5405.88 11.7121
5406.92 10.8352
5409.00 9.64674
5411.07 8.88163
5413.15 8.34926
5415.23 7.95803
5419.38 7.42233
5423.53 7.07321
5427.68 6.82785
5431.83 6.64609
5440.14 6.39476
5448.44 6.22928
5456.74 6.11204
5465.05 6.02461
5481.65 5.90284
5498.26 5.82197
5531.48 5.72094
5564.69 5.66007
5581.30 5.63784
5597.90 5.61929
5614.51 5.60372
5631.12 5.59099
5647.73 5.58363
5656.03 5.59268
5658.11 5.60473
5660.18 5.63904
5661.22 5.68569
5662.26 5.81357
5662.78 5.98469
5663.30 6.44484
5663.56 7.04610
5663.69 7.61545
5663.81 8.58592
5663.94 10.4822
5664.01 12.1824
5664.07 14.8838
5664.14 19.7189
5664.17 23.7185
5664.20 29.3962
5664.24 38.3851
5664.27 52.4853
5664.30 76.3741
5664.33 119.180
5664.37 186.152
5664.40 231.988
5664.43 185.636
5664.47 118.373
5664.49 85.2392
5664.51 63.7403
5664.54 48.7681
5664.56 38.9775
5664.61 26.8110
5664.65 20.2439
5664.70 16.1989
5664.75 13.6472
5664.84 10.6434
5664.93 9.02609
5665.03 8.07777
5665.21 7.05667
5665.40 6.54709
5665.59 6.26005
5665.96 5.96408
5666.70 5.74490
5667.45 5.66687
5668.94 5.61159
5670.43 5.59334
5673.41 5.58390
5676.39 5.58802
5679.37 5.60607
5682.35 5.66270
5683.84 5.74074
5685.33 5.95397
5686.07 6.23785
5686.45 6.51297
5686.82 6.99838
5687.19 7.99007
5687.38 8.92611
5687.56 10.5373
5687.75 13.6965
5687.84 16.5278
5687.94 21.1356
5688.03 29.3521
5688.08 36.1708
5688.12 46.0269
5688.17 61.6702
5688.22 86.8605
5688.26 131.934
5688.31 211.526
5688.36 335.850
5688.40 415.747
5688.45 331.533
5688.49 209.738
5688.52 148.269
5688.56 108.902
5688.59 82.7021
5688.62 64.8377
5688.68 43.2164
5688.75 31.3596
5688.81 24.1613
5688.88 19.6208
5689.01 14.3580
5689.13 11.5380
5689.26 9.88196
5689.52 8.09954
5689.78 7.21925
5690.03 6.72323
5690.55 6.21765
5691.06 5.98282
5691.58 5.86019
5692.60 5.76408
5693.63 5.78994
5694.15 5.86356
5694.66 6.02427
5695.17 6.39625
5695.43 6.77469
5695.69 7.46168
5695.94 8.88398
5696.07 10.2405
5696.20 12.5449
5696.33 16.9885
5696.39 20.8588
5696.46 26.9584
5696.52 37.2974
5696.59 56.5862
5696.62 72.8751
5696.65 97.2474
5696.68 134.764
5696.71 192.704
5696.76 306.979
5696.80 384.823
5696.84 310.957
5696.89 197.678
5696.93 119.654
5696.98 78.6381
5697.03 55.1977
5697.07 41.4716
5697.12 32.5216
5697.17 26.6324
5697.26 19.3939
5697.35 15.3519
5697.44 12.8717
5697.63 10.1115
5697.82 8.68799
5698.00 7.85639
5698.37 6.96838
5698.75 6.52527
5699.12 6.27045
5699.86 6.00055
5701.35 5.78676
5702.84 5.70177
5705.81 5.63163
5708.78 5.60213
5714.73 5.57645
5720.68 5.56579
5726.63 5.56272
5732.58 5.57165
5735.55 5.59038
5738.53 5.64924
5740.01 5.73338
5740.76 5.81776
5741.50 5.97098
5742.24 6.29380
5742.62 6.60814
5742.99 7.16263
5743.36 8.28693
5743.55 9.33801
5743.73 11.1184
5743.92 14.4849
5744.01 17.4131
5744.10 22.0048
5744.20 29.7464
5744.29 44.1025
5744.34 56.3218
5744.38 74.1351
5744.43 101.281
5744.47 142.725
5744.54 225.281
5744.60 280.513
5744.66 225.735
5744.73 143.295
5744.77 101.102
5744.82 74.1593
5744.87 56.4534
5744.91 44.5016
5745.00 30.0725
5745.10 22.3412
5745.19 17.6864
5745.28 14.7410
5745.47 11.3324
5745.65 9.50892
5745.83 8.43297
5746.20 7.27104
5746.57 6.69219
5746.94 6.36257
5747.68 6.02029
5748.42 5.85497
5749.16 5.76245
5750.63 5.66750
5753.58 5.59614
5756.54 5.56926
5762.44 5.54866
5765.39 5.55048
5766.87 5.58248
5767.61 5.71789
5767.79 5.85119
5767.98 6.19375
5768.07 6.61657
5768.16 7.58042
5768.21 8.60263
5768.25 10.5644
5768.30 14.9010
5768.32 19.1068
5768.34 25.8977
5768.37 38.2570
5768.40 46.6167
5768.43 38.5450
5768.46 26.2576
5768.48 20.1653
5768.50 16.1244
5768.54 11.6967
5768.57 9.49913
5768.61 8.28295
5768.69 7.06236
5768.77 6.51162
5768.93 6.03475
5769.08 5.84087
5769.71 5.62744
5770.97 5.56348
5773.48 5.54280
5778.50 5.53337
5788.55 5.52582
5798.60 5.52105
5803.62 5.51990
5806.14 5.52339
5807.39 5.54157
5808.02 5.61203
5808.33 5.84990
5808.49 6.51140
5808.57 7.84994
5808.61 9.66632
5808.65 13.8944
5808.67 19.0393
5808.70 22.3419
5808.73 18.9048
5808.75 13.9645
5808.79 9.88084
5808.83 8.03911
5808.90 6.64031
5809.05 5.91259
5809.34 5.63789
5809.93 5.55152
5811.10 5.52623
5813.45 5.51839
5818.15 5.51476
5827.55 5.51114
5846.35 5.50556
5865.15 5.50075
5874.55 5.49884
5879.25 5.49943
5881.60 5.50604
5882.77 5.53402
5883.36 5.63762
5883.65 5.97890
5883.80 6.90239
5883.87 8.70676
5883.91 11.1144
5883.95 16.4626
5883.97 23.1109
5884.00 27.4969
5884.03 23.1568
5884.05 16.5201
5884.08 12.7167
5884.10 10.3935
5884.14 8.07649
5884.24 6.53739
5884.42 5.83892
5884.79 5.59636
5885.52 5.52383
5887.00 5.50339
5889.94 5.49727
5895.82 5.49454
5907.59 5.49227
5919.36 5.49534
5922.30 5.50153
5925.24 5.52186
5926.71 5.55206
5928.18 5.64058
5928.92 5.76485
5929.65 6.11228
5930.02 6.58093
5930.21 7.03425
5930.39 7.83057
5930.57 9.42220
5930.67 10.8897
5930.76 13.3371
5930.85 17.8545
5930.90 21.6842
5930.94 27.5320
5930.99 37.0247
5931.03 53.6548
5931.08 85.4718
5931.10 112.140
5931.13 148.161
5931.16 235.391
5931.20 291.838
5931.24 233.742
5931.28 149.155
5931.31 97.9577
5931.34 67.6689
5931.38 49.4301
5931.41 38.1938
5931.48 25.2963
5931.54 18.6881
5931.61 14.8912
5931.68 12.5201
5931.81 9.84467
5931.95 8.44437
5932.08 7.63215
5932.35 6.76728
5932.62 6.33900
5932.89 6.09734
5933.42 5.84666
5934.50 5.65808
5935.57 5.58851
5937.72 5.53612
5939.87 5.51645
5948.46 5.49462
5965.64 5.48555
6000.00 5.47818
6000.00 7.01950
7000.00 6.93186
8000.00 6.90497
9000.00 6.90989
10000.0 6.92475
15000.0 7.01560
20000.0 7.14731
30000.0 7.48596
40000.0 7.69081
50000.0 7.81238
60000.0 7.88270
70000.0 7.93748
80000.0 7.97140
90000.0 7.98591
100000 7.97921
150000 7.89563
200000 7.82146
250000 7.76157
300000 7.70689
350000 7.64457
400000 7.57785
450000 7.51242
500000 7.44395
516726 7.42178
516726 7.42178
550000 7.37528
600000 7.30129
650000 7.22467
700000 7.14583
750000 7.06646
800000 6.98488
850000 6.89941
900000 6.80838
950000 6.71136
1.00000E+06 6.61932
1.10000E+06 6.48181
1.13875E+06 6.43213
1.13876E+06 6.43213
1.14457E+06 6.42433
1.14457E+06 6.42432
1.20000E+06 6.34180
1.24096E+06 6.27535
1.24096E+06 6.27535
1.30000E+06 6.18352
1.40000E+06 6.03908
1.50000E+06 5.90785
1.57249E+06 5.81953
1.57249E+06 5.81952
1.57713E+06 5.81404
1.57713E+06 5.81404
1.60000E+06 5.78733
1.70000E+06 5.67589
1.72264E+06 5.65107
1.72264E+06 5.65107
1.80000E+06 5.56027
1.90000E+06 5.43520
1.92766E+06 5.40004
1.92766E+06 5.40003
1.95068E+06 5.37076
1.95069E+06 5.37076
2.00000E+06 5.30839
2.02055E+06 5.28271
2.02055E+06 5.28271
2.09607E+06 5.19008
2.09607E+06 5.19008
2.09641E+06 5.18967
2.09641E+06 5.18967
2.10000E+06 5.18534
2.10371E+06 5.18087
2.10371E+06 5.18087
2.20000E+06 5.06751
2.26385E+06 4.99527
2.26385E+06 4.99526
2.29981E+06 4.95564
2.29981E+06 4.95564
2.30000E+06 4.95543
2.30468E+06 4.95033
2.30469E+06 4.95033
2.32752E+06 4.92564
2.32752E+06 4.92564
2.33080E+06 4.92212
2.33080E+06 4.92212
2.37320E+06 4.87721
2.37320E+06 4.87721
2.38849E+06 4.86127
2.38850E+06 4.86127
2.40000E+06 4.84938
2.42034E+06 4.82856
2.42034E+06 4.82856
2.42427E+06 4.82456
2.42427E+06 4.82456
2.46233E+06 4.78637
2.46233E+06 4.78637
2.49625E+06 4.75307
2.49625E+06 4.75307
2.50000E+06 4.74944
2.60000E+06 4.65228
2.70000E+06 4.55650
2.78593E+06 4.47791
2.78593E+06 4.47791
2.80000E+06 4.46549
2.82827E+06 4.44098
2.82827E+06 4.44098
2.90000E+06 4.38169
3.00000E+06 4.30682
3.10000E+06 4.24620
3.20000E+06 4.19989
3.26330E+06 4.17594
3.26330E+06 4.17594
3.50000E+06 4.10677
4.00000E+06 4.01122
4.50000E+06 3.97760
5.00000E+06 3.99595
5.50000E+06 4.03597
6.00000E+06 4.09569
6.50000E+06 4.13553
7.00000E+06 4.18685
7.19028E+06 4.20847
7.19028E+06 4.20847
7.32130E+06 4.22362
7.32130E+06 4.22362
7.34089E+06 4.22589
7.34089E+06 4.22589
7.50000E+06 4.24432
7.58667E+06 4.25522
7.58667E+06 4.25522
7.65023E+06 4.26393
7.65023E+06 4.26392
7.66413E+06 4.26587
7.66413E+06 4.26587
7.66880E+06 4.26652
7.66880E+06 4.26652
7.69435E+06 4.27009
7.69435E+06 4.27009
7.71927E+06 4.27357
7.71927E+06 4.27357
7.83504E+06 4.28902
7.83505E+06 4.28902
7.92151E+06 4.29894
7.92151E+06 4.29894
7.95965E+06 4.30265
7.95965E+06 4.30265
7.98074E+06 4.30449
7.98074E+06 4.30449
7.98370E+06 4.30474
7.98370E+06 4.30474
8.00000E+06 4.30603
8.00390E+06 4.30633
8.00390E+06 4.30633
8.01506E+06 4.30719
8.01506E+06 4.30719
8.02819E+06 4.30819
8.02819E+06 4.30819
8.04092E+06 4.30916
8.04092E+06 4.30916
8.06453E+06 4.31096
8.06453E+06 4.31096
8.09683E+06 4.31340
8.09684E+06 4.31340
8.50000E+06 4.34293
9.00000E+06 4.37812
9.43605E+06 4.39731
9.43606E+06 4.39731
9.50000E+06 4.39954
9.65346E+06 4.40455
9.65346E+06 4.40455
1.00000E+07 4.41512
1.05000E+07 4.43796
1.10000E+07 4.44944
1.15000E+07 4.44877
1.20000E+07 4.43502
1.25000E+07 4.41603
1.25715E+07 4.41285
1.25715E+07 4.41285
1.30000E+07 4.39013
1.35000E+07 4.34996
1.40000E+07 4.30199
1.45000E+07 4.26620
1.50000E+07 4.22316
1.55000E+07 4.17581
1.60000E+07 4.12611
1.62441E+07 4.09806
1.65000E+07 4.06728
1.68154E+07 4.02846
1.68155E+07 4.02845
1.70000E+07 4.00570
1.75000E+07 3.94562
1.80000E+07 3.88782
1.84899E+07 3.83314
1.85000E+07 3.83203
1.90000E+07 3.77852
1.95000E+07 3.72814
2.00000E+07 3.68086
2.10000E+07 3.59569
2.20000E+07 3.52135
2.30000E+07 3.45385
2.40000E+07 3.39119
2.50000E+07 3.31583
2.60000E+07 3.24488
2.69040E+07 3.19947
2.70000E+07 3.19536
2.80000E+07 3.15710
2.90000E+07 3.13298
3.00000E+07 3.12089