Pd-104(n,tot) ENDF/B-VII.1
Energy(eV) XS(b)
1.00000E-05 37.3847
1.25000E-05 33.9417
1.50000E-05 31.4001
2.00000E-05 27.8326
2.75000E-05 24.4380
3.50000E-05 22.2040
4.25000E-05 20.5913
5.00000E-05 19.3566
6.25000E-05 17.8168
7.50000E-05 16.6802
0.000100000 15.0848
0.000125000 13.9960
0.000150000 13.1923
0.000200000 12.0641
0.000275000 10.9907
0.000350000 10.2842
0.000425000 9.77423
0.000500000 9.38380
0.000625000 8.89688
0.000750000 8.53745
0.00100000 8.03292
0.00125000 7.68862
0.00150000 7.43447
0.00200000 7.07772
0.00275000 6.73828
0.00350000 6.51488
0.00425000 6.35361
0.00500000 6.23015
0.00625000 6.07617
0.00750000 5.96252
0.0100000 5.80298
0.0125000 5.69411
0.0150000 5.61374
0.0200000 5.50093
0.0253000 5.42007
0.0314750 5.35300
0.0376500 5.30320
0.0500000 5.23291
0.0625000 5.18421
0.0750000 5.14826
0.100000 5.09779
0.125000 5.06334
0.150000 5.03789
0.200000 5.00215
0.275000 4.96810
0.350000 4.94564
0.500000 4.91690
0.750000 4.88966
1.00000 4.87320
1.50000 4.85322
2.00000 4.84084
2.75000 4.82840
3.50000 4.81958
5.00000 4.80697
7.50000 4.79227
10.0000 4.78073
15.0000 4.76108
20.0000 4.74298
27.5000 4.71606
35.0000 4.68802
50.0000 4.62545
75.0000 4.48940
87.5000 4.39742
100.000 4.27847
102.412 4.25155
104.825 4.22583
106.031 4.21832
106.634 4.22010
107.237 4.23229
107.840 4.27275
108.141 4.32041
108.443 4.41410
108.745 4.62209
108.895 4.82896
109.046 5.19593
109.197 5.92912
109.272 6.59740
109.348 7.68902
109.423 9.63722
109.498 13.5513
109.536 17.1130
109.574 22.8478
109.611 32.5544
109.649 49.2700
109.690 77.1047
109.730 96.3785
109.771 78.9982
109.811 51.6416
109.857 32.1225
109.903 21.8387
109.948 16.1778
109.994 12.8219
110.040 10.6940
110.086 9.26787
110.177 7.54195
110.269 6.57632
110.360 5.98266
110.544 5.31728
110.727 4.96992
110.910 4.76430
111.276 4.53964
111.642 4.42309
112.009 4.35292
112.741 4.27236
114.206 4.19422
115.671 4.14927
121.531 4.02696
133.251 3.77522
139.111 3.61520
144.971 3.41989
150.831 3.17763
153.761 3.03607
155.226 2.96477
155.959 2.94606
156.325 2.98756
156.508 3.11135
156.600 3.30318
156.645 3.49378
156.691 3.80569
156.800 4.74020
156.909 3.79378
156.958 3.45748
157.008 3.25784
157.106 3.05920
157.303 2.92192
157.698 2.84249
158.486 2.77604
160.063 2.67315
163.218 2.47176
166.372 2.29391
169.526 2.24674
171.103 2.37088
172.680 2.73640
173.469 3.08577
173.863 3.32555
174.060 3.46609
174.257 3.62255
174.455 3.79691
174.652 3.99113
174.849 4.20786
175.046 4.44969
175.243 4.72010
175.440 5.02255
175.637 5.36150
175.835 5.74196
176.229 6.65221
176.623 7.81364
177.017 9.31122
177.412 11.2668
177.806 13.8596
178.200 17.3609
178.595 22.1959
178.989 29.0564
179.383 39.1352
179.777 54.5994
180.172 79.7224
180.566 123.816
180.763 159.201
180.960 210.315
181.157 287.611
181.355 411.249
181.552 624.575
181.749 1030.64
181.847 1379.84
181.946 1909.82
182.045 2741.43
182.143 4051.45
182.272 6604.43
182.400 8408.68
182.529 6851.44
182.657 4362.26
182.793 2669.90
182.928 1737.86
183.064 1206.99
183.199 884.462
183.335 676.253
183.470 534.777
183.741 360.916
184.012 262.290
184.283 200.923
184.825 131.430
185.367 94.7587
185.909 72.8901
186.451 58.7034
186.993 48.9194
188.077 36.5452
189.161 29.2140
190.245 24.4533
191.329 21.1537
193.496 16.9379
195.664 14.3973
197.832 12.7183
200.000 11.5348
204.162 10.0361
208.324 9.09259
212.486 8.44709
216.648 7.97894
224.972 7.34678
233.296 6.94020
241.619 6.65671
249.943 6.44796
258.267 6.29194
260.348 6.26314
262.429 6.24734
263.470 6.25510
263.990 6.27057
264.510 6.30461
265.030 6.38346
265.291 6.46267
265.551 6.60379
265.811 6.88750
265.941 7.14911
266.071 7.58381
266.201 8.38232
266.266 9.05467
266.331 10.0748
266.396 11.7201
266.461 14.5654
266.526 19.9203
266.591 30.5757
266.646 45.2261
266.700 54.9936
266.755 45.2323
266.809 30.5824
266.863 21.2390
266.917 15.9832
266.971 12.9434
267.025 11.0835
267.079 9.87576
267.134 9.05474
267.242 8.04939
267.350 7.48279
267.458 7.13400
267.674 6.74481
267.890 6.54368
268.107 6.42597
268.539 6.29936
268.972 6.23469
269.404 6.19594
270.269 6.15087
271.134 6.12376
271.999 6.10407
273.730 6.07409
277.190 6.02790
280.650 5.98900
284.110 5.95490
287.571 5.92779
289.301 5.92119
290.166 5.92285
291.031 5.93248
291.896 5.96161
292.328 5.99388
292.761 6.05448
292.977 6.10565
293.194 6.18298
293.410 6.30688
293.626 6.52216
293.842 6.94418
293.950 7.32447
294.059 7.94336
294.167 9.04611
294.221 9.94729
294.275 11.2711
294.329 13.3192
294.383 16.6569
294.437 22.4418
294.491 32.7148
294.546 48.8781
294.600 59.6743
294.655 48.8842
294.709 32.7217
294.761 22.7463
294.813 17.0184
294.865 13.6384
294.916 11.5443
295.020 9.23398
295.124 8.07607
295.227 7.41906
295.331 7.01296
295.538 6.55834
295.746 6.32327
295.953 6.18608
296.160 6.09882
296.368 6.03967
296.782 5.96632
297.197 5.92359
298.026 5.87643
298.856 5.85040
299.685 5.83297
301.343 5.80872
304.661 5.77426
307.978 5.74520
314.612 5.69056
321.247 5.63431
327.881 5.56945
331.198 5.52988
334.515 5.48131
336.174 5.45185
337.833 5.41754
339.491 5.37711
341.150 5.33016
341.979 5.30547
342.808 5.28307
343.638 5.27071
344.467 5.29135
344.882 5.33349
345.296 5.42350
345.711 5.61146
346.126 6.02004
346.333 6.39863
346.540 7.00652
346.748 8.03819
346.955 9.93013
347.162 13.8190
347.266 17.4283
347.369 23.3895
347.473 34.1115
347.525 42.8707
347.577 55.7038
347.603 64.4574
347.629 75.3573
347.655 89.1421
347.680 106.790
347.706 129.643
347.732 159.504
347.758 198.652
347.784 249.527
347.813 322.009
347.842 406.285
347.900 519.734
347.929 496.201
347.958 428.531
348.016 277.388
348.053 207.110
348.090 157.919
348.165 99.2523
348.239 68.4568
348.313 50.7245
348.387 39.6767
348.461 32.3485
348.610 23.5347
348.758 18.6180
348.907 15.5853
349.203 12.1598
349.500 10.3452
349.797 9.25469
350.094 8.53984
350.391 8.04159
350.985 7.40140
351.578 7.01370
352.172 6.75663
352.766 6.57489
353.953 6.33635
355.140 6.18740
356.328 6.08562
357.515 6.01152
359.890 5.91019
362.265 5.84328
364.639 5.79502
367.014 5.75798
371.764 5.70346
376.513 5.66383
386.012 5.60670
395.511 5.56462
405.010 5.53051
424.008 5.47550
462.004 5.39182
481.002 5.35719
490.501 5.34130
500.000 5.32682
505.748 5.31965
508.621 5.31722
511.495 5.31660
514.369 5.32039
515.806 5.32625
517.243 5.33846
517.961 5.34929
518.680 5.36609
519.398 5.39378
520.117 5.44359
520.476 5.48484
520.835 5.54673
521.194 5.64584
521.554 5.81975
521.913 6.16965
522.092 6.49628
522.272 7.05085
522.452 8.10710
522.541 9.03488
522.631 10.5067
522.721 13.0332
522.811 17.8559
522.856 22.0345
522.901 28.4545
522.946 38.6855
522.990 55.1401
523.045 85.0223
523.100 104.952
523.155 85.0323
523.210 55.1585
523.245 41.4845
523.281 32.1159
523.352 21.2070
523.424 15.6508
523.495 12.5322
523.566 10.6342
523.637 9.40347
523.780 7.97274
523.923 7.21743
524.065 6.78606
524.350 6.39497
524.635 6.37514
524.778 6.51026
524.920 6.80946
525.063 7.43265
525.134 7.98598
525.205 8.84892
525.277 10.2800
525.348 12.8429
525.419 17.8906
525.455 22.2320
525.491 28.5514
525.545 42.3944
525.600 51.6000
525.655 42.3539
525.710 28.5218
525.750 21.4469
525.791 16.8494
525.832 13.8526
525.873 11.8471
525.954 9.45549
526.036 8.16289
526.117 7.39267
526.199 6.89985
526.362 6.32831
526.525 6.02133
526.688 5.83695
527.014 5.63386
527.340 5.52872
527.666 5.46626
528.318 5.39729
528.971 5.36094
529.623 5.33883
530.927 5.31352
532.232 5.29940
533.536 5.29022
536.145 5.27842
538.754 5.27048
541.362 5.26422
546.580 5.25388
551.797 5.24480
557.015 5.23628
567.450 5.22000
577.885 5.20436
588.320 5.18972
593.538 5.18364
596.147 5.18155
598.755 5.18104
601.364 5.18449
602.669 5.18990
603.973 5.20137
604.625 5.21169
605.277 5.22793
605.930 5.25511
606.582 5.30485
606.908 5.34658
607.234 5.40975
607.560 5.51180
607.886 5.69215
608.049 5.83924
608.212 6.05640
608.375 6.39652
608.538 6.97160
608.701 8.05853
608.783 9.00277
608.864 10.4828
608.946 12.9775
609.027 17.6046
609.068 21.5009
609.109 27.2970
609.150 36.2083
609.190 49.8778
609.245 76.7021
609.300 94.5806
609.355 76.6991
609.410 49.8741
609.470 31.3291
609.531 21.5787
609.592 16.2134
609.653 13.0395
609.713 11.0341
609.774 9.69585
609.895 8.08684
610.017 7.19814
610.138 6.65796
610.381 6.06397
610.624 5.76239
610.867 5.58875
611.109 5.47971
611.352 5.40678
611.838 5.31819
612.323 5.26838
612.809 5.23748
613.295 5.21690
614.266 5.19181
615.237 5.17738
617.180 5.16157
619.122 5.15289
621.065 5.14718
624.950 5.14007
628.835 5.13768
630.777 5.13956
632.720 5.14615
633.691 5.15299
634.662 5.16441
635.633 5.18431
636.605 5.22186
637.090 5.25395
637.576 5.30314
638.062 5.38368
638.547 5.52844
638.790 5.64836
639.033 5.82805
639.276 6.11479
639.518 6.61338
639.761 7.59595
639.883 8.48943
640.004 9.95875
640.125 12.6167
640.186 14.8251
640.247 18.1311
640.308 23.3555
640.368 32.1679
640.429 48.1305
640.490 78.2852
640.545 122.176
640.600 151.432
640.655 122.107
640.711 78.2385
640.750 56.6858
640.789 42.4177
640.828 32.9199
640.867 26.4750
640.945 18.6817
641.024 14.4173
641.102 11.8625
641.180 10.2212
641.337 8.32080
641.493 7.30705
641.650 6.70539
641.807 6.31933
641.963 6.05736
642.276 5.73455
642.589 5.55092
642.902 5.43650
643.216 5.36036
643.842 5.26829
644.468 5.21664
645.094 5.18458
645.721 5.16315
646.973 5.13676
648.226 5.12127
649.478 5.11099
650.731 5.10351
653.236 5.09287
655.741 5.08508
660.750 5.07298
665.760 5.06310
670.770 5.05557
673.275 5.05433
674.528 5.05560
675.780 5.06000
677.033 5.07218
677.659 5.08542
678.285 5.11026
678.599 5.13135
678.912 5.16344
679.225 5.21545
679.538 5.30751
679.695 5.38257
679.851 5.49330
680.008 5.66643
680.164 5.95826
680.321 6.50709
680.399 6.98161
680.477 7.72009
680.556 8.95610
680.634 11.2205
680.673 13.1034
680.712 15.8700
680.751 20.0460
680.790 26.3524
680.845 39.1601
680.900 47.6791
680.955 39.1373
681.010 26.3549
681.068 17.8218
681.126 13.1919
681.183 10.5877
681.241 9.02349
681.299 8.02436
681.357 7.35234
681.473 6.53785
681.589 6.08445
681.705 5.80738
681.936 5.50123
682.168 5.34486
682.399 5.25446
682.631 5.19747
682.862 5.15921
683.326 5.11243
683.789 5.08583
684.715 5.05773
685.641 5.04340
686.567 5.03464
688.420 5.02391
692.125 5.01119
695.830 5.00161
703.240 4.98437
710.650 4.96748
718.061 4.95041
725.471 4.93355
729.176 4.92599
732.881 4.92155
734.733 4.92376
735.660 4.92834
736.586 4.93863
737.512 4.96309
737.975 4.98823
738.438 5.03413
738.670 5.07242
738.902 5.12999
739.133 5.22202
739.365 5.38200
739.596 5.69681
739.712 5.98229
739.828 6.44963
739.944 7.29095
740.001 7.98595
740.059 9.02031
740.117 10.6418
740.175 13.3461
740.233 18.1652
740.291 27.0529
740.345 40.3562
740.400 49.2287
740.455 40.3593
740.509 27.0567
740.570 17.8827
740.630 13.0514
740.690 10.3896
740.751 8.81343
740.811 7.81552
740.871 7.15056
740.992 6.35046
741.113 5.90788
741.233 5.63892
741.474 5.34280
741.716 5.19209
741.957 5.10509
742.198 5.05026
742.439 5.01342
742.922 4.96827
743.405 4.94243
744.370 4.91473
745.335 4.90016
746.300 4.89088
748.230 4.87875
752.090 4.86266
755.950 4.84934
763.671 4.82417
767.531 4.81295
769.461 4.81321
769.944 4.81824
770.426 4.83411
770.668 4.85524
770.909 4.90730
771.030 4.96655
771.150 5.09019
771.211 5.20787
771.271 5.40715
771.331 5.77006
771.391 6.46033
771.446 7.45896
771.500 8.12507
771.554 7.45890
771.609 6.45998
771.667 5.78824
771.725 5.42679
771.783 5.22406
771.840 5.10286
771.956 4.97347
772.072 4.91039
772.304 4.85351
772.536 4.82925
772.999 4.80878
773.463 4.79991
775.317 4.78577
779.026 4.77010
786.444 4.74087
801.279 4.67673
830.948 4.51113
845.783 4.39962
860.618 4.25750
868.036 4.17058
875.453 4.07056
879.162 4.01622
882.871 3.96386
884.725 3.94561
885.652 3.94380
886.579 3.95456
887.506 3.99702
887.970 4.04737
888.434 4.14461
888.665 4.22786
888.897 4.35462
889.129 4.55904
889.361 4.91648
889.593 5.62117
889.709 6.25983
889.824 7.30456
889.940 9.17743
889.998 10.7200
890.056 13.0023
890.114 16.5662
890.172 22.4515
890.230 32.8136
890.288 51.6698
890.344 80.4207
890.400 99.5392
890.456 80.3526
890.512 51.6515
890.558 35.7562
890.605 25.9012
890.651 19.7324
890.697 15.7319
890.789 11.1125
890.882 8.69962
890.974 7.29415
891.066 6.41000
891.251 5.40389
891.436 4.87532
891.620 4.56369
891.989 4.22788
892.359 4.05804
892.728 3.95831
893.467 3.84693
894.205 3.78403
894.944 3.74065
896.421 3.67701
899.376 3.57575
902.330 3.47749
908.239 3.25692
914.149 2.98245
920.058 2.62863
925.967 2.16562
928.921 1.89034
931.876 1.61156
933.353 1.50443
934.830 1.49835
935.569 1.61789
936.308 2.03955
936.677 2.61756
936.862 3.16438
937.046 4.09540
937.231 5.86967
937.323 7.42456
937.416 9.88478
937.508 14.0967
937.600 22.0793
937.647 28.9591
937.693 39.4358
937.739 56.0245
937.785 82.3738
937.843 131.127
937.900 163.575
937.958 131.086
938.015 82.4485
938.050 61.4509
938.085 46.6360
938.155 28.8608
938.224 19.4776
938.294 14.0980
938.364 10.7668
938.434 8.58453
938.573 6.01017
938.713 4.62611
938.852 3.81089
938.992 3.30169
939.131 2.97279
939.271 2.75761
939.410 2.61918
939.689 2.49239
939.968 2.49752
940.247 2.59589
940.526 2.77263
940.805 3.02475
941.084 3.35664
941.363 3.77828
941.921 4.95980
942.479 6.77670
943.037 9.60398
943.595 14.1331
944.152 21.7295
944.710 35.3404
944.989 46.3292
945.268 62.1865
945.547 85.9598
945.826 123.324
946.105 185.733
946.384 298.046
946.524 388.906
946.663 518.920
946.803 707.933
946.942 981.609
947.171 1638.54
947.400 2135.74
947.630 1780.71
947.859 1159.09
948.054 791.554
948.249 561.171
948.444 415.610
948.639 320.077
949.030 208.240
949.420 148.281
949.810 112.478
950.200 89.3338
950.981 62.0414
951.761 46.9934
952.541 37.7111
953.322 31.5181
954.102 27.1435
955.663 21.4483
957.223 17.9547
958.784 15.6188
960.345 13.9581
963.466 11.7678
966.588 10.3950
969.709 9.45433
972.830 8.76658
979.073 7.80961
985.316 7.12277
988.437 6.80317
989.998 6.63082
991.559 6.43594
993.119 6.19827
993.900 6.05371
994.680 5.88779
995.070 5.79918
995.461 5.71423
995.851 5.65229
996.241 5.67106
996.436 5.75919
996.631 5.96542
996.826 6.40992
997.021 7.37801
997.216 9.65626
997.314 11.9522
997.411 15.9652
997.460 19.1364
997.509 23.6209
997.533 26.5732
997.558 30.1729
997.582 34.6073
997.607 40.1065
997.631 47.0683
997.655 55.9685
997.680 67.5132
997.704 82.6452
997.728 102.944
997.753 130.430
997.777 167.908
997.802 218.422
997.826 285.508
997.851 364.568
997.900 477.543
997.925 460.886
997.949 402.225
997.999 265.874
998.030 201.643
998.061 155.977
998.124 100.767
998.186 71.2057
998.249 53.9455
998.311 43.0230
998.374 35.6967
998.499 26.7285
998.624 21.6191
998.749 18.4025
998.999 14.6767
999.250 12.6388
999.500 11.3777
999.750 10.5292
1000.00 9.92324
1000.35 9.31688
1000.70 8.88790
1001.41 8.31884
1002.11 7.95733
1002.81 7.70546
1004.22 7.37074
1005.62 7.15243
1008.43 6.86972
1011.24 6.68201
1016.87 6.42516
1022.49 6.24195
1033.73 5.97338
1044.97 5.76937
1067.46 5.44228
1089.95 5.14159
1112.43 4.79707
1123.68 4.58008
1134.92 4.30661
1146.16 3.93804
1151.78 3.69695
1157.41 3.39885
1163.03 3.02025
1168.65 2.52689
1171.46 2.22373
1174.27 1.87803
1177.08 1.50082
1178.49 1.33401
1179.19 1.34173
1179.37 1.40805
1179.54 1.58755
1179.63 1.78983
1179.72 2.18549
1179.80 3.06418
1179.85 3.91225
1179.89 5.23191
1179.95 7.73000
1180.00 9.35497
1180.06 7.66952
1180.11 5.20705
1180.16 3.73449
1180.21 2.87230
1180.26 2.33615
1180.30 2.00117
1180.40 1.61484
1180.50 1.41376
1180.69 1.21409
1180.88 1.11684
1181.66 0.962680
1182.43 0.909846
1183.20 0.918808
1183.97 1.00926
1184.36 1.09718
1184.75 1.22330
1185.13 1.39816
1185.52 1.63400
1185.90 1.94846
1186.29 2.36458
1186.68 2.91501
1187.06 3.63951
1187.45 4.59845
1187.84 5.87569
1188.22 7.59776
1188.61 9.93639
1188.99 13.1707
1189.38 17.7354
1189.77 24.3648
1190.15 34.2576
1190.54 49.6728
1190.93 75.0057
1191.31 119.806
1191.51 155.457
1191.70 206.281
1191.89 281.015
1192.08 394.535
1192.28 571.826
1192.47 849.999
1192.74 1431.69
1193.00 1882.38
1193.27 1584.66
1193.53 1041.65
1193.77 696.891
1194.02 487.134
1194.26 357.878
1194.50 274.561
1194.99 178.590
1195.47 127.874
1195.96 97.6882
1196.45 78.2190
1197.42 55.2663
1198.39 42.5521
1199.36 34.6758
1200.33 29.3864
1201.30 25.6325
1203.25 20.7056
1205.19 17.6542
1207.13 15.5973
1209.07 14.1256
1212.96 12.1690
1216.85 10.9348
1220.73 10.0882
1224.62 9.47244
1232.39 8.63724
1240.16 8.09721
1247.93 7.71882
1255.70 7.43856
1271.25 7.05036
1279.02 6.91063
1286.79 6.79587
1294.56 6.70295
1298.45 6.66564
1302.33 6.63758
1304.27 6.62926
1306.22 6.62762
1308.16 6.63781
1310.10 6.67196
1311.08 6.70694
1312.05 6.76489
1313.02 6.86532
1313.99 7.05338
1314.48 7.21333
1314.96 7.45763
1315.45 7.85591
1315.93 8.56593
1316.18 9.15177
1316.42 10.0260
1316.66 11.4128
1316.90 13.7918
1317.15 18.4345
1317.27 22.6209
1317.39 29.3512
1317.51 41.3732
1317.57 51.1686
1317.63 65.2621
1317.69 87.2218
1317.75 122.103
1317.81 182.573
1317.87 286.338
1317.94 454.177
1318.00 565.962
1318.06 453.854
1318.13 285.940
1318.17 212.291
1318.20 160.728
1318.28 99.9338
1318.36 67.9743
1318.44 49.6400
1318.51 38.1820
1318.59 30.7677
1318.74 21.9812
1318.90 17.1722
1319.05 14.2990
1319.36 11.1652
1319.67 9.58251
1319.98 8.67717
1320.29 8.11135
1320.60 7.73520
1321.21 7.27844
1321.83 7.02291
1322.45 6.86463
1323.07 6.75970
1324.30 6.63229
1325.54 6.56008
1326.77 6.51503
1328.01 6.48567
1330.48 6.45825
1331.71 6.46101
1332.95 6.48339
1334.18 6.55063
1334.80 6.62461
1335.42 6.76344
1335.73 6.88141
1336.03 7.06098
1336.34 7.35199
1336.65 7.86459
1336.96 8.89977
1337.11 9.85766
1337.27 11.4652
1337.42 14.4886
1337.50 17.0691
1337.58 21.0564
1337.65 27.6399
1337.73 39.4734
1337.77 49.2598
1337.81 63.0504
1337.85 83.9597
1337.89 113.976
1337.94 179.543
1338.00 222.468
1338.06 178.624
1338.12 114.333
1338.17 71.9972
1338.23 48.6561
1338.29 35.3605
1338.35 27.3013
1338.41 22.1193
1338.47 18.6164
1338.59 14.3485
1338.71 11.9599
1338.82 10.4947
1339.06 8.86900
1339.30 8.03592
1339.53 7.55290
1339.77 7.24784
1340.00 7.04270
1340.48 6.79181
1340.95 6.64925
1341.42 6.55986
1341.89 6.49974
1342.83 6.42482
1343.78 6.38047
1345.66 6.32943
1347.55 6.29917
1349.44 6.27751
1353.21 6.24530
1356.99 6.21974
1360.76 6.19739
1368.31 6.15788
1383.41 6.09006
1398.50 6.03097
1413.60 5.97739
1428.70 5.92746
1436.25 5.90370
1443.79 5.88175
1447.57 5.87313
1451.34 5.87130
1453.23 5.87967
1454.17 5.89104
1455.12 5.91418
1456.06 5.96649
1456.53 6.01923
1457.00 6.11445
1457.24 6.19363
1457.47 6.31245
1457.71 6.50209
1457.95 6.83161
1458.18 7.47964
1458.30 8.06737
1458.42 9.03101
1458.54 10.7661
1458.60 12.2006
1458.65 14.3374
1458.71 17.6906
1458.77 23.2893
1458.83 33.2772
1458.89 51.3203
1458.95 78.7653
1459.00 96.5792
1459.06 78.2330
1459.11 51.3069
1459.16 34.9107
1459.21 25.4217
1459.26 19.5996
1459.31 16.0040
1459.41 11.9361
1459.51 9.88486
1459.62 8.69892
1459.72 7.96234
1459.92 7.13883
1460.12 6.71013
1460.32 6.46140
1460.52 6.30366
1460.72 6.19734
1461.13 6.06695
1461.53 5.99305
1462.33 5.91608
1463.14 5.87803
1463.94 5.85587
1465.56 5.83099
1468.78 5.80701
1472.00 5.79430
1475.22 5.79018
1476.83 5.79444
1478.44 5.80888
1479.25 5.82386
1480.05 5.84888
1480.86 5.89262
1481.66 5.97513
1482.07 6.04562
1482.47 6.15353
1482.87 6.32971
1483.28 6.64363
1483.48 6.90322
1483.68 7.28797
1483.88 7.89580
1484.08 8.93729
1484.28 10.9566
1484.38 12.7532
1484.48 15.6021
1484.58 20.6092
1484.68 30.2577
1484.74 38.9748
1484.79 52.4009
1484.84 74.3169
1484.89 110.578
1484.94 173.912
1485.00 215.115
1485.06 172.835
1485.12 110.685
1485.16 79.6919
1485.20 59.1458
1485.24 45.5236
1485.28 36.2674
1485.36 25.1065
1485.44 19.0639
1485.52 15.3918
1485.61 13.0593
1485.77 10.3336
1485.93 8.87213
1486.10 8.00979
1486.26 7.45603
1486.42 7.07952
1486.75 6.61386
1487.07 6.34904
1487.40 6.18337
1487.73 6.07258
1488.38 5.93725
1489.03 5.86005
1489.69 5.81099
1490.34 5.77721
1491.64 5.73298
1492.95 5.70405
1495.56 5.66365
1498.17 5.63083
1500.78 5.59859
1506.00 5.52334
1508.61 5.47470
1511.22 5.41338
1513.83 5.33208
1516.44 5.21752
1517.75 5.14008
1519.05 5.04200
1520.36 4.91376
1521.66 4.74002
1522.32 4.62887
1522.97 4.49697
1523.62 4.34256
1524.27 4.17473
1524.60 4.09920
1524.93 4.05393
1525.25 4.09078
1525.58 4.34890
1525.74 4.67243
1525.91 5.26256
1526.07 6.36387
1526.23 8.52428
1526.31 10.3878
1526.36 11.6428
1526.40 13.1547
1526.44 15.0886
1526.48 17.5369
1526.52 20.6790
1526.56 24.6610
1526.60 30.0583
1526.64 37.3663
1526.68 47.4973
1526.72 61.5036
1526.76 82.4579
1526.80 114.123
1526.84 163.207
1526.88 237.221
1526.94 400.036
1527.00 528.635
1527.03 512.213
1527.06 448.533
1527.12 297.893
1527.16 221.332
1527.20 168.300
1527.24 131.790
1527.28 106.158
1527.36 73.9949
1527.44 55.7205
1527.52 44.1318
1527.59 36.4847
1527.75 27.0947
1527.91 21.7512
1528.07 18.3834
1528.23 16.1016
1528.39 14.4704
1528.71 12.3146
1529.03 10.9801
1529.34 10.0795
1529.66 9.43501
1530.30 8.57896
1530.94 8.04157
1531.57 7.67415
1532.21 7.40778
1533.48 7.04807
1534.75 6.81716
1536.03 6.65623
1537.30 6.53775
1539.84 6.37445
1542.39 6.26682
1544.93 6.19011
1547.48 6.13233
1552.57 6.05025
1557.66 5.99380
1567.84 5.91878
1578.02 5.86878
1588.20 5.83127
1608.56 5.77508
1649.28 5.69445
1690.00 5.62901
1730.72 5.56719
1771.45 5.50265
1791.81 5.46751
1812.17 5.42937
1822.35 5.40901
1832.53 5.38822
1837.62 5.37844
1842.71 5.37160
1845.25 5.37254
1847.80 5.38616
1849.07 5.41018
1849.71 5.43535
1850.34 5.48190
1850.98 5.58077
1851.30 5.67698
1851.62 5.84689
1851.78 5.98522
1851.93 6.18924
1852.09 6.50779
1852.25 7.04470
1852.41 8.05290
1852.49 8.93051
1852.57 10.2802
1852.65 12.5647
1852.73 16.6916
1852.77 20.1554
1852.81 25.2669
1852.85 33.0013
1852.89 44.3554
1852.94 67.9143
1853.00 83.6805
1853.06 67.9056
1853.11 44.3446
1853.16 31.1725
1853.21 23.2292
1853.25 18.1680
1853.30 14.9609
1853.39 11.2297
1853.48 9.28495
1853.58 8.15612
1853.67 7.44663
1853.86 6.64167
1854.04 6.22091
1854.23 5.97411
1854.60 5.71165
1854.97 5.58155
1855.34 5.50790
1856.09 5.43110
1856.83 5.39347
1857.57 5.37180
1859.06 5.34805
1862.03 5.32621
1865.00 5.31438
1867.97 5.30723
1870.95 5.30832
1872.43 5.31900
1873.92 5.35772
1874.66 5.41430
1875.03 5.47066
1875.40 5.57129
1875.78 5.77780
1875.96 5.97287
1876.15 6.30435
1876.33 6.94314
1876.43 7.50758
1876.52 8.40756
1876.61 9.96227
1876.70 12.9564
1876.75 15.6077
1876.80 19.6264
1876.84 26.0626
1876.89 36.4747
1876.95 55.4007
1877.00 67.7302
1877.06 55.0554
1877.11 36.4933
1877.17 23.6287
1877.23 16.9002
1877.29 13.1527
1877.35 10.9162
1877.41 9.49404
1877.47 8.54044
1877.59 7.38814
1877.71 6.74846
1877.83 6.35823
1878.07 5.92749
1878.31 5.70783
1878.55 5.58084
1879.03 5.44694
1879.51 5.38103
1879.99 5.34339
1880.95 5.30330
1882.87 5.26947
1884.79 5.25288
1888.63 5.23170
1892.47 5.21453
1900.15 5.18143
1907.83 5.14647
1923.20 5.06563
1938.56 4.96344
1953.92 4.82829
1969.28 4.63925
1984.64 4.35373
1992.32 4.14777
2000.00 3.87179
2001.72 3.79777
2003.45 3.72131
2004.31 3.68573
2005.17 3.66281
2005.60 3.66932
2006.03 3.72329
2006.25 3.80799
2006.46 4.02387
2006.57 4.27024
2006.68 4.76822
2006.73 5.23180
2006.78 5.99099
2006.84 7.30643
2006.89 9.58911
2006.95 13.2620
2007.00 15.6505
2007.06 13.1848
2007.11 9.57669
2007.17 7.07053
2007.23 5.75941
2007.29 5.01866
2007.35 4.58444
2007.47 4.11676
2007.58 3.88848
2007.82 3.67539
2008.06 3.57770
2008.53 3.48077
2009.01 3.42416
2009.96 3.33984
2010.90 3.26419
2014.70 2.94034
2018.49 2.53662
2022.29 2.01972
2024.19 1.71253
2026.08 1.38055
2027.98 1.05821
2029.88 0.869117
2030.35 0.880345
2030.83 0.936463
2031.30 1.05706
2031.78 1.26995
2032.25 1.61859
2032.49 1.86232
2032.73 2.16663
2033.20 3.01734
2033.67 4.33861
2034.15 6.42197
2034.62 9.77284
2035.10 15.3913
2035.57 25.2908
2035.81 33.1558
2036.05 44.2115
2036.28 60.2695
2036.52 84.4227
2036.76 122.289
2037.00 184.524
2037.23 291.729
2037.47 480.356
2037.74 824.052
2038.00 1100.37
2038.27 938.923
2038.53 625.667
2038.70 476.242
2038.87 369.024
2039.20 237.883
2039.54 166.958
2039.88 125.074
2040.21 98.3889
2040.55 80.3257
2041.22 58.0500
2041.89 45.1861
2042.56 37.0169
2043.90 27.4318
2045.25 22.1174
2046.59 18.7952
2047.93 16.5437
2049.28 14.9271
2051.96 12.7748
2054.65 11.4164
2057.33 10.4854
2060.02 9.80949
2065.39 8.89613
2070.76 8.30900
2076.14 7.90040
2081.51 7.59980
2092.25 7.18721
2103.00 6.91718
2113.74 6.72647
2124.48 6.58439
2145.97 6.38623
2167.46 6.25394
2188.95 6.15876
2210.44 6.08655
2253.41 5.98316
2296.39 5.91143
2382.34 5.81476
2468.29 5.74777
2554.25 5.69229
2597.22 5.66505
2618.71 5.65081
2640.20 5.63580
2661.69 5.61977
2683.17 5.60287
2693.92 5.59499
2704.66 5.59083
2710.03 5.59470
2712.72 5.60149
2715.41 5.61642
2718.09 5.65189
2719.44 5.68872
2720.78 5.75694
2721.45 5.81476
2722.12 5.90291
2722.79 6.04709
2723.46 6.30540
2723.80 6.51948
2724.14 6.84046
2724.47 7.35304
2724.81 8.24199
2725.14 10.0010
2725.31 11.6040
2725.48 14.2465
2725.65 19.0436
2725.73 23.0440
2725.82 29.0545
2725.90 38.5994
2725.98 54.8096
2726.07 84.4540
2726.15 140.212
2726.23 221.047
2726.30 274.954
2726.38 221.066
2726.45 140.240
2726.54 82.5945
2726.62 53.3410
2726.71 37.3532
2726.80 28.1266
2726.88 22.2797
2726.97 18.4488
2727.14 13.8406
2727.32 11.3115
2727.49 9.78074
2727.83 8.10410
2728.18 7.25606
2728.53 6.76901
2728.87 6.46382
2729.22 6.26005
2729.91 6.01325
2730.60 5.87502
2731.29 5.78973
2731.99 5.73337
2733.37 5.66538
2734.75 5.62725
2737.52 5.58779
2740.29 5.56954
2743.06 5.56508
2744.44 5.57257
2745.82 5.60347
2746.51 5.64915
2747.21 5.77529
2747.55 5.93966
2747.73 6.09383
2747.90 6.35577
2748.07 6.85359
2748.16 7.29219
2748.24 7.97634
2748.33 9.15526
2748.42 11.3493
2748.46 13.2173
2748.50 16.0374
2748.55 20.4308
2748.59 27.3104
2748.65 40.4809
2748.70 49.0323
2748.76 40.1809
2748.81 27.2488
2748.87 18.9404
2748.92 14.2661
2748.98 11.5623
2749.03 9.92980
2749.09 8.84874
2749.14 8.12580
2749.25 7.22850
2749.36 6.71925
2749.47 6.40899
2749.69 6.06331
2749.90 5.88501
2750.12 5.78207
2750.56 5.67319
2751.43 5.58899
2752.30 5.55672
2754.05 5.53023
2755.80 5.51797
2759.29 5.50353
2762.78 5.49264
2769.77 5.47246
2776.75 5.45113
2790.72 5.39906
2804.69 5.32456
2818.66 5.20499
2825.65 5.11207
2832.63 4.97631
2836.13 4.88173
2839.62 4.75857
2843.11 4.59149
2846.60 4.35234
2848.35 4.18959
2850.10 3.98305
2851.84 3.71337
2853.59 3.35030
2854.46 3.12024
2855.34 2.85092
2856.21 2.54258
2857.08 2.22270
2857.52 2.09293
2857.96 2.04001
2858.39 2.17934
2858.61 2.39925
2858.83 2.80490
2859.05 3.52523
2859.27 4.78401
2859.37 5.74258
2859.48 7.03409
2859.59 8.79530
2859.70 11.2345
2859.81 14.7169
2859.92 19.7181
2860.03 27.1750
2860.14 38.7109
2860.25 57.3771
2860.36 89.2263
2860.47 146.674
2860.52 192.422
2860.57 253.464
2860.69 439.271
2860.80 594.078
2860.91 513.524
2861.03 346.290
2861.16 216.698
2861.29 146.190
2861.41 105.978
2861.54 81.3546
2861.67 65.2611
2861.80 54.1608
2862.06 40.1917
2862.32 31.9849
2862.58 26.6972
2863.09 20.4192
2863.61 16.8894
2864.12 14.6689
2864.64 13.1544
2865.16 12.0615
2866.19 10.5976
2867.22 9.66950
2868.25 9.03086
2869.29 8.56575
2871.35 7.93505
2873.42 7.52852
2875.48 7.24513
2877.54 7.03656
2881.67 6.75007
2885.80 6.56280
2889.93 6.43082
2894.06 6.33284
2902.32 6.19713
2910.58 6.10773
2927.10 5.99802
2943.62 5.93568
2951.87 5.91554
2960.13 5.90203
2968.39 5.89698
2976.65 5.90888
2980.78 5.93209
2982.85 5.95525
2984.91 5.99594
2986.97 6.07768
2988.01 6.15466
2989.04 6.28855
2989.56 6.39751
2990.07 6.55893
2990.59 6.81514
2991.10 7.26179
2991.36 7.62367
2991.62 8.15755
2991.88 8.99514
2992.14 10.4241
2992.39 13.1753
2992.52 15.6259
2992.65 19.5786
2992.78 26.5434
2992.85 32.2385
2992.91 40.4345
2992.97 53.1888
2993.04 73.4823
2993.10 108.690
2993.17 169.346
2993.23 267.111
2993.30 329.958
2993.37 262.751
2993.43 165.857
2993.50 104.065
2993.57 69.4921
2993.63 49.5808
2993.70 37.4272
2993.76 29.5804
2993.83 24.2645
2993.96 17.7826
2994.09 14.1601
2994.23 11.9455
2994.49 9.50532
2994.75 8.27074
2995.02 7.56608
2995.28 7.12937
2995.55 6.84230
2996.07 6.50580
2996.60 6.33105
2997.13 6.23787
2997.66 6.19377
2998.71 6.21486
2999.24 6.29181
2999.77 6.45402
3000.30 6.80932
3000.56 7.15428
3000.83 7.75586
3001.09 8.94108
3001.22 10.0175
3001.35 11.7855
3001.49 14.9798
3001.55 17.6316
3001.62 21.5992
3001.68 27.8661
3001.75 38.4315
3001.82 57.5529
3001.88 92.8528
3001.94 144.574
3002.00 178.739
3002.06 143.982
3002.12 92.1114
3002.16 68.4113
3002.20 52.1207
3002.28 33.1780
3002.35 23.5280
3002.43 18.1628
3002.51 14.8421
3002.59 12.6860
3002.74 10.1755
3002.90 8.81528
3003.05 8.00857
3003.36 7.13550
3003.67 6.69844
3003.99 6.45026
3004.61 6.19458
3005.23 6.07260
3005.85 6.00581
3007.09 5.94020
3008.34 5.91208
3009.58 5.89955
3012.06 5.89529
3017.04 5.92629
3022.01 6.00678
3024.49 6.07929
3026.98 6.19286
3029.46 6.38235
3031.95 6.72992
3033.19 7.02302
3034.44 7.46958
3035.68 8.19737
3036.92 9.50052
3037.54 10.5778
3038.16 12.1864
3038.79 14.7505
3039.41 19.1835
3040.03 27.8755
3040.34 35.7236
3040.65 48.4743
3040.96 71.3067
3041.12 89.9558
3041.27 117.464
3041.43 160.413
3041.58 230.501
3041.74 352.486
3041.89 571.143
3042.05 910.606
3042.20 1137.22
3042.36 909.471
3042.51 570.892
3042.65 367.855
3042.79 249.041
3042.93 177.158
3043.07 132.211
3043.35 81.7646
3043.63 56.1332
3043.91 41.4906
3044.20 32.3852
3044.76 22.1563
3045.32 16.8576
3045.88 13.7671
3046.44 11.8095
3047.01 10.4920
3048.13 8.88349
3049.25 7.97578
3050.38 7.41340
3051.50 7.04104
3053.75 6.59300
3056.00 6.34563
3058.24 6.21096
3058.81 6.20358
3059.37 6.23945
3059.65 6.31016
3059.93 6.50982
3060.07 6.75582
3060.21 7.29843
3060.28 7.84344
3060.35 8.81749
3060.42 10.7302
3060.46 12.3728
3060.49 14.7611
3060.55 20.1539
3060.60 23.8973
3060.66 20.4770
3060.71 15.1611
3060.75 12.2632
3060.80 10.4634
3060.84 9.28445
3060.88 8.52239
3060.97 7.61370
3061.06 7.13129
3061.23 6.65439
3061.40 6.43777
3061.75 6.24575
3062.10 6.16130
3062.79 6.08223
3063.49 6.04112
3066.26 5.95851
3069.04 5.91199
3071.81 5.87932
3077.36 5.83557
3082.91 5.80751
3094.01 5.77346
3105.11 5.75317
3116.20 5.73926
3127.30 5.72881
3149.50 5.71345
3171.70 5.70207
3193.90 5.69298
3216.09 5.68569
3227.19 5.68361
3232.74 5.68686
3235.52 5.70466
3236.21 5.72301
3236.90 5.77285
3237.25 5.83784
3237.60 6.00304
3237.77 6.20242
3237.94 6.65181
3238.03 7.12517
3238.12 8.00903
3238.16 8.78544
3238.20 9.94066
3238.25 11.7501
3238.29 14.6025
3238.35 19.9957
3238.40 23.6144
3238.46 20.0277
3238.51 14.6425
3238.55 11.8944
3238.59 10.1107
3238.67 8.18676
3238.76 7.25419
3238.84 6.75683
3239.00 6.26866
3239.16 6.05028
3239.49 5.86429
3239.81 5.79010
3240.46 5.73199
3241.11 5.71007
3243.72 5.68724
3248.92 5.68067
3259.33 5.68087
3264.54 5.68588
3269.75 5.70319
3272.35 5.72852
3273.65 5.75412
3274.95 5.80091
3276.25 5.90039
3276.91 5.99833
3277.56 6.17363
3277.88 6.31918
3278.21 6.53680
3278.53 6.88562
3278.86 7.49171
3279.18 8.69496
3279.35 9.79524
3279.51 11.6010
3279.67 14.9101
3279.75 17.6621
3279.83 21.8044
3279.92 28.5044
3280.00 39.8325
3280.08 60.7109
3280.16 101.087
3280.23 158.375
3280.30 196.591
3280.37 158.421
3280.44 101.146
3280.52 63.2987
3280.59 42.8130
3280.66 31.0207
3280.74 23.9903
3280.81 19.4156
3280.88 16.3705
3281.03 12.6557
3281.18 10.5635
3281.32 9.29003
3281.62 7.87310
3281.91 7.14692
3282.20 6.72885
3282.50 6.46566
3282.79 6.28936
3283.38 6.07497
3283.96 5.95492
3285.13 5.83189
3286.31 5.77328
3287.48 5.74078
3289.83 5.70769
3294.52 5.68290
3299.21 5.67338
3308.59 5.66515
3317.98 5.66093
3355.51 5.65135
3393.04 5.64543
3402.43 5.64524
3411.81 5.64793
3416.50 5.65324
3421.19 5.66995
3423.54 5.69398
3424.71 5.71819
3425.89 5.76250
3427.06 5.85678
3427.65 5.94984
3428.23 6.11675
3428.53 6.25564
3428.82 6.46362
3429.11 6.79640
3429.40 7.37752
3429.70 8.53044
3429.84 9.59092
3429.99 11.3363
3430.14 14.5537
3430.21 17.2420
3430.28 21.3091
3430.36 27.9457
3430.43 39.2706
3430.50 60.4582
3430.58 102.280
3430.64 160.334
3430.70 199.091
3430.76 160.460
3430.82 102.438
3430.88 67.0372
3430.94 46.4591
3431.00 34.2430
3431.06 26.7210
3431.17 18.2146
3431.29 13.9597
3431.40 11.5174
3431.52 10.0166
3431.75 8.33167
3431.98 7.45672
3432.21 6.94776
3432.44 6.62604
3432.67 6.41064
3433.13 6.14690
3433.59 5.99872
3434.52 5.84626
3435.44 5.77344
3436.36 5.73302
3438.21 5.69194
3441.90 5.66152
3445.59 5.65031
3452.97 5.64161
3460.35 5.63824
3467.74 5.63710
3475.12 5.63912
3478.81 5.64384
3482.50 5.65896
3484.35 5.68078
3486.19 5.74286
3487.11 5.82801
3487.58 5.91175
3488.04 6.06116
3488.50 6.36928
3488.73 6.66284
3488.96 7.16777
3489.19 8.15717
3489.31 9.04318
3489.42 10.4808
3489.54 13.0591
3489.60 15.1675
3489.65 18.2076
3489.71 22.9675
3489.77 30.5613
3489.83 43.8311
3489.88 66.7829
3489.94 103.545
3490.00 128.110
3490.06 103.681
3490.12 66.9535
3490.16 50.2848
3490.19 38.7807
3490.27 25.3340
3490.35 18.4429
3490.42 14.5952
3490.50 12.2040
3490.57 10.6465
3490.72 8.82637
3490.88 7.83536
3491.03 7.24521
3491.33 6.60304
3491.63 6.27923
3491.94 6.09411
3492.54 5.90157
3493.15 5.80830
3493.75 5.75624
3494.96 5.70301
3497.38 5.66365
3499.80 5.64969
3504.65 5.64371
3507.07 5.66108
3507.67 5.68030
3508.28 5.73239
3508.58 5.79955
3508.88 5.96616
3509.04 6.16290
3509.19 6.59155
3509.26 7.02659
3509.34 7.80180
3509.41 9.38054
3509.45 10.7751
3509.49 12.8095
3509.55 17.1439
3509.60 19.9944
3509.66 17.1498
3509.71 12.8169
3509.75 10.6074
3509.79 9.18576
3509.88 7.62174
3509.96 6.87900
3510.04 6.47989
3510.21 6.09310
3510.37 5.92081
3510.70 5.77490
3511.04 5.71664
3511.70 5.67109
3512.36 5.65388
3515.01 5.63555
3520.31 5.62924
3530.90 5.62561
3552.10 5.62200
3573.29 5.62064
3583.89 5.62626
3586.54 5.63326
3589.19 5.65382
3590.51 5.68254
3591.84 5.76261
3592.50 5.87074
3592.83 5.97548
3593.16 6.16026
3593.49 6.53270
3593.66 6.88095
3593.82 7.46518
3593.99 8.57170
3594.07 9.53135
3594.15 11.0090
3594.24 13.5115
3594.32 18.1170
3594.36 22.0126
3594.40 27.6346
3594.44 36.1173
3594.49 48.9186
3594.54 75.0868
3594.60 92.1247
3594.66 74.6778
3594.72 49.0079
3594.75 37.7704
3594.78 30.0315
3594.85 20.6134
3594.92 15.5768
3594.99 12.6538
3595.06 10.8311
3595.12 9.62615
3595.26 8.19066
3595.40 7.40026
3595.53 6.92676
3595.81 6.40834
3596.08 6.14542
3596.35 5.99508
3596.90 5.83766
3597.99 5.71865
3599.07 5.67498
3601.25 5.64254
3603.43 5.63067
3607.79 5.62164
3612.15 5.61806
3629.58 5.61297
3664.45 5.60832
3699.32 5.60467
3716.76 5.60328
3725.47 5.60373
3729.83 5.60826
3732.01 5.62668
3733.10 5.69284
3733.37 5.75385
3733.65 5.90275
3733.78 6.07384
3733.92 6.43904
3734.05 7.42079
3734.12 8.61415
3734.19 11.0832
3734.25 14.3799
3734.30 16.5680
3734.36 14.3821
3734.41 11.0860
3734.46 9.04275
3734.52 7.86736
3734.62 6.75835
3734.73 6.28977
3734.83 6.05463
3735.04 5.83831
3735.25 5.74653
3735.67 5.67159
3736.09 5.64253
3737.78 5.61208
3741.15 5.60362
3747.88 5.60099
3761.35 5.59989
3774.82 5.60240
3778.18 5.60604
3781.55 5.61691
3783.24 5.63220
3784.92 5.67506
3785.76 5.73331
3786.60 5.89151
3787.02 6.09870
3787.23 6.29547
3787.44 6.63214
3787.66 7.28748
3787.76 7.86996
3787.87 8.80801
3787.97 10.4529
3788.08 13.6979
3788.13 16.6427
3788.18 21.2396
3788.23 29.0691
3788.29 42.3047
3788.34 64.4421
3788.40 79.0371
3788.46 64.4601
3788.51 42.3273
3788.55 32.6445
3788.59 25.7883
3788.66 17.6888
3788.73 13.4944
3788.80 11.1129
3788.87 9.65037
3788.95 8.69429
3789.09 7.57346
3789.23 6.96102
3789.38 6.59375
3789.66 6.19586
3789.95 5.99530
3790.24 5.88105
3790.81 5.76207
3791.96 5.67245
3793.11 5.63973
3795.41 5.61560
3797.71 5.60687
3806.90 5.59790
3816.10 5.59688
3820.69 5.60131
3822.99 5.62041
3824.14 5.68965
3824.43 5.75393
3824.72 5.91207
3824.86 6.09639
3825.00 6.49208
3825.07 6.88741
3825.15 7.59171
3825.22 8.97561
3825.29 11.8727
3825.35 15.6593
3825.40 18.1544
3825.46 15.6617
3825.51 11.8756
3825.58 9.08921
3825.65 7.71814
3825.71 6.98677
3825.78 6.57395
3825.92 6.14726
3826.05 5.94819
3826.32 5.77317
3826.59 5.70179
3827.67 5.62365
3829.82 5.60141
3834.13 5.59522
3842.75 5.59355
3851.37 5.59620
3855.68 5.61023
3856.76 5.62470
3857.84 5.66460
3858.37 5.71785
3858.91 5.85817
3859.18 6.03630
3859.45 6.47008
3859.59 6.96977
3859.72 8.02456
3859.79 9.06935
3859.86 10.8644
3859.92 14.2619
3859.96 17.1344
3859.99 21.0773
3860.05 30.4608
3860.10 36.5694
3860.16 30.2861
3860.21 21.0823
3860.26 15.6581
3860.31 12.4081
3860.36 10.4307
3860.41 9.17356
3860.51 7.75608
3860.60 7.03544
3860.80 6.35738
3860.99 6.06335
3861.38 5.82125
3861.77 5.72654
3862.55 5.65379
3863.33 5.62681
3864.89 5.60673
3866.45 5.59942
3872.69 5.59182
3885.18 5.58908
3910.14 5.58722
3935.11 5.58847
3941.35 5.59133
3947.59 5.60031
3950.71 5.61317
3953.83 5.64978
3955.40 5.70025
3956.18 5.75015
3956.96 5.84020
3957.74 6.02853
3958.13 6.21129
3958.52 6.53429
3958.71 6.79789
3958.91 7.18788
3959.10 7.79969
3959.30 8.83844
3959.49 10.8117
3959.59 12.5485
3959.69 15.2606
3959.78 19.9267
3959.88 28.6201
3959.93 36.1161
3959.98 47.4911
3960.03 65.3225
3960.08 92.9333
3960.14 145.628
3960.20 180.222
3960.26 145.627
3960.32 92.8634
3960.37 67.6492
3960.41 50.4978
3960.46 39.0930
3960.50 31.4739
3960.59 22.0200
3960.67 16.8947
3960.76 13.7827
3960.85 11.8046
3961.02 9.50455
3961.20 8.26892
3961.37 7.53537
3961.55 7.06519
3961.72 6.74763
3962.07 6.35432
3962.42 6.13141
3963.12 5.90052
3963.82 5.78946
3964.52 5.72774
3965.91 5.66513
3968.71 5.61925
3971.50 5.60280
3977.09 5.59066
3982.68 5.58613
4005.04 5.58063
4049.75 5.57709
4094.46 5.57644
4105.64 5.57794
4116.82 5.58285
4122.41 5.58945
4128.00 5.60632
4130.79 5.62726
4133.59 5.67990
4134.99 5.74620
4135.68 5.80871
4136.38 5.91755
4137.08 6.13784
4137.43 6.34628
4137.78 6.70808
4138.13 7.42867
4138.30 8.09372
4138.48 9.20079
4138.65 11.2784
4138.74 13.0549
4138.83 15.8080
4138.92 20.4489
4139.00 28.8149
4139.05 35.8095
4139.09 45.8194
4139.13 61.1911
4139.18 84.0353
4139.24 130.483
4139.30 161.448
4139.36 129.675
4139.42 83.0305
4139.48 53.9176
4139.54 37.2056
4139.60 27.4742
4139.66 21.5663
4139.72 17.6513
4139.78 14.9888
4139.90 11.7485
4140.02 9.91033
4140.14 8.79104
4140.38 7.54575
4140.62 6.91341
4140.86 6.55243
4141.33 6.18535
4141.81 6.02128
4142.29 5.94644
4143.25 5.93277
4144.20 6.07516
4144.68 6.24759
4145.16 6.57025
4145.40 6.84124
4145.63 7.24843
4145.87 7.89690
4146.11 9.01634
4146.35 11.1891
4146.47 13.1392
4146.59 16.2538
4146.71 21.7594
4146.83 32.5005
4146.89 42.1759
4146.95 57.2100
4147.01 82.5077
4147.07 124.305
4147.13 196.229
4147.20 243.416
4147.27 195.751
4147.33 125.135
4147.41 75.1654
4147.48 49.0643
4147.56 34.7977
4147.63 26.4829
4147.71 21.1583
4147.78 17.6531
4147.93 13.4024
4148.08 11.0401
4148.23 9.61390
4148.53 8.04110
4148.83 7.23730
4149.12 6.77453
4149.42 6.48276
4149.72 6.28685
4150.32 6.04753
4150.91 5.91250
4152.11 5.77248
4153.30 5.70461
4154.49 5.66637
4156.88 5.62670
4161.65 5.59641
4166.42 5.58495
4175.97 5.57608
4185.51 5.57270
4204.60 5.57112
4214.14 5.57554
4218.92 5.59441
4220.11 5.61343
4221.30 5.66573
4221.90 5.73557
4222.49 5.92050
4222.79 6.15690
4223.09 6.73946
4223.24 7.41710
4223.32 8.00091
4223.39 8.88814
4223.46 10.3678
4223.54 12.9769
4223.61 18.2067
4223.65 22.6805
4223.69 29.2763
4223.74 43.5804
4223.80 52.9519
4223.86 43.5716
4223.91 29.2443
4223.95 22.9644
4223.98 18.6016
4224.05 13.4161
4224.12 10.7121
4224.19 9.16959
4224.26 8.20838
4224.33 7.58910
4224.47 6.85721
4224.62 6.45747
4224.76 6.21926
4225.04 5.95922
4225.60 5.75414
4226.16 5.67666
4227.28 5.61861
4228.41 5.59761
4230.66 5.58250
4232.90 5.57748
4241.89 5.57654
4246.39 5.58219
4250.89 5.59933
4253.13 5.62292
4255.38 5.68824
4256.50 5.77670
4257.07 5.86330
4257.63 6.01814
4258.19 6.33765
4258.47 6.64336
4258.75 7.17537
4259.03 8.22594
4259.17 9.18795
4259.31 10.7632
4259.46 13.6471
4259.53 16.0385
4259.60 19.6300
4259.67 25.3307
4259.74 35.0076
4259.81 52.7011
4259.88 86.7577
4259.94 135.748
4260.00 167.926
4260.06 135.783
4260.12 86.7366
4260.18 59.8835
4260.23 42.9970
4260.28 32.4796
4260.33 25.7817
4260.44 17.9244
4260.54 13.8689
4260.64 11.4911
4260.75 10.0114
4260.95 8.32301
4261.16 7.44109
4261.37 6.92430
4261.78 6.37495
4262.19 6.10498
4262.61 5.95307
4263.44 5.79817
4264.26 5.72618
4265.09 5.68868
4266.75 5.65984
4268.40 5.66812
4270.06 5.73452
4270.89 5.83426
4271.30 5.93282
4271.72 6.10816
4272.13 6.46435
4272.34 6.79854
4272.54 7.36710
4272.75 8.45059
4272.86 9.40715
4272.96 10.9075
4273.06 13.5015
4273.17 18.3795
4273.22 22.6210
4273.27 28.9583
4273.32 39.1503
4273.37 55.0157
4273.44 84.8609
4273.50 104.298
4273.57 84.2434
4273.63 54.8563
4273.67 41.8428
4273.71 32.9286
4273.79 22.1097
4273.87 16.4359
4273.95 13.1876
4274.02 11.1816
4274.10 9.86510
4274.26 8.30843
4274.42 7.46263
4274.58 6.95421
4274.89 6.40108
4275.21 6.12317
4275.53 5.96430
4276.16 5.79922
4277.42 5.67483
4278.68 5.62939
4281.21 5.59572
4283.74 5.58355
4288.79 5.57507
4293.84 5.57354
4298.90 5.57655
4303.95 5.58961
4306.48 5.60907
4309.01 5.66474
4310.27 5.74135
4310.90 5.81682
4311.53 5.95199
4312.17 6.23210
4312.48 6.50062
4312.80 6.96651
4313.11 7.88924
4313.27 8.73065
4313.43 10.1183
4313.59 12.6389
4313.67 14.7418
4313.74 17.9024
4313.82 22.9235
4313.90 31.4547
4313.98 47.0643
4314.06 76.4109
4314.13 119.299
4314.20 147.399
4314.27 118.757
4314.34 76.5400
4314.40 52.7100
4314.46 38.0400
4314.52 28.9119
4314.58 23.0090
4314.70 16.2408
4314.81 12.7401
4314.93 10.6881
4315.05 9.40851
4315.28 7.94811
4315.52 7.18180
4315.75 6.73452
4316.22 6.25794
4316.69 6.02246
4317.16 5.88965
4318.11 5.75257
4319.99 5.65048
4321.87 5.61347
4325.63 5.58635
4329.40 5.57675
4336.92 5.57043
4344.45 5.56989
4351.98 5.57361
4359.50 5.58761
4363.27 5.60791
4365.15 5.62829
4367.03 5.66544
4368.91 5.74445
4369.85 5.82246
4370.79 5.96317
4371.74 6.25750
4372.21 6.54374
4372.68 7.04930
4372.91 7.46451
4373.15 8.07762
4373.38 9.04166
4373.62 10.6841
4373.85 13.8219
4373.97 16.5973
4374.09 20.9673
4374.21 28.5428
4374.32 42.8890
4374.38 55.4262
4374.44 74.7293
4374.50 105.557
4374.56 154.146
4374.63 243.414
4374.70 301.578
4374.77 241.976
4374.84 152.968
4374.91 102.194
4374.97 71.8332
4375.03 53.0565
4375.09 40.9650
4375.21 27.1562
4375.33 19.9951
4375.46 15.8519
4375.58 13.2536
4375.82 10.3127
4376.07 8.77932
4376.31 7.88184
4376.55 7.31231
4376.80 6.92867
4377.29 6.46026
4377.77 6.19623
4378.75 5.92515
4379.73 5.79596
4380.70 5.72468
4382.65 5.65290
4384.61 5.61945
4386.56 5.60144
4390.46 5.58458
4394.37 5.57978
4398.27 5.58649
4400.23 5.60115
4402.18 5.64610
4403.15 5.70909
4403.64 5.77139
4404.13 5.88325
4404.62 6.11438
4404.86 6.33520
4405.11 6.71818
4405.35 7.46930
4405.47 8.14843
4405.59 9.25798
4405.72 11.2448
4405.78 12.8779
4405.84 15.2964
4405.90 19.0619
4405.96 25.2817
4406.02 36.2169
4406.08 56.3066
4406.14 86.9710
4406.20 107.251
4406.26 87.1280
4406.32 56.5036
4406.37 39.1705
4406.42 28.6735
4406.47 22.0576
4406.52 17.8884
4406.62 13.0778
4406.72 10.6058
4406.82 9.15921
4406.92 8.25306
4407.12 7.23163
4407.33 6.69569
4407.53 6.38315
4407.93 6.04938
4408.33 5.88473
4408.74 5.79152
4409.54 5.69520
4411.15 5.62292
4412.77 5.59631
4415.99 5.57622
4419.21 5.56860
4432.10 5.56012
4445.00 5.55904
4451.44 5.56190
4454.67 5.57282
4456.28 5.61196
4456.68 5.64910
4457.09 5.74444
4457.29 5.86139
4457.49 6.13240
4457.59 6.42735
4457.69 7.00306
4457.79 8.35522
4457.84 9.72864
4457.89 12.0771
4457.95 15.9735
4458.00 18.5876
4458.06 15.9675
4458.11 12.0697
4458.16 9.72176
4458.21 8.34920
4458.31 7.00682
4458.41 6.42780
4458.51 6.13391
4458.71 5.86119
4458.91 5.74477
4459.31 5.64941
4459.71 5.61245
4461.32 5.57437
4464.53 5.56595
4470.94 5.57356
4474.15 5.58812
4477.36 5.63051
4478.96 5.68938
4479.76 5.74776
4480.56 5.85315
4481.36 6.07410
4481.77 6.28869
4482.17 6.66814
4482.37 6.97879
4482.57 7.43608
4482.77 8.15703
4482.97 9.37431
4483.17 11.6966
4483.27 13.7159
4483.37 16.8936
4483.47 22.2813
4483.57 32.3636
4483.62 40.9188
4483.67 53.7924
4483.72 73.7673
4483.77 105.297
4483.84 165.443
4483.90 205.174
4483.97 165.540
4484.03 105.420
4484.09 71.4565
4484.14 50.8619
4484.20 38.0824
4484.25 29.8341
4484.36 20.3345
4484.47 15.4553
4484.58 12.6061
4484.69 10.8359
4484.91 8.82722
4485.13 7.77359
4485.35 7.15907
4485.58 6.76686
4485.80 6.50360
4486.24 6.18084
4486.68 5.99855
4487.56 5.81086
4488.44 5.72101
4489.32 5.67122
4491.09 5.62069
4494.62 5.58359
4498.15 5.57022
4505.20 5.56034
4512.26 5.55675
4526.37 5.55493
4533.43 5.55829
4536.96 5.57304
4538.72 5.62792
4539.16 5.68052
4539.61 5.81649
4539.83 5.98453
4540.05 6.37833
4540.16 6.81495
4540.27 7.68584
4540.32 8.48203
4540.38 9.77470
4540.43 11.9939
4540.49 15.9525
4540.54 22.2173
4540.60 26.3408
4540.66 22.2081
4540.71 15.9410
4540.76 12.5408
4540.80 10.3956
4540.90 8.18834
4540.99 7.16951
4541.08 6.64129
4541.26 6.13612
4541.44 5.91505
4541.81 5.73050
4542.17 5.65780
4542.90 5.60172
4543.63 5.58098
4546.56 5.56019
4552.40 5.55536
4564.09 5.55801
4569.93 5.56412
4575.77 5.58246
4578.70 5.60827
4580.16 5.63409
4581.62 5.68119
4583.08 5.78124
4583.81 5.87999
4584.54 6.05740
4585.27 6.42705
4585.64 6.78317
4586.00 7.40802
4586.37 8.65765
4586.55 9.81637
4586.73 11.7450
4586.91 15.3495
4587.01 18.4136
4587.10 23.1269
4587.19 30.9736
4587.28 44.8582
4587.37 72.2180
4587.42 96.1677
4587.46 130.844
4587.53 206.352
4587.60 256.238
4587.67 206.416
4587.74 130.926
4587.80 85.7445
4587.87 59.0445
4587.93 43.1185
4587.99 33.2668
4588.12 22.1138
4588.25 16.5162
4588.38 13.3013
4588.50 11.3223
4588.76 9.09958
4589.01 7.94542
4589.27 7.27393
4589.52 6.84949
4589.78 6.56529
4590.29 6.21761
4590.80 6.02237
4591.81 5.82181
4592.83 5.72625
4593.85 5.67337
4595.89 5.61990
4599.97 5.58094
4604.04 5.56712
4612.19 5.55744
4620.34 5.55487
4628.50 5.55570
4636.65 5.56229
4640.72 5.57251
4644.80 5.60187
4646.84 5.64235
4647.86 5.68237
4648.87 5.75462
4649.89 5.90588
4650.40 6.05309
4650.91 6.31341
4651.42 6.84362
4651.68 7.34285
4651.93 8.19169
4652.19 9.82508
4652.31 11.2619
4652.44 13.5498
4652.57 17.5375
4652.70 25.1671
4652.76 31.8971
4652.82 42.1573
4652.89 58.9526
4652.95 85.8690
4653.03 134.378
4653.10 166.126
4653.18 133.632
4653.25 85.7890
4653.33 55.0642
4653.40 37.9691
4653.47 28.0231
4653.55 21.9021
4653.62 17.9234
4653.70 15.2124
4653.84 11.8834
4653.99 9.99702
4654.14 8.84427
4654.44 7.56030
4654.73 6.89923
4655.03 6.51763
4655.62 6.11527
4656.22 5.91925
4656.81 5.80936
4657.99 5.69714
4660.37 5.61454
4662.74 5.58503
4667.48 5.56386
4672.22 5.55671
4681.71 5.55412
4686.45 5.56213
4688.82 5.59425
4689.41 5.62559
4690.00 5.70851
4690.30 5.81425
4690.60 6.07472
4690.75 6.37787
4690.89 7.03709
4690.97 7.69603
4691.04 8.87756
4691.12 11.2244
4691.15 13.2681
4691.19 16.3131
4691.25 22.7935
4691.30 27.0396
4691.36 22.7643
4691.41 16.2764
4691.45 13.0359
4691.49 10.9304
4691.57 8.60550
4691.65 7.48051
4691.73 6.86892
4691.89 6.26825
4692.05 5.99984
4692.37 5.77232
4692.69 5.68189
4693.34 5.61153
4693.98 5.58543
4696.54 5.55947
4701.67 5.55414
4711.94 5.56022
4717.07 5.57063
4722.20 5.59883
4724.77 5.63603
4726.05 5.67203
4727.33 5.73609
4728.61 5.86898
4729.26 5.99790
4729.90 6.22639
4730.54 6.69543
4730.86 7.14252
4731.18 7.91573
4731.50 9.44396
4731.66 10.8318
4731.82 13.1189
4731.98 17.3106
4732.06 20.7990
4732.14 26.0558
4732.22 34.4428
4732.30 48.7917
4732.38 75.3451
4732.46 127.466
4732.53 200.574
4732.60 248.574
4732.67 199.917
4732.74 126.645
4732.80 84.4640
4732.86 58.9240
4732.92 43.3911
4732.98 33.6518
4733.10 22.4675
4733.22 16.7883
4733.35 13.5026
4733.47 11.4723
4733.71 9.18470
4733.95 7.99466
4734.20 7.30257
4734.44 6.86579
4734.68 6.57406
4735.17 6.21871
4735.65 6.02086
4736.62 5.82121
4737.59 5.72973
4738.56 5.68293
4740.50 5.64860
4742.45 5.66230
4743.42 5.69228
4744.39 5.75432
4745.36 5.89262
4745.84 6.03021
4746.33 6.27701
4746.81 6.78603
4747.06 7.27009
4747.30 8.10049
4747.54 9.71921
4747.66 11.1611
4747.78 13.4868
4747.91 17.6190
4748.03 25.7558
4748.09 33.1603
4748.15 44.7982
4748.21 64.6851
4748.27 98.8035
4748.34 154.936
4748.40 192.295
4748.47 155.183
4748.53 99.0412
4748.59 63.7188
4748.66 43.8426
4748.72 32.0628
4748.78 24.9185
4748.85 20.1942
4748.91 17.0234
4749.04 13.0896
4749.17 10.8695
4749.29 9.50026
4749.55 7.97789
4749.80 7.19087
4750.05 6.73410
4750.56 6.25288
4751.07 6.01708
4751.58 5.88487
4752.59 5.74980
4753.61 5.68687
4754.62 5.65417
4756.65 5.63042
4758.68 5.64387
4759.70 5.67052
4760.71 5.72607
4761.73 5.85154
4762.23 5.97809
4762.74 6.20673
4763.25 6.68280
4763.50 7.13890
4763.76 7.92645
4764.01 9.47349
4764.14 10.8685
4764.26 13.1158
4764.39 17.1344
4764.45 20.4418
4764.52 25.2221
4764.58 32.6982
4764.64 44.6479
4764.71 65.0586
4764.77 100.782
4764.84 158.765
4764.90 196.953
4764.97 158.580
4765.03 101.720
4765.09 67.6611
4765.15 47.4328
4765.21 35.2131
4765.27 27.4831
4765.39 18.8065
4765.50 14.3771
4765.62 11.8379
4765.74 10.2544
4765.97 8.47469
4766.21 7.54378
4766.45 6.99896
4766.92 6.41969
4767.39 6.13249
4767.86 5.96963
4768.80 5.80012
4769.75 5.71759
4770.69 5.67100
4772.57 5.62256
4776.34 5.58538
4780.12 5.57142
4787.66 5.56207
4795.20 5.56245
4802.74 5.57197
4810.28 5.60598
4814.05 5.65544
4815.94 5.70526
4817.83 5.79623
4819.71 5.98932
4820.65 6.17904
4821.60 6.51803
4822.07 6.79843
4822.54 7.21682
4823.01 7.88393
4823.48 9.03655
4823.95 11.2978
4824.19 13.3401
4824.43 16.6552
4824.66 22.5992
4824.78 27.4755
4824.90 34.6078
4825.01 45.7528
4825.13 64.0741
4825.25 96.0517
4825.37 152.896
4825.48 241.588
4825.60 300.044
4825.72 241.054
4825.83 152.613
4825.94 100.057
4826.05 69.0173
4826.15 50.3477
4826.26 38.6656
4826.47 25.4520
4826.68 18.7597
4826.89 14.9137
4827.10 12.5321
4827.53 9.85167
4827.95 8.45846
4828.37 7.64596
4828.79 7.13141
4829.22 6.78586
4830.06 6.36303
4830.91 6.12483
4832.60 5.87953
4834.29 5.76217
4835.98 5.69699
4839.36 5.63081
4842.74 5.59978
4846.13 5.58381
4849.51 5.58140
4851.20 5.60893
4852.05 5.71597
4852.26 5.81261
4852.47 6.03957
4852.57 6.28970
4852.68 6.78549
4852.79 7.97930
4852.84 9.24214
4852.89 11.4171
4852.95 14.9246
4853.00 17.2840
4853.06 14.9326
4853.11 11.4270
4853.18 8.74042
4853.25 7.45788
4853.39 6.42383
4853.53 6.04525
4853.67 5.86920
4853.95 5.71625
4854.23 5.65402
4855.35 5.58507
4857.60 5.56331
4862.08 5.55406
4871.06 5.54756
4889.01 5.54232
4924.91 5.53961
4942.86 5.54097
4960.81 5.54758
4969.78 5.55778
4978.76 5.58738
4983.25 5.62854
4985.49 5.66950
4987.73 5.74395
4989.98 5.90176
4991.10 6.05722
4992.22 6.33661
4992.78 6.56896
4993.34 6.91904
4993.90 7.48220
4994.46 8.47398
4994.75 9.28238
4995.03 10.4704
4995.31 12.3332
4995.59 15.4662
4995.87 21.3877
4996.01 26.5019
4996.15 34.4872
4996.29 47.8749
4996.43 72.5041
4996.50 93.0402
4996.57 123.418
4996.64 169.529
4996.71 239.587
4996.80 380.161
4996.90 472.287
4997.00 378.431
4997.09 238.155
4997.19 152.667
4997.28 103.149
4997.37 73.8271
4997.46 55.5526
4997.64 35.3411
4997.82 25.2137
4998.00 19.4261
4998.18 15.8612
4998.55 11.8592
4998.91 9.79117
4999.27 8.59331
4999.64 7.83672
5000.00 7.32881
5000.71 6.71956
5001.42 6.37414
5002.14 6.15970
5002.85 6.01757
5004.27 5.84687
5005.70 5.75225
5008.54 5.65661
5011.39 5.61183
5017.09 5.57303
5022.78 5.55842
5028.48 5.55465
5034.17 5.56449
5037.02 5.58455
5039.87 5.64698
5041.29 5.73615
5042.00 5.82548
5042.71 5.98779
5043.43 6.32850
5043.78 6.65896
5044.14 7.24093
5044.49 8.40840
5044.67 9.48887
5044.85 11.2980
5045.03 14.6574
5045.12 17.5234
5045.21 21.9278
5045.30 29.1428
5045.38 41.9551
5045.47 66.9921
5045.52 88.1387
5045.56 119.079
5045.63 187.810
5045.70 233.471
5045.77 188.476
5045.84 119.915
5045.90 79.3025
5045.96 55.3644
5046.03 40.8671
5046.09 31.6782
5046.21 21.2873
5046.34 16.0289
5046.46 12.9906
5046.59 11.1123
5046.83 8.98642
5047.08 7.88190
5047.33 7.23604
5047.58 6.82600
5047.83 6.54943
5048.33 6.21078
5048.83 6.01891
5049.82 5.82023
5050.82 5.72429
5051.81 5.67048
5053.81 5.61503
5057.79 5.57296
5061.77 5.55699
5069.74 5.54441
5077.71 5.53960
5085.67 5.53799
5093.64 5.54041
5097.62 5.54615
5101.61 5.56473
5103.60 5.59181
5105.59 5.66960
5106.59 5.77701
5107.08 5.88289
5107.58 6.07268
5108.08 6.46410
5108.33 6.83731
5108.58 7.48306
5108.83 8.74446
5108.95 9.88548
5109.08 11.7252
5109.20 15.0217
5109.26 17.6896
5109.32 21.6024
5109.39 27.6151
5109.45 37.3667
5109.51 54.0754
5109.57 83.6306
5109.64 130.519
5109.70 162.108
5109.76 130.866
5109.83 84.0031
5109.89 55.5535
5109.95 38.7518
5110.01 28.7949
5110.07 22.6699
5110.19 15.7571
5110.31 12.3022
5110.43 10.3205
5110.54 9.10243
5110.78 7.73060
5111.02 7.02150
5111.26 6.60833
5111.74 6.17062
5112.22 5.95555
5112.70 5.83406
5113.65 5.70875
5115.56 5.61471
5117.47 5.58016
5121.30 5.55419
5125.12 5.54444
5132.76 5.53678
5140.41 5.53369
5155.70 5.53165
5163.34 5.53396
5167.17 5.54468
5169.08 5.58454
5169.55 5.62295
5170.03 5.72309
5170.27 5.84779
5170.51 6.14600
5170.63 6.48122
5170.75 7.16507
5170.87 8.87182
5170.93 10.7910
5170.99 14.3298
5171.04 19.6215
5171.10 23.1238
5171.16 19.6240
5171.21 14.3250
5171.27 11.1054
5171.32 9.25132
5171.42 7.45205
5171.53 6.67606
5171.63 6.28844
5171.84 5.92924
5172.05 5.77546
5172.47 5.65007
5172.88 5.60150
5174.56 5.55159
5177.90 5.54330
5181.24 5.57092
5182.08 5.60120
5182.91 5.68421
5183.33 5.79344
5183.75 6.07490
5183.96 6.41910
5184.17 7.21890
5184.27 8.08700
5184.38 9.77482
5184.43 11.2760
5184.48 13.6436
5184.53 17.5485
5184.58 24.0932
5184.64 35.3620
5184.70 42.7290
5184.76 35.2162
5184.82 24.1653
5184.87 17.1455
5184.93 13.2062
5184.99 10.8881
5185.04 9.44949
5185.16 7.85449
5185.27 7.06349
5185.49 6.33487
5185.72 6.02502
5186.17 5.77146
5186.61 5.67287
5187.51 5.59735
5188.41 5.56945
5192.00 5.54290
5195.60 5.54965
5197.39 5.59604
5197.84 5.64192
5198.29 5.76173
5198.52 5.91096
5198.74 6.26362
5198.85 6.65806
5198.97 7.45337
5199.08 9.39653
5199.13 11.5038
5199.19 15.3307
5199.25 21.2508
5199.30 25.1465
5199.36 21.2667
5199.41 15.3506
5199.46 11.9926
5199.51 9.96271
5199.60 7.88486
5199.70 6.96217
5199.79 6.48589
5199.98 6.03912
5200.17 5.84544
5200.55 5.68442
5200.93 5.62137
5202.45 5.55436
5205.48 5.53546
5211.55 5.52996
5223.70 5.52893
5235.84 5.53518
5238.87 5.54246
5241.91 5.56341
5243.43 5.59243
5244.94 5.67326
5245.70 5.78233
5246.08 5.88853
5246.46 6.07597
5246.84 6.45697
5247.03 6.81449
5247.22 7.41873
5247.41 8.57418
5247.51 9.58733
5247.60 11.1685
5247.70 13.8886
5247.79 19.0269
5247.84 23.4850
5247.89 30.1119
5247.93 40.4591
5247.98 56.8357
5248.04 87.8150
5248.10 108.161
5248.16 87.8584
5248.22 56.8479
5248.29 35.7510
5248.35 24.5876
5248.42 18.3354
5248.49 14.6890
5248.55 12.3473
5248.62 10.8075
5248.75 8.94856
5248.88 7.91162
5249.02 7.28154
5249.28 6.59075
5249.55 6.23850
5249.81 6.03647
5250.34 5.82442
5251.41 5.66386
5252.47 5.60502
5254.59 5.56158
5256.71 5.54594
5260.96 5.53451
5265.21 5.53044
5282.19 5.52731
5290.69 5.52879
5299.18 5.53488
5303.43 5.54406
5307.67 5.57072
5309.80 5.60796
5311.92 5.71252
5312.98 5.85502
5313.51 5.99463
5314.04 6.24322
5314.57 6.75446
5314.84 7.24171
5315.10 8.07995
5315.37 9.72105
5315.50 11.1983
5315.63 13.5777
5315.77 17.8315
5315.83 21.2708
5315.90 26.3098
5315.97 34.1912
5316.03 46.8171
5316.10 68.4407
5316.16 106.420
5316.23 167.020
5316.30 207.468
5316.37 167.132
5316.44 106.561
5316.50 69.8761
5316.56 48.4412
5316.63 35.6635
5316.69 27.7631
5316.81 18.8660
5316.94 14.3545
5317.06 11.7806
5317.19 10.1817
5317.44 8.38741
5317.69 7.45910
5317.94 6.91825
5318.44 6.34588
5318.94 6.06490
5319.44 5.90703
5320.44 5.74481
5321.44 5.66731
5322.44 5.62439
5324.44 5.58084
5328.44 5.54889
5332.44 5.53737
5340.45 5.52880
5348.45 5.52560
5380.46 5.52221
5412.48 5.52351
5428.48 5.53001
5436.48 5.54574
5440.49 5.58225
5441.49 5.61080
5442.49 5.67932
5442.99 5.76320
5443.49 5.97266
5443.74 6.22794
5443.99 6.83258
5444.11 7.50717
5444.24 8.90050
5444.30 10.2312
5444.36 12.4384
5444.43 16.5065
5444.49 24.1278
5444.54 35.1979
5444.60 42.3519
5444.66 34.9553
5444.71 23.8086
5444.76 17.3428
5444.81 13.5091
5444.86 11.1506
5444.91 9.69227
5445.02 8.04260
5445.12 7.20664
5445.32 6.43785
5445.52 6.11243
5445.92 5.85676
5446.33 5.76972
5447.14 5.73827
5447.94 5.79227
5448.75 5.94871
5449.15 6.10809
5449.56 6.39183
5449.96 6.96901
5450.16 7.50965
5450.36 8.42174
5450.57 10.1605
5450.67 11.6814
5450.77 14.0821
5450.87 18.1709
5450.97 25.8792
5451.02 32.5501
5451.07 42.4635
5451.12 57.9178
5451.17 82.3215
5451.24 128.507
5451.30 158.736
5451.36 128.251
5451.43 81.9411
5451.47 61.6384
5451.51 47.2417
5451.59 30.3492
5451.67 21.6647
5451.76 16.8049
5451.84 13.7867
5451.92 11.8207
5452.08 9.52351
5452.25 8.27504
5452.41 7.53249
5452.74 6.72519
5453.06 6.32171
5453.39 6.09217
5454.04 5.85552
5454.70 5.74295
5455.35 5.68192
5456.66 5.62522
5457.97 5.60967
5459.27 5.63034
5459.93 5.67249
5460.58 5.79242
5460.91 5.94873
5461.23 6.34098
5461.40 6.80692
5461.56 7.83475
5461.64 8.89243
5461.72 10.8119
5461.77 12.4296
5461.81 14.8269
5461.85 18.4729
5461.89 23.9081
5461.94 34.9692
5462.00 42.2076
5462.06 34.9422
5462.11 23.8581
5462.16 18.2246
5462.20 14.5871
5462.24 12.2175
5462.28 10.6296
5462.37 8.74219
5462.45 7.72537
5462.62 6.73814
5462.79 6.29630
5463.12 5.92508
5463.46 5.77840
5464.13 5.66748
5464.80 5.63032
5466.15 5.61722
5467.49 5.64249
5468.83 5.71796
5469.51 5.79716
5470.18 5.94231
5470.85 6.24723
5471.19 6.54229
5471.52 7.06039
5471.86 8.09521
5472.03 9.04886
5472.19 10.6390
5472.36 13.5742
5472.45 16.0636
5472.53 19.8673
5472.61 26.0496
5472.70 36.9054
5472.78 57.7692
5472.82 75.3540
5472.87 100.526
5472.93 158.154
5473.00 195.963
5473.07 157.592
5473.14 100.952
5473.19 70.0594
5473.24 50.6168
5473.30 38.2916
5473.35 30.2059
5473.46 20.8002
5473.57 15.8354
5473.68 12.9293
5473.78 11.0918
5474.00 8.99464
5474.22 7.89182
5474.43 7.24227
5474.86 6.54766
5475.30 6.20353
5475.73 6.00821
5476.59 5.80601
5477.45 5.70836
5478.32 5.65379
5480.04 5.59777
5483.50 5.55581
5486.95 5.54027
5493.86 5.52853
5500.77 5.52427
5514.59 5.52172
5528.40 5.52259
5542.22 5.52745
5556.04 5.54425
5562.95 5.56898
5566.40 5.59416
5569.85 5.64068
5573.31 5.74087
5575.03 5.84080
5576.76 6.02250
5577.63 6.17498
5578.49 6.40618
5579.35 6.78206
5580.22 7.45148
5580.65 8.00293
5581.08 8.82532
5581.51 10.1290
5581.94 12.3681
5582.37 16.7226
5582.59 20.6190
5582.81 26.9153
5583.02 38.0095
5583.24 60.0551
5583.35 79.9765
5583.45 111.912
5583.56 165.753
5583.67 257.315
5583.79 409.362
5583.90 509.754
5584.02 408.385
5584.13 257.850
5584.21 189.533
5584.28 142.295
5584.43 86.9535
5584.58 58.5252
5584.72 42.5489
5584.87 32.6885
5585.02 26.2592
5585.31 18.7211
5585.61 14.6296
5585.90 12.1849
5586.50 9.52410
5587.09 8.18834
5587.68 7.42464
5588.27 6.94752
5588.86 6.62963
5590.04 6.24552
5591.22 6.03100
5592.41 5.89904
5593.59 5.81214
5595.95 5.70813
5598.31 5.65060
5603.04 5.59224
5607.77 5.56461
5612.49 5.54934
5621.95 5.53400
5631.40 5.52748
5640.86 5.52694
5645.58 5.53124
5650.31 5.54744
5652.68 5.57185
5655.04 5.64282
5656.22 5.74149
5656.81 5.83918
5657.40 6.01506
5657.99 6.38016
5658.29 6.73142
5658.58 7.34164
5658.88 8.55195
5659.03 9.65617
5659.18 11.4612
5659.32 14.7524
5659.40 17.4932
5659.47 21.5355
5659.54 28.0029
5659.62 38.9292
5659.69 58.7567
5659.77 95.9375
5659.83 150.609
5659.90 186.863
5659.97 151.005
5660.03 96.4350
5660.09 65.4446
5660.15 46.4296
5660.21 34.7416
5660.27 27.2534
5660.38 18.7461
5660.50 14.3836
5660.61 11.8392
5660.73 10.2470
5660.96 8.45293
5661.19 7.51286
5661.42 6.96442
5661.89 6.37896
5662.35 6.09006
5662.81 5.92648
5663.74 5.75741
5665.59 5.63081
5667.44 5.58474
5671.14 5.55183
5674.85 5.54322
5678.55 5.54754
5682.25 5.57735
5684.11 5.62502
5685.03 5.67434
5685.96 5.76564
5686.88 5.96154
5687.35 6.15485
5687.81 6.50075
5688.27 7.21020
5688.50 7.88328
5688.73 9.03151
5688.97 11.2483
5689.08 13.2103
5689.20 16.3066
5689.31 21.6882
5689.43 31.9047
5689.49 40.8518
5689.54 54.6508
5689.60 76.7361
5689.66 111.874
5689.73 176.467
5689.80 219.338
5689.87 177.404
5689.94 112.974
5690.00 76.4181
5690.06 53.8949
5690.12 40.0705
5690.18 31.2227
5690.31 21.1789
5690.43 16.0290
5690.55 13.0265
5690.67 11.1591
5690.91 9.03212
5691.16 7.92002
5691.40 7.26676
5691.89 6.56892
5692.37 6.22234
5692.86 6.02563
5693.83 5.82082
5694.80 5.72116
5695.78 5.66500
5697.72 5.60663
5701.61 5.56175
5705.50 5.54439
5713.28 5.53027
5721.06 5.52430
5752.18 5.51613
5814.41 5.51149
5876.65 5.50978
5907.76 5.51045
5923.32 5.51410
5931.10 5.52775
5933.05 5.54155
5934.99 5.58008
5935.96 5.63253
5936.94 5.77557
5937.42 5.96414
5937.91 6.45449
5938.15 7.06231
5938.27 7.61345
5938.39 8.50465
5938.52 10.1102
5938.58 11.4297
5938.64 13.3445
5938.70 16.3625
5938.76 21.3395
5938.82 30.0675
5938.88 45.7952
5938.94 69.7989
5939.00 86.1017
5939.06 69.8427
5939.12 45.8161
5939.16 34.3168
5939.20 26.5160
5939.24 21.2779
5939.28 17.6821
5939.37 13.2995
5939.45 10.9014
5939.53 9.43387
5939.61 8.49705
5939.77 7.39721
5939.94 6.80494
5940.10 6.45457
5940.43 6.07591
5941.08 5.77864
5941.73 5.66690
5943.04 5.58308
5944.34 5.55269
5946.95 5.53057
5949.56 5.52288
5960.01 5.51701
5970.45 5.51985
5975.67 5.52607
5978.28 5.54245
5979.59 5.59701
5980.24 5.77445
5980.56 6.25944
5980.73 7.24150
5980.81 8.58736
5980.89 11.6749
5980.95 15.3664
5981.00 17.8290
5981.06 15.3717
5981.11 11.6817
5981.19 8.69190
5981.26 7.35999
5981.42 6.33117
5981.72 5.80638
5982.33 5.60990
5983.55 5.55032
5986.00 5.53628
5990.88 5.54007
5995.77 5.55295
6000.65 5.57776
6005.54 5.63103
6007.98 5.68379
6010.42 5.77912
6011.64 5.85881
6012.87 5.97940
6014.09 6.17476
6015.31 6.52247
6015.92 6.80868
6016.53 7.23558
6017.14 7.91289
6017.75 9.07957
6018.36 11.3572
6018.67 13.4017
6018.97 16.7226
6019.28 22.6480
6019.43 27.4900
6019.58 34.5631
6019.74 45.5465
6019.89 63.3365
6020.04 94.2583
6020.19 148.742
6020.35 234.414
6020.50 291.372
6020.66 233.631
6020.81 148.051
6020.95 96.2121
6021.09 66.1149
6021.24 48.0269
6021.38 36.7717
6021.66 24.2038
6021.95 17.8505
6022.23 14.2341
6022.52 11.9914
6023.09 9.47985
6023.66 8.18353
6024.23 7.42980
6024.80 6.95373
6025.37 6.63417
6026.51 6.24546
6027.65 6.02724
6028.79 5.89273
6029.93 5.80414
6032.21 5.69834
6034.49 5.64018
6039.05 5.58227
6043.61 5.55650
6048.17 5.54587
6052.73 5.55780
6053.87 5.57659
6055.01 5.63063
6055.58 5.70337
6056.15 5.89584
6056.43 6.13938
6056.72 6.73543
6056.86 7.42461
6057.00 8.88908
6057.07 10.3231
6057.14 12.8344
6057.21 17.6456
6057.25 21.7601
6057.29 27.6321
6057.34 40.8794
6057.40 49.6384
6057.46 40.8132
6057.51 27.5299
6057.58 18.4604
6057.64 13.6973
6057.70 11.0195
6057.76 9.45628
6057.89 7.78871
6058.01 6.98490
6058.26 6.27065
6058.51 5.97467
6059.01 5.73708
6059.51 5.64659
6060.51 5.57805
6061.51 5.55285
6065.51 5.52709
6073.50 5.52191
6077.49 5.52547
6081.49 5.53844
6083.49 5.55675
6085.48 5.60725
6086.48 5.67502
6087.48 5.85778
6087.98 6.09714
6088.23 6.32436
6088.48 6.71469
6088.73 7.47906
6088.85 8.16809
6088.98 9.27979
6089.10 11.2767
6089.17 12.9298
6089.23 15.3341
6089.29 19.1308
6089.35 25.2819
6089.42 35.9993
6089.48 55.4591
6089.54 85.4586
6089.60 105.159
6089.66 85.2598
6089.72 55.2102
6089.78 37.9143
6089.83 27.5784
6089.88 21.2393
6089.94 17.1844
6090.04 12.5859
6090.15 10.2180
6090.25 8.85469
6090.36 8.00291
6090.57 7.04257
6090.78 6.54406
6091.00 6.25331
6091.42 5.94580
6092.27 5.71125
6093.12 5.62540
6094.81 5.56314
6096.51 5.54194
6099.90 5.52952
6103.29 5.53053
6106.69 5.54192
6110.08 5.57917
6111.78 5.63114
6113.47 5.77471
6114.32 5.96712
6114.74 6.15340
6115.17 6.48209
6115.59 7.14608
6115.80 7.76689
6116.02 8.82001
6116.23 10.8187
6116.33 12.5655
6116.44 15.3201
6116.55 20.0050
6116.65 28.8163
6116.71 36.3329
6116.76 47.7027
6116.81 65.4593
6116.86 93.3446
6116.93 145.985
6117.00 181.026
6117.07 145.856
6117.14 93.1835
6117.18 68.3184
6117.23 51.4965
6117.27 40.1368
6117.32 32.3021
6117.41 22.7061
6117.50 17.3808
6117.60 14.1607
6117.69 12.0788
6117.87 9.66205
6118.06 8.35806
6118.24 7.58502
6118.61 6.74761
6118.97 6.32920
6119.34 6.09214
6120.07 5.84718
6120.81 5.73021
6121.54 5.66625
6123.01 5.60474
6124.48 5.58376
6125.95 5.59532
6126.68 5.62863
6127.42 5.73020
6127.79 5.86683
6128.15 6.21851
6128.34 6.64567
6128.52 7.61388
6128.61 8.63850
6128.70 10.5935
6128.75 12.2849
6128.80 14.8773
6128.84 18.9935
6128.89 25.4542
6128.94 37.4284
6129.00 45.5154
6129.06 37.5512
6129.11 25.5897
6129.16 19.2514
6129.20 15.2209
6129.25 12.5830
6129.29 10.8800
6129.38 8.85820
6129.47 7.78406
6129.65 6.75196
6129.83 6.29313
6130.18 5.90765
6130.54 5.75375
6131.25 5.63297
6131.96 5.58683
6134.81 5.53746
6140.50 5.52421
6146.20 5.52810
6149.04 5.54109
6150.47 5.57648
6151.18 5.68368
6151.53 5.97624
6151.71 6.58701
6151.80 7.45422
6151.89 9.57675
6151.95 11.9807
6152.00 13.5365
6152.06 11.9161
6152.11 9.49234
6152.20 7.41525
6152.28 6.56543
6152.46 5.95948
6152.80 5.67298
6153.49 5.57440
6154.88 5.55038
6157.64 5.55731
6160.41 5.58009
6163.18 5.62414
6165.94 5.71936
6167.33 5.81383
6168.71 5.98432
6170.09 6.34038
6170.79 6.68463
6171.48 7.28887
6172.17 8.50192
6172.51 9.62582
6172.86 11.5047
6173.21 15.0151
6173.38 18.0242
6173.55 22.6733
6173.72 30.3494
6173.90 44.1463
6173.98 55.4576
6174.07 71.6248
6174.16 95.4258
6174.24 130.372
6174.37 205.169
6174.50 255.008
6174.63 204.699
6174.76 130.079
6174.87 87.4046
6174.98 61.6545
6175.09 45.7367
6175.20 35.4915
6175.42 23.7604
6175.64 17.7149
6175.86 14.2037
6176.08 12.0131
6176.52 9.52731
6176.96 8.23121
6177.41 7.47232
6177.85 6.99048
6178.29 6.66631
6179.17 6.26923
6180.05 6.04543
6181.81 5.81744
6183.58 5.71613
6185.34 5.68917
6186.22 5.72281
6187.10 5.86996
6187.55 6.09053
6187.77 6.30919
6187.99 6.69193
6188.21 7.44856
6188.32 8.12495
6188.43 9.21351
6188.54 11.1094
6188.65 14.7840
6188.70 18.0056
6188.76 23.0018
6188.81 31.0494
6188.87 44.1531
6188.93 68.2586
6189.00 84.6529
6189.07 69.4281
6189.13 46.0898
6189.17 35.8959
6189.21 28.6387
6189.29 19.9045
6189.37 15.1638
6189.45 12.4395
6189.53 10.7113
6189.61 9.57792
6189.77 8.20689
6189.93 7.44720
6190.09 6.98216
6190.41 6.46371
6191.04 6.03492
6191.68 5.86130
6192.95 5.71821
6194.22 5.65843
6196.76 5.60620
6199.31 5.58315
6204.39 5.56455
6209.48 5.56275
6214.57 5.57680
6219.65 5.62954
6222.20 5.70463
6223.47 5.77893
6224.74 5.91252
6226.01 6.19127
6226.65 6.46152
6227.28 6.93873
6227.60 7.32953
6227.92 7.90958
6228.24 8.82428
6228.55 10.3906
6228.87 13.4098
6229.03 16.0942
6229.19 20.4065
6229.35 27.9448
6229.51 42.7522
6229.59 56.0791
6229.67 76.9248
6229.75 111.404
6229.82 169.398
6229.91 267.370
6230.00 332.377
6230.09 266.618
6230.18 168.462
6230.27 101.539
6230.37 66.2575
6230.46 46.6211
6230.56 34.9133
6230.65 27.4124
6230.75 22.4501
6230.94 16.4593
6231.13 13.1256
6231.32 11.1086
6231.70 8.88398
6232.08 7.75643
6232.46 7.10892
6232.84 6.70373
6233.22 6.43376
6233.99 6.10815
6234.75 5.92712
6236.27 5.74407
6237.80 5.65834
6239.32 5.61175
6242.37 5.56584
6248.46 5.53513
6254.55 5.52844
6260.65 5.53395
6266.74 5.56250
6269.79 5.60549
6271.31 5.64899
6272.84 5.72856
6274.36 5.89772
6275.12 6.06422
6275.88 6.36228
6276.64 6.97920
6277.03 7.57004
6277.41 8.59855
6277.79 10.6292
6277.98 12.4854
6278.17 15.5281
6278.36 21.0795
6278.45 25.6836
6278.55 32.5891
6278.64 43.5295
6278.74 62.0495
6278.83 95.7700
6278.93 159.915
6279.02 253.241
6279.10 314.570
6279.19 252.256
6279.27 160.132
6279.34 111.996
6279.40 81.3788
6279.47 61.2063
6279.53 47.9457
6279.66 32.0942
6279.79 23.5832
6279.92 18.5470
6280.05 15.3394
6280.30 11.6539
6280.56 9.70462
6280.82 8.55274
6281.08 7.81667
6281.34 7.31818
6281.85 6.70597
6282.37 6.35867
6283.40 5.99966
6284.43 5.82733
6285.46 5.73147
6287.53 5.63404
6291.65 5.56241
6295.78 5.53670
6304.04 5.51878
6308.16 5.51898
6310.23 5.53449
6311.26 5.59567
6311.77 5.79174
6312.03 6.28760
6312.16 7.17300
6312.23 8.20635
6312.29 10.2225
6312.35 13.0964
6312.40 14.9833
6312.46 13.0814
6312.51 10.2720
6312.58 8.20710
6312.64 7.17629
6312.77 6.29902
6313.03 5.80194
6313.56 5.60211
6314.60 5.53688
6316.68 5.51724
6320.86 5.51093
6329.20 5.50885
6337.55 5.51011
6341.72 5.51482
6343.80 5.53020
6344.85 5.58227
6345.37 5.74346
6345.63 6.14827
6345.76 6.87008
6345.83 7.72634
6345.89 9.43999
6345.95 11.7746
6346.00 13.3404
6346.06 11.7523
6346.11 9.41210
6346.19 7.43557
6346.27 6.58592
6346.44 5.96820
6346.76 5.66425
6347.42 5.55469
6348.72 5.52219
6351.33 5.51426
6356.56 5.51434
6367.01 5.52109
6377.46 5.53438
6387.90 5.56075
6393.13 5.58403
6398.35 5.62063
6403.58 5.68230
6408.80 5.79700
6411.42 5.89485
6414.03 6.04527
6416.64 6.29310
6419.25 6.74274
6420.56 7.11835
6421.86 7.68586
6423.17 8.60044
6424.48 10.2114
6425.78 13.4450
6426.43 16.4399
6427.09 21.4593
6427.74 30.7942
6428.07 38.7863
6428.39 51.0526
6428.72 71.2629
6429.05 107.183
6429.37 178.054
6429.54 238.956
6429.70 327.680
6429.95 522.454
6430.20 652.384
6430.45 523.343
6430.70 329.859
6430.88 233.121
6431.06 169.667
6431.24 127.531
6431.42 99.1456
6431.78 64.9062
6432.15 46.2428
6432.51 35.0854
6432.87 27.9260
6433.59 19.6456
6434.31 15.2238
6435.03 12.5961
6435.75 10.9095
6436.48 9.76416
6437.92 8.34884
6439.36 7.54182
6440.81 7.03743
6442.25 6.70135
6445.14 6.29421
6448.02 6.06585
6450.91 5.92465
6453.80 5.83108
6459.57 5.71811
6465.34 5.65473
6471.12 5.61606
6474.00 5.60666
6475.45 5.62319
6476.17 5.70453
6476.53 5.95378
6476.71 6.49951
6476.80 7.29813
6476.89 9.35338
6476.95 11.6583
6477.00 13.2628
6477.06 11.7767
6477.11 9.50074
6477.18 7.72798
6477.25 6.87866
6477.39 6.18484
6477.67 5.80853
6478.24 5.65777
6479.36 5.60456
6481.62 5.58219
6486.13 5.56570
6495.15 5.54719
6513.18 5.52673
6522.20 5.52080
6531.22 5.51844
6535.73 5.52129
6540.24 5.53623
6542.50 5.56130
6544.75 5.63871
6545.88 5.75022
6546.44 5.86242
6547.01 6.06604
6547.57 6.49289
6547.85 6.90439
6548.13 7.61905
6548.41 9.03158
6548.56 10.3124
6548.70 12.4073
6548.84 16.1584
6548.91 19.2640
6548.98 23.7887
6549.05 30.9122
6549.12 42.4427
6549.19 62.4413
6549.26 98.1257
6549.33 154.778
6549.40 192.383
6549.47 155.243
6549.54 99.7675
6549.62 61.3792
6549.69 41.0993
6549.77 29.7587
6549.85 22.9684
6549.92 18.5916
6550.00 15.6942
6550.15 12.1783
6550.30 10.2061
6550.46 9.00669
6550.76 7.67406
6551.07 6.98727
6551.37 6.58922
6551.98 6.16624
6552.59 5.95727
6553.20 5.83885
6554.42 5.71606
6556.85 5.62581
6559.29 5.60032
6561.73 5.60721
6564.16 5.66956
6565.38 5.76685
6566.60 6.04154
6567.21 6.40700
6567.51 6.75592
6567.82 7.35624
6568.12 8.52772
6568.28 9.57349
6568.43 11.2624
6568.58 14.2604
6568.73 20.1796
6568.81 25.5175
6568.88 34.0566
6568.96 48.4153
6569.04 73.2788
6569.12 113.973
6569.20 141.469
6569.28 114.316
6569.36 73.7079
6569.44 49.8114
6569.51 35.4368
6569.58 26.7280
6569.66 21.2082
6569.80 15.0022
6569.95 11.8464
6570.09 10.0209
6570.24 8.88294
6570.53 7.60431
6570.82 6.93701
6571.11 6.54797
6571.70 6.13318
6572.28 5.92837
6572.86 5.81215
6574.03 5.69147
6576.36 5.59954
6578.69 5.56476
6583.35 5.53753
6588.01 5.52739
6592.68 5.52492
6597.34 5.53457
6599.67 5.55460
6602.00 5.61913
6603.17 5.71314
6603.75 5.80806
6604.33 5.98071
6604.91 6.34349
6605.21 6.69478
6605.50 7.30722
6605.79 8.52446
6605.93 9.63488
6606.08 11.4469
6606.23 14.7379
6606.30 17.4648
6606.37 21.4634
6606.44 27.8099
6606.52 38.4028
6606.59 57.2829
6606.66 91.8452
6606.73 144.412
6606.80 179.589
6606.87 145.533
6606.94 93.2499
6607.00 62.5893
6607.06 44.1112
6607.12 32.9133
6607.19 25.8130
6607.31 17.8234
6607.43 13.7339
6607.56 11.3844
6607.68 9.91654
6607.93 8.26276
6608.18 7.39536
6608.43 6.88628
6608.92 6.34302
6609.42 6.07241
6609.91 5.91825
6610.90 5.75690
6612.88 5.63288
6614.86 5.58600
6618.83 5.55366
6620.81 5.56707
6621.80 5.64819
6622.29 5.91714
6622.54 6.59613
6622.67 7.79036
6622.73 9.17460
6622.79 11.8278
6622.85 15.6661
6622.90 18.2589
6622.96 15.7796
6623.01 11.9639
6623.07 9.46076
6623.12 8.07036
6623.24 6.80443
6623.46 6.02829
6623.92 5.69378
6624.82 5.57837
6626.63 5.54059
6630.26 5.52558
6637.50 5.51652
6652.00 5.50930
6666.49 5.50683
6673.74 5.51370
6675.55 5.52284
6677.36 5.55043
6678.27 5.58954
6679.17 5.69901
6679.62 5.84542
6680.08 6.22916
6680.30 6.70754
6680.53 7.83495
6680.64 9.07324
6680.76 11.5580
6680.81 13.8504
6680.87 17.4962
6680.93 23.8437
6680.98 34.9752
6681.04 52.6715
6681.10 64.8106
6681.16 52.9839
6681.22 35.3390
6681.27 25.2687
6681.32 19.1650
6681.37 15.2960
6681.42 12.8483
6681.51 10.0099
6681.61 8.53297
6681.81 7.13680
6682.01 6.52418
6682.41 6.01386
6682.80 5.81145
6683.59 5.65357
6684.39 5.59393
6685.97 5.54901
6687.55 5.53339
6690.72 5.53425
6692.30 5.58593
6693.10 5.77384
6693.29 5.93988
6693.49 6.32465
6693.59 6.73769
6693.69 7.54329
6693.79 9.37578
6693.84 11.1851
6693.89 14.2136
6693.94 19.4364
6694.00 22.9806
6694.06 19.4872
6694.11 14.2769
6694.18 10.5886
6694.24 8.66290
6694.37 7.01516
6694.50 6.37602
6694.63 6.06962
6694.89 5.79724
6695.15 5.68444
6696.18 5.55839
6698.25 5.52063
6702.38 5.50855
6710.65 5.50338
6727.19 5.50033
6743.72 5.50390
6747.86 5.51070
6751.99 5.53291
6754.06 5.56593
6756.13 5.66250
6757.16 5.79740
6757.68 5.93105
6758.19 6.17072
6758.71 6.66650
6758.97 7.14030
6759.23 7.95560
6759.49 9.54884
6759.61 10.9708
6759.74 13.2666
6759.87 17.3026
6760.00 25.2851
6760.07 32.5264
6760.13 43.8831
6760.20 63.1733
6760.26 95.5176
6760.33 150.338
6760.40 186.525
6760.47 150.300
6760.54 96.4979
6760.59 69.8182
6760.64 52.0861
6760.69 40.3003
6760.74 32.4078
6760.84 22.7106
6760.94 17.3726
6761.04 14.1595
6761.14 12.0874
6761.33 9.67600
6761.53 8.38361
6761.73 7.61246
6762.13 6.77735
6762.52 6.35831
6762.92 6.11827
6763.71 5.86723
6765.29 5.67592
6766.88 5.60454
6770.05 5.55043
6773.21 5.53027
6779.55 5.51761
6782.72 5.52809
6784.30 5.58094
6785.09 5.76680
6785.29 5.93034
6785.49 6.30859
6785.59 6.71393
6785.69 7.50326
6785.79 9.29512
6785.84 11.1083
6785.89 14.0960
6785.94 19.2472
6786.00 22.7403
6786.06 19.2913
6786.11 14.1509
6786.19 10.2439
6786.26 8.35793
6786.40 6.81701
6786.54 6.24388
6786.68 5.97820
6786.97 5.74607
6787.25 5.65123
6788.39 5.54650
6790.67 5.51545
6795.22 5.50535
6804.32 5.50059
6822.53 5.49757
6831.64 5.49785
6840.74 5.50215
6845.29 5.51017
6849.85 5.53601
6852.12 5.57416
6854.40 5.68535
6855.54 5.84029
6856.10 5.99366
6856.67 6.26931
6857.24 6.83887
6857.53 7.38341
6857.81 8.32174
6858.10 10.1581
6858.24 11.8012
6858.38 14.4607
6858.52 19.1996
6858.67 28.5952
6858.74 37.1067
6858.81 50.7833
6858.88 73.9137
6858.95 113.898
6859.03 179.830
6859.10 223.365
6859.18 179.748
6859.25 114.951
6859.32 74.4699
6859.39 51.3951
6859.47 37.7027
6859.54 29.1520
6859.68 19.6251
6859.82 14.8597
6859.96 12.1300
6860.11 10.4492
6860.39 8.56072
6860.68 7.57870
6860.96 7.00734
6861.53 6.39898
6862.10 6.09888
6862.67 5.92872
6863.80 5.75222
6866.08 5.61871
6868.36 5.56909
6872.91 5.53150
6877.46 5.51779
6882.02 5.51265
6886.57 5.51591
6888.85 5.52620
6891.12 5.56096
6892.26 5.61215
6893.40 5.75872
6893.97 5.95812
6894.25 6.15181
6894.54 6.49062
6894.82 7.16774
6894.96 7.78640
6895.10 8.80954
6895.25 10.6905
6895.32 12.2552
6895.39 14.6103
6895.46 18.3572
6895.53 24.7336
6895.60 36.4279
6895.67 59.2479
6895.74 91.8520
6895.80 113.755
6895.86 92.4924
6895.93 60.0066
6896.00 37.3814
6896.07 25.5919
6896.14 19.0878
6896.21 15.2303
6896.28 12.7587
6896.35 11.1330
6896.49 9.17034
6896.63 8.07462
6896.77 7.41113
6897.05 6.67649
6897.33 6.29913
6897.61 6.08041
6898.17 5.84942
6899.30 5.67074
6900.42 5.60325
6902.66 5.55138
6904.91 5.53172
6909.40 5.51911
6911.65 5.53024
6912.77 5.58600
6913.33 5.77339
6913.61 6.26992
6913.75 7.20250
6913.82 8.36363
6913.89 10.7867
6913.95 13.9885
6914.00 16.1526
6914.06 14.0606
6914.11 10.8767
6914.20 8.05779
6914.29 6.91903
6914.46 6.10433
6914.81 5.71246
6915.51 5.56971
6916.91 5.52445
6919.71 5.50972
6925.31 5.50338
6936.50 5.49921
6947.70 5.49760
6953.29 5.49959
6956.09 5.51112
6957.49 5.55664
6958.19 5.71271
6958.54 6.15617
6958.72 7.09318
6958.80 8.41352
6958.89 11.6847
6958.95 15.4382
6959.00 17.9466
6959.06 15.4963
6959.11 11.7575
6959.16 9.50680
6959.21 8.19776
6959.31 6.90178
6959.51 6.06076
6959.92 5.68219
6960.72 5.55104
6962.33 5.51139
6965.56 5.49986
6972.00 5.49643
6978.45 5.49787
6981.67 5.50909
6983.28 5.55440
6984.08 5.71379
6984.29 5.85605
6984.49 6.18715
6984.69 7.25319
6984.79 8.90622
6984.84 10.5801
6984.89 13.4256
6984.95 18.2546
6985.00 21.4407
6985.06 18.3240
6985.11 13.5127
6985.15 10.9761
6985.20 9.33522
6985.29 7.61799
6985.46 6.38864
6985.64 5.98008
6985.81 5.79867
6986.51 5.58567
6987.91 5.52018
6990.71 5.50122
6996.31 5.49550
7007.50 5.49336
7018.69 5.49352
7024.29 5.49787
7027.09 5.51602
7028.49 5.58316
7029.19 5.80693
7029.36 5.99859
7029.54 6.43021
7029.71 7.72157
7029.80 9.50558
7029.84 11.1928
7029.89 13.8001
7029.94 18.7691
7030.00 22.1270
7030.06 18.7836
7030.11 13.8181
7030.16 11.1153
7030.21 9.40194
7030.30 7.62973
7030.48 6.37971
7030.66 5.96933
7030.84 5.78917
7031.58 5.57849
7033.04 5.51506
7035.96 5.49743
7041.81 5.49255
7053.50 5.49119
7065.19 5.49210
7071.04 5.49605
7073.96 5.50917
7075.43 5.55476
7076.16 5.70496
7076.52 6.12600
7076.71 7.02078
7076.80 8.29696
7076.89 11.5284
7076.94 15.1437
7077.00 17.5401
7077.06 15.1244
7077.11 11.5044
7077.21 8.25585
7077.30 6.98717
7077.48 6.10583
7077.85 5.69546
7078.59 5.55140
7080.07 5.50943
7083.02 5.50025
7088.92 5.50890
7091.88 5.52521
7094.83 5.57270
7096.31 5.63848
7097.78 5.82022
7098.52 6.06287
7098.89 6.29556
7099.26 6.70132
7099.63 7.50398
7099.81 8.23896
7100.00 9.44522
7100.18 11.6505
7100.28 13.4824
7100.37 16.2345
7100.46 20.6650
7100.55 28.1327
7100.64 41.8108
7100.74 68.2446
7100.82 105.877
7100.90 131.254
7100.98 106.072
7101.06 68.4890
7101.12 50.0880
7101.18 37.7416
7101.24 29.5446
7101.30 23.9688
7101.41 17.2376
7101.53 13.5546
7101.64 11.3478
7101.76 9.92974
7101.99 8.29135
7102.22 7.41262
7102.45 6.89235
7102.92 6.32982
7103.38 6.04916
7103.84 5.88929
7104.77 5.72338
7106.62 5.59920
7108.47 5.55518
7112.18 5.53808
7114.03 5.60077
7114.49 5.66950
7114.96 5.85374
7115.19 6.08605
7115.42 6.63800
7115.54 7.25173
7115.65 8.49574
7115.71 9.64189
7115.77 11.5147
7115.83 14.7530
7115.88 20.3723
7115.94 29.4148
7116.00 35.5459
7116.06 29.6612
7116.12 20.6802
7116.15 16.7676
7116.19 14.0701
7116.26 10.7530
7116.33 8.99102
7116.40 7.98357
7116.54 6.92948
7116.68 6.42816
7116.97 5.98505
7117.25 5.80047
7117.81 5.65107
7118.38 5.59278
7120.63 5.52934
7125.15 5.51304
7129.67 5.53639
7130.80 5.56544
7131.92 5.64741
7132.49 5.75764
7133.05 6.04910
7133.34 6.41751
7133.62 7.31551
7133.76 8.34176
7133.90 10.5150
7133.97 12.6402
7134.04 16.2637
7134.11 23.1772
7134.18 36.8526
7134.24 55.7875
7134.30 68.2984
7134.36 55.8570
7134.42 36.9398
7134.47 25.4343
7134.53 18.7040
7134.59 14.7273
7134.64 12.2885
7134.75 9.55483
7134.86 8.17624
7135.09 6.90294
7135.31 6.36047
7135.75 5.91609
7136.20 5.74317
7137.09 5.61054
7137.98 5.56127
7139.76 5.52433
7141.54 5.51072
7148.65 5.49681
7155.77 5.49657
7159.33 5.50754
7161.11 5.55224
7162.00 5.71091
7162.22 5.85402
7162.44 6.19164
7162.55 6.56324
7162.66 7.31119
7162.78 9.10883
7162.83 11.0426
7162.89 14.3878
7162.94 19.7612
7163.00 23.3739
7163.06 19.8342
7163.11 14.4791
7163.16 11.5073
7163.21 9.66205
7163.30 7.76650
7163.40 6.89235
7163.49 6.43871
7163.68 6.00408
7163.86 5.81245
7164.61 5.58893
7166.11 5.52090
7169.10 5.50207
7175.08 5.49895
7187.05 5.51206
7193.03 5.53442
7199.01 5.60028
7202.01 5.69222
7203.50 5.78362
7205.00 5.94901
7206.49 6.29655
7207.24 6.63509
7207.99 7.23574
7208.36 7.72777
7208.74 8.45829
7209.11 9.60971
7209.48 11.5777
7209.86 15.3542
7210.05 18.6925
7210.23 24.0188
7210.42 33.2307
7210.61 51.0084
7210.70 66.6848
7210.79 90.7676
7210.89 129.576
7210.98 192.818
7211.09 305.830
7211.20 380.307
7211.31 304.821
7211.42 192.919
7211.49 143.214
7211.56 108.932
7211.69 68.0120
7211.83 46.4573
7211.97 34.2334
7212.10 26.6361
7212.24 21.6905
7212.51 15.8195
7212.79 12.6302
7213.06 10.7127
7213.60 8.62809
7214.15 7.57734
7214.70 6.97633
7215.79 6.35134
7216.88 6.04961
7217.97 5.88189
7220.15 5.71277
7222.34 5.63656
7224.52 5.60416
7226.70 5.62909
7227.25 5.67122
7227.79 5.78806
7228.07 5.93790
7228.34 6.30464
7228.48 6.72626
7228.61 7.61174
7228.68 8.46625
7228.75 9.93661
7228.82 12.6781
7228.88 18.1211
7228.94 25.7321
7229.00 30.7839
7229.06 25.8179
7229.12 18.2289
7229.16 14.4994
7229.20 12.0022
7229.28 9.23705
7229.37 7.89548
7229.45 7.17130
7229.62 6.45367
7229.79 6.12875
7230.12 5.85310
7230.45 5.74456
7231.79 5.64394
7233.13 5.66049
7234.47 5.73732
7235.81 5.93119
7236.47 6.13319
7237.14 6.50461
7237.81 7.28817
7238.15 8.04282
7238.48 9.35562
7238.81 11.9367
7238.98 14.2524
7239.15 18.0023
7239.32 24.6117
7239.48 37.7096
7239.57 49.5752
7239.65 68.2531
7239.73 99.8554
7239.82 153.441
7239.91 243.502
7240.00 305.282
7240.09 246.616
7240.18 157.330
7240.25 112.864
7240.31 83.5134
7240.38 63.7145
7240.45 50.4444
7240.58 34.2560
7240.71 25.3766
7240.84 20.0406
7240.97 16.6010
7241.23 12.5954
7241.49 10.4437
7241.76 9.15548
7242.02 8.32274
7242.28 7.75455
7242.80 7.04365
7243.33 6.63332
7244.37 6.19774
7245.42 5.98121
7246.47 5.85664
7248.56 5.72408
7252.75 5.61789
7256.94 5.57478
7265.31 5.53896
7269.50 5.53562
7271.59 5.56001
7272.64 5.66689
7272.90 5.76879
7273.17 6.02122
7273.30 6.31253
7273.43 6.93321
7273.56 8.58233
7273.62 10.5273
7273.69 14.4321
7273.74 19.8255
7273.80 23.5674
7273.86 20.0135
7273.91 14.6580
7273.99 10.3425
7274.06 8.34519
7274.21 6.79620
7274.37 6.23757
7274.52 5.98155
7274.82 5.75885
7275.12 5.66735
7276.33 5.56464
7278.76 5.53148
7283.60 5.51840
7288.45 5.51708
7290.87 5.53456
7292.08 5.61001
7292.68 5.86754
7292.84 6.08725
7292.99 6.56944
7293.14 7.94057
7293.21 9.73686
7293.29 13.6184
7293.35 18.6028
7293.40 21.9056
7293.46 18.6506
7293.51 13.7964
7293.59 9.75881
7293.67 7.95747
7293.83 6.59018
7293.99 6.11128
7294.14 5.89373
7294.77 5.62918
7296.04 5.54424
7298.56 5.51784
7303.61 5.50812
7313.70 5.50244
7323.79 5.50017
7328.84 5.50359
7331.37 5.52348
7332.63 5.60232
7333.26 5.86894
7333.42 6.09652
7333.57 6.59828
7333.73 8.05801
7333.81 10.0006
7333.89 14.3738
7333.94 19.7147
7334.00 23.3930
7334.06 19.8359
7334.11 14.5166
7334.16 11.4499
7334.21 9.57090
7334.30 7.67210
7334.40 6.82731
7334.50 6.39013
7334.69 5.97844
7334.88 5.79890
7335.65 5.58881
7337.18 5.52408
7340.25 5.50474
7346.38 5.49823
7358.65 5.49506
7370.91 5.49622
7377.04 5.51249
7378.58 5.53165
7380.11 5.58821
7380.88 5.66739
7381.64 5.88563
7382.03 6.17372
7382.41 6.90948
7382.60 7.80010
7382.70 8.58390
7382.79 9.81028
7382.89 11.9245
7382.99 15.9265
7383.03 19.3588
7383.08 24.5745
7383.13 32.7639
7383.18 45.6356
7383.24 70.0002
7383.30 86.3756
7383.36 70.5032
7383.42 46.2322
7383.48 31.5127
7383.54 22.8619
7383.59 17.7095
7383.65 14.4839
7383.76 10.8984
7383.88 9.08401
7383.99 8.04901
7384.11 7.40549
7384.33 6.68388
7384.79 6.08613
7385.24 5.85122
7386.16 5.66805
7387.07 5.59859
7388.89 5.54535
7390.71 5.52514
7398.00 5.50304
7412.57 5.49530
7441.71 5.49140
7500.00 5.48821
7500.00 6.81228
8000.00 6.80973
9000.00 6.83408
10000.0 6.86642
15000.0 7.02777
20000.0 7.21138
30000.0 7.62624
40000.0 7.88933
50000.0 8.05391
60000.0 8.15573
70000.0 8.23550
80000.0 8.28751
90000.0 8.31795
100000 8.32581
150000 8.27432
200000 8.19879
250000 8.12985
300000 8.05774
350000 7.97424
400000 7.88553
450000 7.79771
500000 7.70755
550000 7.61749
561206 7.59655
561206 7.59655
600000 7.52234
650000 7.42449
700000 7.32573
750000 7.22831
800000 7.12950
850000 7.02670
900000 6.91887
950000 6.80675
1.00000E+06 6.70095
1.10000E+06 6.53892
1.20000E+06 6.37632
1.30000E+06 6.19810
1.33644E+06 6.13750
1.33644E+06 6.13750
1.34654E+06 6.12111
1.34654E+06 6.12111
1.35471E+06 6.10797
1.35471E+06 6.10797
1.40000E+06 6.03708
1.50000E+06 5.89153
1.60000E+06 5.75856
1.67475E+06 5.66625
1.67475E+06 5.66625
1.70000E+06 5.63627
1.72667E+06 5.60427
1.72667E+06 5.60427
1.77281E+06 5.54644
1.77281E+06 5.54644
1.80000E+06 5.51124
1.80496E+06 5.50476
1.80496E+06 5.50476
1.81026E+06 5.49780
1.81027E+06 5.49780
1.81172E+06 5.49590
1.81172E+06 5.49589
1.83832E+06 5.46073
1.83833E+06 5.46072
1.85735E+06 5.43536
1.85736E+06 5.43536
1.86260E+06 5.42835
1.86260E+06 5.42834
1.87458E+06 5.41229
1.87458E+06 5.41229
1.88988E+06 5.39175
1.88988E+06 5.39175
1.89770E+06 5.38124
1.89771E+06 5.38123
1.90000E+06 5.37815
1.90137E+06 5.37631
1.90137E+06 5.37631
1.91375E+06 5.35967
1.91375E+06 5.35967
1.94413E+06 5.31887
1.94413E+06 5.31887
1.94667E+06 5.31548
1.94667E+06 5.31548
1.96366E+06 5.29275
1.96366E+06 5.29275
1.97448E+06 5.27832
1.97448E+06 5.27832
2.00000E+06 5.24447
2.01851E+06 5.22027
2.01851E+06 5.22027
2.10000E+06 5.11605
2.10260E+06 5.11279
2.10260E+06 5.11279
2.14613E+06 5.05881
2.14614E+06 5.05881
2.15775E+06 5.04461
2.15775E+06 5.04461
2.20000E+06 4.99366
2.20274E+06 4.99040
2.20274E+06 4.99040
2.21469E+06 4.97621
2.21469E+06 4.97621
2.26669E+06 4.91556
2.26669E+06 4.91556
2.27134E+06 4.91023
2.27134E+06 4.91023
2.28730E+06 4.89201
2.28730E+06 4.89201
2.29860E+06 4.87921
2.29860E+06 4.87921
2.30000E+06 4.87763
2.32122E+06 4.85384
2.32122E+06 4.85384
2.36060E+06 4.81046
2.36060E+06 4.81046
2.40000E+06 4.76805
2.46823E+06 4.69696
2.46823E+06 4.69696
2.48045E+06 4.68454
2.48045E+06 4.68454
2.48893E+06 4.67598
2.48893E+06 4.67598
2.50000E+06 4.66487
2.50307E+06 4.66184
2.50307E+06 4.66183
2.51559E+06 4.64944
2.51559E+06 4.64944
2.60000E+06 4.56585
2.62343E+06 4.54283
2.62343E+06 4.54283
2.70000E+06 4.46892
2.80000E+06 4.37685
2.90000E+06 4.29162
3.00000E+06 4.21459
3.10000E+06 4.15245
3.20000E+06 4.10570
3.50000E+06 4.01306
4.00000E+06 3.92098
4.50000E+06 3.89837
5.00000E+06 3.93205
5.50000E+06 3.98790
6.00000E+06 4.06165
6.49560E+06 4.11231
6.49560E+06 4.11231
6.50000E+06 4.11281
6.53574E+06 4.11691
6.53574E+06 4.11691
6.58954E+06 4.12308
6.58954E+06 4.12308
6.79344E+06 4.14667
6.79344E+06 4.14667
6.85647E+06 4.15408
6.85647E+06 4.15408
7.00000E+06 4.17133
7.03764E+06 4.17596
7.03765E+06 4.17596
7.10894E+06 4.18477
7.10894E+06 4.18477
7.15199E+06 4.19010
7.15199E+06 4.19010
7.15372E+06 4.19031
7.15372E+06 4.19031
7.15970E+06 4.19105
7.15970E+06 4.19105
7.28367E+06 4.20640
7.28367E+06 4.20640
7.30646E+06 4.20922
7.30646E+06 4.20922
7.32503E+06 4.21151
7.32503E+06 4.21151
7.35140E+06 4.21476
7.35140E+06 4.21476
7.38461E+06 4.21884
7.38461E+06 4.21884
7.42463E+06 4.22375
7.42463E+06 4.22375
7.50000E+06 4.23293
7.58381E+06 4.24370
7.58381E+06 4.24370
8.00000E+06 4.29567
8.50000E+06 4.33056
8.72315E+06 4.34510
8.74178E+06 4.34629
8.74178E+06 4.34629
9.00000E+06 4.36172
9.50000E+06 4.37920
1.00000E+07 4.38988
1.00904E+07 4.39280
1.00904E+07 4.39280
1.05000E+07 4.40878
1.10000E+07 4.41738
1.15000E+07 4.41482
1.20000E+07 4.40022
1.23907E+07 4.38472
1.23907E+07 4.38472
1.25000E+07 4.37982
1.30000E+07 4.35346
1.35000E+07 4.31434
1.40000E+07 4.26544
1.45000E+07 4.22756
1.50000E+07 4.18342
1.50160E+07 4.18193
1.55000E+07 4.13496
1.58603E+07 4.09743
1.60000E+07 4.08114
1.65000E+07 4.01880
1.70000E+07 3.95464
1.75000E+07 3.89148
1.77888E+07 3.85609
1.77888E+07 3.85609
1.80000E+07 3.83065
1.81065E+07 3.81794
1.85000E+07 3.77163
1.90000E+07 3.71521
1.95000E+07 3.66304
2.00000E+07 3.61441
2.10000E+07 3.52612
2.20000E+07 3.45268
2.30000E+07 3.39114
2.40000E+07 3.33548
2.50000E+07 3.27038
2.60000E+07 3.20761
2.70000E+07 3.16323
2.80000E+07 3.12806
2.84507E+07 3.11575
2.90000E+07 3.10403
3.00000E+07 3.09103