Cd-116(n,tot) ENDF/B-VII.1
Energy(eV) XS(b)
1.00000E-05 8.77437
1.25000E-05 8.36987
1.50000E-05 8.07128
2.00000E-05 7.65215
2.75000E-05 7.25335
3.50000E-05 6.99089
4.25000E-05 6.80142
5.00000E-05 6.65637
6.25000E-05 6.47547
7.50000E-05 6.34193
0.000100000 6.15449
0.000125000 6.02658
0.000150000 5.93215
0.000200000 5.79961
0.000275000 5.67350
0.000350000 5.59050
0.000425000 5.53059
0.000500000 5.48472
0.000625000 5.42751
0.000750000 5.38528
0.00100000 5.32601
0.00125000 5.28556
0.00150000 5.25570
0.00200000 5.21378
0.00275000 5.17390
0.00350000 5.14766
0.00425000 5.12871
0.00500000 5.11420
0.00625000 5.09611
0.00750000 5.08275
0.0100000 5.06400
0.0125000 5.05121
0.0150000 5.04176
0.0200000 5.02850
0.0253000 5.01899
0.0314750 5.01110
0.0376500 5.00524
0.0500000 4.99696
0.0625000 4.99122
0.0750000 4.98698
0.100000 4.98102
0.125000 4.97694
0.150000 4.97392
0.200000 4.96965
0.275000 4.96556
0.350000 4.96283
0.500000 4.95928
0.750000 4.95580
1.00000 4.95359
1.50000 4.95071
2.00000 4.94873
2.75000 4.94650
3.50000 4.94471
5.00000 4.94175
7.50000 4.93767
10.0000 4.93409
15.0000 4.92769
20.0000 4.92224
22.2361 4.92044
23.3541 4.91996
24.4721 4.92017
25.5901 4.92209
26.1491 4.92465
26.7082 4.92986
26.9877 4.93448
27.2672 4.94172
27.5467 4.95382
27.8262 4.97605
27.9659 4.99479
28.1057 5.02332
28.2454 5.06976
28.3852 5.15277
28.4551 5.22125
28.5250 5.32354
28.5948 5.48610
28.6647 5.76708
28.7346 6.31589
28.7695 6.81014
28.8045 7.61417
28.8394 9.04615
28.8569 10.2168
28.8743 11.9411
28.8918 14.6066
28.9093 18.9659
28.9267 26.5236
28.9442 39.9965
28.9617 61.0643
28.9792 75.1771
28.9968 61.1368
29.0143 40.0188
29.0348 24.9037
29.0553 17.2167
29.0758 13.0917
29.0963 10.6948
29.1168 9.19787
29.1373 8.20812
29.1783 7.02794
29.2193 6.38143
29.2602 5.99056
29.3422 5.56288
29.4242 5.34666
29.5062 5.22253
29.5881 5.14475
29.6701 5.09282
29.8341 5.02991
29.9980 4.99467
30.1620 4.97293
30.3259 4.95854
30.6538 4.94122
30.9817 4.93151
31.3096 4.92544
31.6375 4.92136
32.2933 4.91623
32.9491 4.91310
34.2607 4.90930
35.5723 4.90683
36.8839 4.90489
39.5072 4.90169
44.7536 4.89626
50.0000 4.89134
62.5000 4.88059
75.0000 4.87081
100.000 4.85338
150.000 4.82459
200.000 4.80097
275.000 4.77095
350.000 4.74400
425.000 4.71759
500.000 4.68961
544.163 4.67146
588.325 4.65135
610.406 4.64036
632.488 4.62878
643.528 4.62302
654.569 4.61817
660.089 4.61731
662.850 4.61816
665.610 4.62120
668.370 4.62981
669.750 4.63934
671.130 4.65760
671.820 4.67340
672.510 4.69789
673.200 4.73863
673.890 4.81348
674.235 4.87684
674.580 4.97386
674.925 5.13331
675.270 5.42274
675.443 5.66532
675.615 6.03365
675.788 6.63234
675.960 7.70233
676.047 8.58600
676.133 9.90628
676.219 12.0113
676.305 15.6588
676.392 22.8344
676.435 29.3336
676.478 39.9866
676.521 59.2267
676.543 75.1573
676.564 98.7869
676.586 136.077
676.607 198.139
676.629 309.715
676.650 516.102
676.670 824.253
676.691 1028.51
676.711 822.637
676.731 516.122
676.744 376.637
676.757 280.505
676.783 168.611
676.809 111.073
676.835 78.7626
676.861 58.9357
676.887 46.0683
676.938 30.9437
676.990 22.7582
677.042 17.8579
677.146 12.5485
677.250 9.88523
677.353 8.36658
677.457 7.41909
677.561 6.78863
677.768 6.02801
677.976 5.60458
678.183 5.34470
678.391 5.17396
678.806 4.97042
679.220 4.85836
679.635 4.79010
680.050 4.74541
680.880 4.69228
681.710 4.66297
682.540 4.64498
683.370 4.63306
685.029 4.61849
686.689 4.61000
690.008 4.60030
693.328 4.59444
696.647 4.59008
703.285 4.58307
716.563 4.57078
729.840 4.55839
743.117 4.54511
756.394 4.53056
782.949 4.49603
809.503 4.44988
822.781 4.41920
836.058 4.37946
849.335 4.32312
855.974 4.28326
862.612 4.22858
865.932 4.19202
869.251 4.14552
872.570 4.08355
875.890 3.99552
877.549 3.93541
879.209 3.85822
880.869 3.75504
882.528 3.60979
883.358 3.51247
884.188 3.39064
885.018 3.23471
885.848 3.03174
886.263 2.90879
886.678 2.77275
887.092 2.63441
887.507 2.53703
887.715 2.54541
887.922 2.65347
888.130 2.98252
888.337 3.83907
888.389 4.21582
888.441 4.69914
888.493 5.32419
888.545 6.13892
888.597 7.21845
888.648 8.66522
888.700 10.6484
888.726 11.9134
888.752 13.4191
888.804 17.4165
888.856 23.3822
888.908 32.6961
888.960 48.0763
888.986 59.7487
889.011 75.6397
889.037 97.9578
889.063 130.336
889.089 179.329
889.115 255.966
889.141 380.880
889.167 587.001
889.199 976.149
889.230 1267.60
889.262 1054.09
889.293 685.384
889.320 465.667
889.347 329.227
889.374 243.121
889.401 187.047
889.455 121.554
889.509 86.6671
889.564 65.8697
889.618 52.4922
889.726 36.7559
889.834 28.1199
889.942 22.8129
890.050 19.2849
890.158 16.8003
890.374 13.5778
890.591 11.6124
890.807 10.3046
891.023 9.37893
891.455 8.16605
891.888 7.41372
892.320 6.90456
892.753 6.53857
893.618 6.04913
894.483 5.73775
895.347 5.52249
896.212 5.36481
897.942 5.14898
899.672 5.00765
901.402 4.90737
903.132 4.83203
906.591 4.72509
910.051 4.65121
913.510 4.59562
916.970 4.55109
923.889 4.48086
930.808 4.42384
944.647 4.32354
958.485 4.22107
972.323 4.09960
986.162 3.93922
1000.00 3.70435
1006.07 3.56018
1012.13 3.37478
1018.20 3.12676
1024.26 2.77784
1027.29 2.54468
1030.33 2.25411
1033.36 1.88500
1036.39 1.41202
1037.91 1.13165
1039.42 0.830889
1040.94 0.545773
1041.70 0.441249
1042.08 0.410933
1042.46 0.403917
1042.84 0.430200
1043.22 0.503795
1043.59 0.645251
1043.97 0.884959
1044.16 1.05570
1044.35 1.26894
1044.73 1.86873
1045.11 2.79921
1045.49 4.25192
1045.87 6.56175
1046.25 10.3492
1046.63 16.8529
1047.01 28.7978
1047.20 38.6577
1047.38 53.0291
1047.57 75.0811
1047.76 110.329
1047.95 171.200
1048.14 284.531
1048.24 380.128
1048.33 521.758
1048.43 736.389
1048.52 1057.72
1048.66 1771.06
1048.80 2308.71
1048.94 1927.29
1049.08 1259.13
1049.22 797.072
1049.37 534.524
1049.51 381.258
1049.66 286.273
1049.80 223.911
1049.94 180.903
1050.23 127.193
1050.52 95.8695
1050.81 75.9738
1051.38 52.8738
1051.96 40.2471
1052.53 32.5040
1053.11 27.3434
1053.68 23.6956
1054.83 18.9340
1055.98 16.0055
1057.13 14.0388
1058.28 12.6374
1060.59 10.7820
1062.89 9.61810
1065.19 8.82314
1067.49 8.24715
1072.09 7.47007
1076.69 6.97128
1081.30 6.62423
1085.90 6.36898
1095.10 6.01857
1104.31 5.78985
1108.91 5.70396
1111.21 5.66701
1113.51 5.63459
1115.82 5.60901
1116.97 5.60113
1118.12 5.60053
1119.27 5.61746
1119.84 5.64198
1120.42 5.69283
1120.71 5.73829
1120.99 5.80968
1121.28 5.92905
1121.57 6.14706
1121.71 6.33098
1121.86 6.61055
1122.00 7.06473
1122.14 7.86679
1122.22 8.52936
1122.29 9.51610
1122.36 11.0775
1122.43 13.7611
1122.50 18.9551
1122.54 23.5880
1122.58 31.0509
1122.61 44.1390
1122.65 69.9521
1122.67 93.0851
1122.68 129.837
1122.70 190.991
1122.72 287.122
1122.74 457.641
1122.76 571.975
1122.78 457.658
1122.80 287.145
1122.81 195.455
1122.83 137.960
1122.85 101.601
1122.86 77.7905
1122.89 50.1403
1122.93 35.5715
1122.96 27.0556
1122.99 21.6775
1123.05 15.5485
1123.12 12.3318
1123.18 10.4406
1123.25 9.23646
1123.31 8.43372
1123.44 7.43259
1123.57 6.86651
1123.69 6.51541
1123.82 6.28408
1124.08 6.00297
1124.33 5.84654
1124.59 5.74943
1124.84 5.68506
1125.35 5.60618
1125.86 5.56046
1126.89 5.50932
1127.91 5.47998
1128.93 5.45945
1130.97 5.42947
1135.06 5.38541
1139.15 5.34938
1143.24 5.31752
1147.32 5.28866
1155.50 5.23773
1171.85 5.15524
1188.19 5.09012
1220.89 4.98990
1253.59 4.90958
1286.28 4.83254
1302.63 4.78922
1318.98 4.73667
1327.16 4.70399
1335.33 4.66404
1343.50 4.61248
1351.68 4.54094
1355.77 4.49263
1359.85 4.43087
1363.94 4.34837
1368.03 4.23167
1370.07 4.15279
1372.11 4.05300
1374.16 3.92286
1376.20 3.74771
1377.22 3.63667
1378.25 3.50631
1379.27 3.35680
1380.29 3.20214
1380.80 3.14055
1381.31 3.11919
1381.82 3.20034
1382.33 3.54842
1382.59 3.95160
1382.84 4.66835
1383.10 5.99071
1383.23 7.05528
1383.29 7.74334
1383.35 8.55411
1383.42 9.54678
1383.48 10.7540
1383.55 12.2350
1383.61 14.0696
1383.67 16.3676
1383.74 19.2829
1383.80 23.0352
1383.87 27.8583
1383.93 34.3801
1383.99 43.2749
1384.06 55.7240
1384.12 73.3384
1384.18 99.9397
1384.25 141.049
1384.31 206.640
1384.38 310.019
1384.46 521.837
1384.54 683.535
1384.58 659.403
1384.63 574.084
1384.71 378.563
1384.80 238.890
1384.89 160.615
1384.98 115.383
1385.07 87.5256
1385.15 69.3011
1385.24 56.7561
1385.42 41.0606
1385.60 31.9385
1385.78 26.1308
1386.13 19.3514
1386.49 15.6304
1386.85 13.3311
1387.20 11.7906
1387.56 10.6963
1388.27 9.25965
1388.98 8.36806
1389.69 7.76561
1390.40 7.33387
1391.83 6.75759
1393.25 6.39294
1394.68 6.14185
1396.10 5.95887
1398.95 5.70982
1401.79 5.54828
1404.64 5.43472
1407.49 5.35030
1413.18 5.23246
1418.88 5.15329
1424.57 5.09564
1430.26 5.05114
1441.65 4.98520
1453.04 4.93640
1464.43 4.89647
1475.82 4.86096
1498.60 4.79135
1509.99 4.75113
1521.37 4.70050
1532.76 4.62726
1538.46 4.57337
1544.15 4.49657
1547.00 4.44358
1549.85 4.37470
1552.69 4.28087
1555.54 4.14467
1556.97 4.05024
1558.39 3.92783
1559.81 3.76252
1561.24 3.52760
1561.95 3.36886
1562.66 3.16877
1563.37 2.91043
1564.08 2.56995
1564.44 2.35976
1564.79 2.12155
1565.15 1.86647
1565.51 1.64846
1565.68 1.60821
1565.86 1.69662
1566.04 2.07749
1566.13 2.48771
1566.22 3.16471
1566.31 4.28480
1566.40 6.17584
1566.44 7.61180
1566.49 9.49306
1566.53 12.1144
1566.57 15.6756
1566.62 20.8651
1566.66 28.3151
1566.71 39.9462
1566.75 58.1493
1566.80 89.8788
1566.84 146.970
1566.86 193.741
1566.89 261.354
1566.91 360.780
1566.93 506.681
1566.97 860.855
1567.00 1127.87
1567.04 947.444
1567.07 627.547
1567.11 404.476
1567.14 275.555
1567.18 199.283
1567.21 152.590
1567.25 120.628
1567.29 98.9784
1567.36 71.0913
1567.43 54.6862
1567.50 44.1568
1567.64 31.7722
1567.78 24.8907
1567.93 20.6556
1568.07 17.8085
1568.21 15.7812
1568.49 13.1059
1568.78 11.4489
1569.06 10.3274
1569.35 9.52200
1569.92 8.44640
1570.48 7.76573
1571.05 7.29786
1571.62 6.95768
1572.76 6.49536
1573.90 6.19705
1575.03 5.98861
1576.17 5.83477
1578.45 5.62269
1580.72 5.48328
1583.00 5.38445
1585.27 5.31060
1589.82 5.20709
1594.37 5.13755
1598.92 5.08718
1603.47 5.04871
1612.57 4.99302
1621.67 4.95379
1639.86 4.89988
1658.06 4.86222
1676.26 4.83255
1712.66 4.78436
1749.05 4.74174
1767.25 4.72054
1785.45 4.69863
1803.65 4.67543
1821.84 4.65065
1830.94 4.63812
1840.04 4.62773
1844.59 4.62651
1849.14 4.63780
1851.42 4.66101
1852.55 4.68641
1853.69 4.73473
1854.83 4.84081
1855.40 4.94757
1855.96 5.14232
1856.25 5.30693
1856.53 5.55700
1856.82 5.96508
1857.10 6.69824
1857.24 7.31153
1857.39 8.22839
1857.53 9.69878
1857.67 12.2759
1857.81 17.4216
1857.88 22.1691
1857.95 30.1023
1858.03 44.8086
1858.06 57.5599
1858.10 76.6045
1858.13 108.745
1858.17 164.297
1858.20 276.601
1858.22 374.013
1858.24 512.883
1858.27 820.304
1858.29 1021.30
1858.32 820.327
1858.35 512.904
1858.38 315.272
1858.40 207.305
1858.43 144.802
1858.46 106.466
1858.48 81.6049
1858.51 64.6934
1858.56 43.9601
1858.62 32.2889
1858.67 25.1042
1858.78 17.1112
1858.89 13.0098
1859.00 10.6334
1859.10 9.13552
1859.21 8.13141
1859.43 6.91119
1859.64 6.22631
1859.86 5.80391
1860.08 5.52514
1860.51 5.19097
1860.94 5.00659
1861.37 4.89377
1861.81 4.81961
1862.67 4.73079
1863.53 4.68131
1865.26 4.62968
1866.99 4.60339
1868.72 4.58708
1872.18 4.56626
1879.09 4.53865
1886.01 4.51431
1892.92 4.48862
1899.84 4.45974
1913.67 4.38565
1920.58 4.33551
1927.50 4.27094
1934.41 4.18360
1941.33 4.05730
1944.79 3.96972
1948.24 3.85582
1951.70 3.70109
1955.16 3.47844
1956.89 3.32578
1958.62 3.13017
1960.35 2.87105
1962.07 2.51383
1962.94 2.28074
1963.80 1.99853
1964.67 1.65585
1965.53 1.25405
1965.97 1.04557
1966.40 0.866480
1966.83 0.795653
1967.05 0.859263
1967.15 0.936298
1967.26 1.05691
1967.48 1.49340
1967.59 1.85836
1967.69 2.37185
1967.80 3.09419
1967.91 4.11594
1968.02 5.57706
1968.13 7.70129
1968.23 10.8610
1968.34 15.7069
1968.45 23.4458
1968.56 36.4880
1968.67 60.1180
1968.72 79.3840
1968.77 107.361
1968.83 149.403
1968.88 214.965
1968.94 320.683
1968.99 492.800
1969.06 841.287
1969.13 1113.73
1969.20 942.832
1969.27 625.339
1969.33 427.678
1969.39 305.908
1969.45 228.748
1969.51 177.933
1969.63 118.108
1969.75 85.7576
1969.87 66.2708
1969.99 53.5670
1970.23 38.4133
1970.47 29.9345
1970.71 24.6341
1970.95 21.0561
1971.19 18.5014
1971.67 15.1260
1972.15 13.0279
1972.63 11.6069
1973.11 10.5859
1974.07 9.22304
1975.03 8.36122
1975.99 7.76819
1976.95 7.33682
1978.87 6.75140
1980.79 6.37337
1982.71 6.10924
1984.63 5.91433
1988.48 5.64537
1992.32 5.46826
1996.16 5.34232
2000.00 5.24785
2005.66 5.14435
2011.32 5.06771
2022.64 4.96002
2033.96 4.88583
2045.28 4.82966
2067.93 4.74504
2090.57 4.67784
2135.85 4.55622
2181.14 4.41764
2203.78 4.32968
2226.42 4.21906
2249.06 4.07174
2271.70 3.86119
2283.03 3.71649
2294.35 3.52971
2305.67 3.27885
2316.99 2.92393
2322.65 2.68532
2328.31 2.38588
2333.97 2.00136
2339.63 1.49827
2342.46 1.19113
2345.29 0.847254
2348.12 0.486955
2349.54 0.322191
2350.95 0.197615
2351.66 0.164816
2352.37 0.164698
2353.08 0.212659
2353.78 0.331334
2354.49 0.555645
2354.84 0.723115
2355.20 0.938510
2355.91 1.56668
2356.61 2.57972
2357.32 4.22478
2358.03 6.94027
2358.74 11.5954
2359.44 19.9918
2359.80 26.7574
2360.15 36.4380
2360.50 50.7291
2360.86 72.5685
2361.21 107.717
2361.57 167.303
2361.92 274.207
2362.27 471.184
2362.64 808.166
2363.00 1080.30
2363.36 922.349
2363.73 614.131
2364.08 408.600
2364.43 285.523
2364.77 210.401
2365.12 162.250
2365.47 129.724
2365.82 106.897
2366.51 77.6355
2367.21 60.1759
2367.91 48.8744
2369.30 35.4294
2370.69 27.8993
2372.08 23.1829
2373.48 19.9853
2374.87 17.6952
2377.65 14.6561
2380.44 12.7487
2383.22 11.4487
2386.01 10.5096
2391.58 9.24854
2397.15 8.44393
2402.72 7.88737
2408.29 7.48000
2419.43 6.92423
2430.57 6.56303
2441.71 6.30941
2452.85 6.12145
2475.13 5.86114
2497.41 5.68911
2508.55 5.62327
2519.69 5.56734
2530.83 5.52180
2533.62 5.51405
2536.40 5.51289
2537.79 5.52088
2539.19 5.55268
2539.88 5.60076
2540.58 5.73851
2540.93 5.92701
2541.10 6.11176
2541.27 6.44168
2541.45 7.12023
2541.54 7.76690
2541.62 8.88727
2541.71 11.0847
2541.75 13.1027
2541.80 16.3306
2541.84 22.2762
2541.86 27.2177
2541.88 34.2041
2541.91 45.6310
2541.93 64.8049
2541.95 99.2254
2541.97 159.397
2541.99 253.850
2542.01 312.692
2542.03 248.871
2542.05 158.769
2542.07 115.260
2542.08 87.4111
2542.11 53.7117
2542.13 36.6350
2542.16 27.0761
2542.19 21.2624
2542.21 17.4882
2542.27 13.0724
2542.32 10.6972
2542.38 9.27864
2542.48 7.75407
2542.59 6.98303
2542.70 6.54425
2542.91 6.09115
2543.13 5.87210
2543.35 5.75072
2543.78 5.62672
2544.64 5.53470
2545.50 5.50030
2547.22 5.47194
2548.95 5.45834
2555.84 5.42876
2569.63 5.38696
2583.41 5.35169
2597.20 5.32119
2610.99 5.29555
2617.88 5.28521
2624.78 5.27786
2631.67 5.27710
2635.12 5.28256
2638.56 5.29755
2642.01 5.33647
2643.73 5.37827
2645.46 5.45703
2646.32 5.52457
2647.18 5.62871
2648.04 5.80080
2648.90 6.11407
2649.33 6.37753
2649.77 6.77833
2650.20 7.43106
2650.63 8.59664
2650.84 9.56460
2651.06 11.0081
2651.27 13.3226
2651.49 17.3303
2651.70 25.2784
2651.81 32.5290
2651.92 44.3497
2652.03 65.9695
2652.08 84.0028
2652.13 110.481
2652.19 153.115
2652.24 225.381
2652.30 357.111
2652.35 601.339
2652.40 961.534
2652.45 1194.61
2652.50 953.880
2652.54 601.553
2652.59 370.852
2652.64 242.209
2652.69 168.335
2652.74 124.041
2652.79 94.7382
2652.84 74.8973
2652.93 50.8714
2653.03 37.2397
2653.13 28.9516
2653.32 19.7225
2653.52 14.9642
2653.71 12.2116
2653.91 10.4786
2654.10 9.32261
2654.49 7.91060
2654.88 7.12036
2655.27 6.63172
2655.66 6.31005
2656.44 5.92443
2657.22 5.71097
2658.00 5.58033
2658.78 5.49443
2660.33 5.39162
2661.89 5.33428
2665.01 5.27465
2668.12 5.24457
2671.24 5.22629
2677.47 5.20407
2689.93 5.17852
2702.39 5.16055
2714.86 5.14537
2727.32 5.13173
2752.24 5.10735
2777.17 5.08570
2802.09 5.06604
2851.94 5.03107
2901.79 5.00013
2951.64 4.97167
3001.49 4.94490
3026.42 4.93419
3032.65 4.93394
3038.88 4.93977
3042.00 4.95114
3045.11 4.98693
3046.67 5.03843
3047.45 5.09038
3048.23 5.18566
3049.01 5.38926
3049.40 5.59140
3049.79 5.95593
3049.98 6.26091
3050.18 6.72230
3050.37 7.46830
3050.57 8.78183
3050.66 9.86712
3050.76 11.4600
3050.86 13.9603
3050.95 18.2088
3051.05 26.4069
3051.10 33.6354
3051.15 44.8363
3051.20 64.3916
3051.25 100.650
3051.27 133.206
3051.30 181.003
3051.32 255.971
3051.34 374.307
3051.37 600.151
3051.40 744.423
3051.44 592.572
3051.47 374.548
3051.49 237.603
3051.52 160.805
3051.55 113.519
3051.58 85.0188
3051.64 52.7388
3051.69 36.6794
3051.75 27.3496
3051.81 21.6584
3051.92 15.2037
3052.03 11.8658
3052.14 9.92173
3052.26 8.69199
3052.37 7.86538
3052.60 6.85476
3052.82 6.28899
3053.05 5.93923
3053.28 5.70799
3053.73 5.43038
3054.18 5.27699
3055.09 5.12141
3055.99 5.04794
3056.90 5.00735
3058.70 4.96605
3062.32 4.93475
3065.94 4.92227
3073.18 4.91052
3080.42 4.90360
3094.90 4.89335
3102.14 4.89055
3105.76 4.89721
3107.57 4.93301
3108.02 4.97080
3108.47 5.07652
3108.70 5.21946
3108.92 5.60385
3109.04 6.10009
3109.09 6.56890
3109.15 7.34863
3109.21 8.85121
3109.23 10.1377
3109.26 12.1486
3109.29 15.6861
3109.32 22.0698
3109.33 27.4309
3109.35 35.4176
3109.36 47.6546
3109.37 66.9596
3109.39 103.873
3109.41 129.025
3109.43 103.994
3109.45 66.9490
3109.47 42.8042
3109.49 29.5128
3109.51 21.8662
3109.53 17.1976
3109.55 14.1800
3109.56 12.1323
3109.60 9.62773
3109.64 8.22089
3109.68 7.35595
3109.75 6.39453
3109.91 5.61270
3110.06 5.31314
3110.36 5.08371
3110.67 4.99915
3111.28 4.93599
3111.89 4.91285
3114.32 4.88846
3119.20 4.87910
3128.94 4.87077
3148.44 4.85642
3167.93 4.84129
3187.42 4.82460
3206.91 4.80562
3226.41 4.78338
3245.90 4.75650
3255.65 4.74206
3260.52 4.74102
3261.74 4.74708
3262.96 4.76869
3263.57 4.80079
3264.17 4.89282
3264.48 5.01930
3264.78 5.36345
3264.94 5.81964
3265.01 6.25081
3265.09 6.99400
3265.16 8.43889
3265.20 9.73393
3265.24 11.8309
3265.28 15.5378
3265.30 18.5462
3265.32 22.9469
3265.34 29.6883
3265.35 40.5816
3265.37 59.1732
3265.39 93.3407
3265.41 145.552
3265.43 182.085
3265.45 145.633
3265.47 93.4427
3265.49 55.5957
3265.52 35.9912
3265.54 25.4888
3265.56 19.3905
3265.59 15.5873
3265.61 13.0735
3265.65 10.1263
3265.70 8.46791
3265.75 7.46774
3265.84 6.38396
3265.93 5.82967
3266.02 5.51495
3266.20 5.18504
3266.57 4.93417
3266.93 4.84180
3267.66 4.77274
3268.39 4.74687
3271.31 4.71622
3277.15 4.69555
3288.83 4.65926
3300.51 4.61278
3312.20 4.54667
3318.04 4.50108
3323.88 4.44177
3329.72 4.36084
3335.56 4.24298
3338.48 4.16088
3341.40 4.05381
3344.32 3.90805
3347.24 3.69781
3348.70 3.55337
3350.16 3.36819
3351.62 3.12257
3353.08 2.78302
3353.81 2.56112
3354.54 2.29123
3355.27 1.96179
3356.00 1.56908
3356.36 1.35967
3356.73 1.16787
3357.09 1.05737
3357.46 1.20846
3357.64 1.52841
3357.82 2.19588
3358.01 3.54775
3358.10 4.67447
3358.19 6.30247
3358.28 8.73036
3358.37 12.3625
3358.46 18.0296
3358.55 27.2621
3358.65 43.4017
3358.74 73.0550
3358.78 97.7950
3358.83 132.829
3358.87 185.512
3358.92 261.124
3359.00 453.285
3359.07 613.529
3359.15 530.428
3359.22 357.443
3359.30 241.553
3359.37 171.010
3359.44 127.531
3359.51 99.4443
3359.66 66.9086
3359.80 49.5968
3359.94 39.1091
3360.09 32.2668
3360.37 24.0869
3360.66 19.4474
3360.95 16.5266
3361.24 14.5334
3361.52 13.0959
3362.10 11.1727
3362.67 9.95819
3363.25 9.12371
3363.82 8.51883
3364.97 7.70051
3366.12 7.17561
3367.27 6.81078
3368.42 6.54275
3370.72 6.17542
3373.01 5.93576
3375.31 5.76690
3377.61 5.64141
3382.21 5.46692
3386.80 5.35095
3391.40 5.26780
3396.00 5.20491
3405.19 5.11505
3414.38 5.05270
3423.58 5.00569
3432.77 4.96797
3451.16 4.90824
3469.54 4.85897
3506.31 4.76665
3524.70 4.71506
3543.09 4.65354
3561.47 4.57435
3579.86 4.46310
3589.05 4.38680
3598.25 4.28779
3607.44 4.15312
3616.63 3.95790
3621.23 3.82272
3625.83 3.64760
3630.42 3.41157
3635.02 3.07676
3637.32 2.85110
3639.62 2.56745
3641.91 2.20233
3644.21 1.72225
3645.36 1.42696
3646.51 1.09324
3647.66 0.735637
3648.81 0.424173
3649.38 0.355484
3649.67 0.372875
3649.96 0.447576
3650.25 0.608521
3650.53 0.898222
3650.82 1.38606
3651.11 2.18493
3651.39 3.49278
3651.68 5.64504
3651.97 9.29680
3652.26 15.7782
3652.40 20.9149
3652.54 28.1338
3652.69 38.5411
3652.83 53.8739
3652.97 77.5959
3653.12 115.187
3653.26 177.794
3653.40 281.812
3653.59 492.895
3653.77 669.168
3653.95 579.952
3654.13 392.391
3654.25 298.141
3654.36 231.417
3654.60 149.977
3654.84 106.186
3655.07 80.3627
3655.31 63.8922
3655.55 52.7151
3656.02 38.8713
3656.50 30.8094
3656.97 25.6441
3657.92 19.5331
3658.86 16.0973
3659.81 13.9281
3660.76 12.4440
3661.71 11.3696
3663.60 9.92478
3665.50 9.00303
3667.39 8.36613
3669.28 7.90097
3673.07 7.26857
3674.97 7.04530
3676.86 6.86378
3678.76 6.71715
3680.65 6.61067
3681.60 6.58758
3682.55 6.63370
3683.02 6.74606
3683.26 6.86981
3683.50 7.10139
3683.73 7.59797
3683.85 8.08510
3683.97 8.93701
3684.09 10.6622
3684.15 12.2467
3684.21 14.8950
3684.27 19.8023
3684.30 24.0686
3684.32 30.3977
3684.35 41.1269
3684.38 59.5200
3684.41 96.7837
3684.43 129.022
3684.44 173.862
3684.47 273.367
3684.49 341.261
3684.51 273.427
3684.53 173.932
3684.55 126.528
3684.57 93.4069
3684.58 71.3424
3684.60 56.2998
3684.63 38.1060
3684.66 28.1370
3684.69 22.1602
3684.73 18.3188
3684.79 13.8668
3684.85 11.4924
3684.92 10.0814
3685.05 8.56010
3685.17 7.80016
3685.30 7.36574
3685.56 6.91181
3685.81 6.68687
3686.07 6.55737
3686.58 6.41499
3687.60 6.28489
3688.62 6.21410
3690.67 6.11936
3692.71 6.04722
3696.80 5.93211
3700.89 5.84035
3704.98 5.76437
3709.07 5.70017
3717.25 5.59727
3725.43 5.51821
3733.61 5.45541
3749.96 5.36162
3766.32 5.29456
3782.68 5.24391
3815.39 5.17172
3848.11 5.12193
3880.83 5.08480
3946.26 5.03151
4011.69 4.99325
4044.40 4.97733
4077.12 4.96286
4109.83 4.94955
4142.55 4.93736
4175.26 4.92794
4183.44 4.92765
4191.62 4.93199
4195.71 4.94029
4199.80 4.96560
4201.84 5.00111
4203.89 5.10054
4204.91 5.23637
4205.42 5.37011
4205.93 5.61114
4206.44 6.11563
4206.70 6.60782
4206.95 7.47844
4207.08 8.19566
4207.21 9.26414
4207.34 10.9570
4207.46 13.8435
4207.59 19.4844
4207.66 24.5402
4207.72 32.7295
4207.78 47.2169
4207.82 58.9845
4207.85 76.2114
4207.88 102.623
4207.91 145.328
4207.94 218.177
4207.98 342.282
4208.01 546.547
4208.04 679.506
4208.08 546.224
4208.11 341.679
4208.15 195.323
4208.19 120.668
4208.23 81.2092
4208.27 58.5088
4208.31 44.4453
4208.35 35.1954
4208.43 24.3331
4208.51 18.3249
4208.59 14.7130
4208.75 10.8004
4208.91 8.81951
4209.07 7.69428
4209.38 6.52018
4209.70 5.95508
4210.02 5.64095
4210.66 5.32304
4211.30 5.17339
4211.93 5.09165
4213.21 5.01005
4215.76 4.95215
4218.31 4.93316
4220.86 4.92761
4223.41 4.93585
4224.69 4.95459
4225.96 5.01451
4226.60 5.10138
4227.24 5.34929
4227.56 5.68989
4227.72 6.02527
4227.87 6.61924
4228.03 7.84126
4228.11 8.99738
4228.19 10.9471
4228.27 14.7306
4228.31 18.0774
4228.35 23.2472
4228.39 32.3355
4228.43 49.7631
4228.45 64.9159
4228.47 88.2524
4228.49 125.510
4228.51 182.091
4228.54 291.066
4228.56 360.559
4228.58 291.837
4228.61 183.158
4228.63 117.601
4228.66 78.5723
4228.68 55.9134
4228.70 42.4649
4228.73 33.2843
4228.75 27.0492
4228.80 19.5348
4228.85 15.1991
4228.89 12.5810
4228.99 9.64406
4229.08 8.11143
4229.18 7.22144
4229.37 6.28449
4229.56 5.82188
4229.75 5.56196
4230.12 5.29260
4230.88 5.09019
4231.64 5.01540
4233.16 4.95872
4234.67 4.93711
4240.74 4.91212
4252.86 4.90031
4277.12 4.88905
4325.63 4.87077
4374.14 4.85252
4422.65 4.83320
4471.16 4.81207
4519.67 4.78825
4543.93 4.77508
4568.18 4.76126
4592.44 4.75013
4598.50 4.75114
4604.56 4.76183
4607.60 4.78054
4610.63 4.83728
4612.14 4.91736
4612.90 4.99734
4613.66 5.14282
4614.42 5.45046
4614.80 5.75246
4615.18 6.29323
4615.55 7.41077
4615.74 8.48506
4615.93 10.3472
4616.12 14.0540
4616.22 17.4483
4616.31 22.9966
4616.41 33.2208
4616.45 41.6990
4616.50 54.4652
4616.55 75.3631
4616.60 110.531
4616.64 175.573
4616.69 303.520
4616.73 481.686
4616.77 602.005
4616.81 481.678
4616.85 303.428
4616.89 202.475
4616.92 139.731
4616.96 101.118
4616.99 76.9398
4617.06 48.8008
4617.13 34.1962
4617.20 25.6475
4617.27 20.3777
4617.41 14.4051
4617.55 11.2703
4617.68 9.45023
4617.82 8.28711
4617.96 7.50953
4618.24 6.55629
4618.52 6.01906
4619.07 5.46800
4619.62 5.20466
4620.18 5.05914
4621.28 4.91167
4623.50 4.80353
4625.71 4.76413
4630.14 4.73340
4634.57 4.72006
4652.28 4.69406
4670.00 4.67316
4687.71 4.65052
4705.43 4.62459
4723.15 4.59425
4740.86 4.55966
4749.72 4.54932
4751.93 4.55544
4754.15 4.58335
4755.25 4.62715
4756.36 4.75522
4756.92 4.93283
4757.19 5.10828
4757.47 5.42235
4757.75 6.07644
4757.88 6.70903
4758.02 7.80890
4758.16 10.0198
4758.23 12.0438
4758.30 15.4156
4758.37 21.6364
4758.40 27.0057
4758.44 34.9770
4758.47 48.3417
4758.51 71.1676
4758.54 116.540
4758.56 153.872
4758.58 207.142
4758.60 330.989
4758.63 409.620
4758.66 326.268
4758.69 207.096
4758.71 143.769
4758.73 103.074
4758.75 76.8113
4758.77 60.0323
4758.81 39.0918
4758.85 28.1243
4758.89 21.4709
4758.93 17.3364
4759.02 12.5174
4759.10 9.97039
4759.18 8.46640
4759.35 6.85597
4759.52 6.05836
4759.68 5.60636
4760.01 5.14059
4760.68 4.79158
4761.34 4.66449
4762.67 4.56920
4763.99 4.53261
4766.65 4.50048
4769.30 4.48303
4779.91 4.43335
4790.52 4.38071
4801.14 4.31584
4811.75 4.23186
4817.06 4.17959
4822.36 4.11802
4827.67 4.04468
4832.98 3.95754
4838.28 3.86961
4839.61 3.86499
4840.94 3.91145
4841.60 4.00620
4842.26 4.30150
4842.59 4.71581
4842.76 5.12273
4842.93 5.84035
4843.09 7.30398
4843.17 8.67622
4843.26 11.0077
4843.34 15.4381
4843.38 19.3706
4843.42 25.4251
4843.47 35.9877
4843.51 55.3650
4843.53 72.2636
4843.55 96.4287
4843.57 135.755
4843.59 194.663
4843.62 308.843
4843.64 385.762
4843.67 308.869
4843.70 194.669
4843.73 114.770
4843.76 72.2432
4843.79 49.3220
4843.82 36.2989
4843.85 27.8274
4843.88 22.3773
4843.94 15.7156
4844.00 12.0482
4844.06 9.82362
4844.18 7.38131
4844.31 6.14238
4844.43 5.42869
4844.67 4.67889
4844.92 4.31020
4845.16 4.10134
4845.65 3.87941
4846.63 3.69194
4847.60 3.59840
4849.56 3.47151
4851.51 3.35683
4853.47 3.23366
4855.42 3.09357
4859.33 2.73386
4861.28 2.49540
4863.24 2.19929
4865.19 1.82474
4867.14 1.34619
4868.12 1.06267
4869.10 0.756410
4870.07 0.457722
4871.05 0.271661
4871.54 0.314157
4872.03 0.574637
4872.27 0.852180
4872.52 1.28720
4872.76 1.95767
4873.01 2.98623
4873.25 4.58313
4873.49 7.08464
4873.74 11.1265
4873.98 17.9220
4874.23 30.0521
4874.35 39.6362
4874.47 53.1295
4874.59 72.5653
4874.72 101.201
4874.84 144.131
4874.96 208.457
4875.16 369.200
4875.36 508.720
4875.55 446.449
4875.75 304.707
4875.96 199.039
4876.17 137.979
4876.38 101.845
4876.59 79.2192
4876.81 64.0618
4877.02 53.4566
4877.44 39.9297
4877.86 31.8329
4878.28 26.5666
4879.12 20.2334
4879.97 16.6273
4880.81 14.3329
4881.65 12.7571
4882.49 11.6148
4884.18 10.0740
4885.86 9.08974
4887.55 8.40877
4889.23 7.91062
4892.61 7.23175
4895.98 6.79166
4899.35 6.48324
4902.72 6.25519
4909.46 5.94005
4916.20 5.73222
4922.94 5.58435
4929.68 5.47336
4943.16 5.31678
4956.65 5.21067
4963.39 5.16965
4970.13 5.13586
4976.87 5.11794
4978.56 5.12461
4980.24 5.15612
4981.08 5.20492
4981.93 5.34479
4982.35 5.53607
4982.77 6.05509
4982.98 6.73914
4983.08 7.38689
4983.19 8.50593
4983.30 10.7230
4983.35 12.7372
4983.40 15.9675
4983.45 21.8825
4983.48 26.6750
4983.51 33.7725
4983.53 45.3737
4983.56 64.0692
4983.58 97.1982
4983.61 160.004
4983.64 251.587
4983.66 314.543
4983.69 251.177
4983.71 159.417
4983.73 117.987
4983.74 88.6073
4983.77 54.4242
4983.81 37.0061
4983.84 27.2250
4983.87 21.2650
4983.90 17.3914
4983.96 12.9058
4984.03 10.4432
4984.09 8.97449
4984.22 7.39726
4984.35 6.60296
4984.47 6.15455
4984.73 5.68937
4985.24 5.34102
4985.75 5.21466
4986.76 5.12116
4987.78 5.08610
4991.86 5.04175
5000.00 5.00697
5009.24 4.97699
5018.48 4.95086
5027.73 4.92814
5036.97 4.91004
5046.21 4.90140
5050.83 4.90545
5055.45 4.92332
5057.76 4.94283
5060.07 4.97618
5062.38 5.03543
5064.69 5.14914
5065.85 5.24750
5067.00 5.39957
5068.16 5.65116
5069.31 6.10915
5069.89 6.49315
5070.47 7.07379
5071.05 8.01474
5071.62 9.67923
5071.91 11.0422
5072.20 13.0620
5072.49 16.2357
5072.78 21.6093
5073.07 31.8612
5073.21 40.8780
5073.36 55.0226
5073.50 79.3050
5073.65 124.774
5073.72 163.582
5073.79 222.304
5073.86 314.050
5073.93 458.211
5074.03 732.714
5074.12 913.468
5074.21 730.125
5074.30 459.073
5074.36 341.704
5074.41 260.087
5074.53 160.505
5074.64 107.731
5074.75 77.2948
5074.86 58.3986
5074.97 45.9472
5075.19 31.2076
5075.41 23.1151
5075.63 18.2349
5076.08 12.9142
5076.52 10.2215
5076.96 8.67982
5077.41 7.71166
5077.85 7.06656
5078.74 6.28373
5079.63 5.84475
5080.51 5.57354
5081.40 5.39387
5083.17 5.17702
5084.95 5.05491
5086.72 4.97839
5088.50 4.92652
5092.04 4.86083
5095.59 4.82025
5102.69 4.76941
5109.78 4.73458
5116.88 4.70567
5131.07 4.65314
5145.26 4.59999
5159.45 4.54169
5187.84 4.39489
5202.03 4.29631
5216.22 4.16962
5230.41 3.99876
5244.60 3.75334
5251.70 3.58480
5258.80 3.36802
5265.89 3.07889
5272.99 2.67499
5276.53 2.40742
5280.08 2.07684
5283.63 1.66253
5287.18 1.14219
5288.95 0.841070
5290.73 0.525906
5292.50 0.239998
5293.39 0.143279
5294.27 0.120431
5295.16 0.239212
5295.61 0.389091
5296.05 0.631670
5296.49 1.00704
5296.94 1.57134
5297.38 2.41549
5297.82 3.67375
5298.27 5.57610
5298.71 8.49051
5299.15 13.0960
5299.60 20.6077
5300.04 33.5172
5300.48 56.9709
5300.71 75.9259
5300.93 102.669
5301.15 141.156
5301.37 195.819
5301.78 349.297
5302.19 483.622
5302.60 426.325
5303.01 292.542
5303.33 215.210
5303.64 162.842
5303.96 127.444
5304.27 102.917
5304.90 72.4472
5305.53 55.0310
5306.16 44.0995
5306.78 36.7649
5308.04 27.7175
5309.30 22.4641
5310.55 19.0905
5311.81 16.7599
5313.07 15.0662
5315.58 12.7818
5318.09 11.3233
5320.60 10.3165
5323.12 9.58188
5328.14 8.58475
5333.17 7.94128
5338.20 7.49246
5343.22 7.16193
5353.27 6.70777
5363.32 6.41052
5373.38 6.20075
5383.43 6.04470
5403.53 5.82767
5423.63 5.68357
5443.74 5.58059
5463.84 5.50312
5504.05 5.39382
5524.15 5.35366
5544.26 5.31998
5564.36 5.29138
5584.46 5.26720
5604.57 5.25006
5614.62 5.26008
5617.13 5.27868
5619.64 5.33636
5620.90 5.41872
5622.16 5.65198
5622.79 5.97110
5623.10 6.28439
5623.41 6.84466
5623.73 7.99859
5623.88 9.09900
5624.04 11.0055
5624.20 14.7417
5624.28 18.1459
5624.36 23.6370
5624.43 33.6080
5624.47 41.7147
5624.51 53.7020
5624.55 72.9377
5624.59 104.072
5624.63 158.777
5624.67 258.772
5624.71 410.517
5624.75 512.470
5624.78 410.797
5624.82 259.123
5624.86 168.791
5624.89 114.304
5624.93 81.8054
5624.96 61.4536
5625.03 38.8478
5625.10 27.5509
5625.17 21.0072
5625.24 17.0008
5625.38 12.4649
5625.52 10.1183
5625.66 8.75122
5625.93 7.30452
5626.21 6.59346
5626.49 6.19469
5627.05 5.78472
5628.16 5.47977
5629.27 5.36902
5631.50 5.28678
5633.72 5.25609
5638.18 5.23131
5642.63 5.22008
5660.44 5.19857
5678.24 5.18432
5696.05 5.17206
5731.67 5.15086
5767.28 5.13279
5802.90 5.11709
5838.51 5.10338
5874.13 5.09164
5891.94 5.08698
5900.84 5.08615
5905.29 5.08986
5907.52 5.10622
5908.63 5.16752
5909.19 5.38846
5909.33 5.59745
5909.47 6.13182
5909.54 6.78941
5909.61 8.29322
5909.64 9.93943
5909.68 13.2005
5909.71 20.8286
5909.73 28.3999
5909.75 41.1034
5909.76 62.5948
5909.78 76.8446
5909.80 62.4436
5909.82 40.9080
5909.83 31.3001
5909.85 24.6228
5909.87 16.9837
5909.89 12.8119
5909.92 10.5318
5909.96 8.14203
5910.01 7.02601
5910.10 6.05811
5910.20 5.66702
5910.38 5.35631
5910.57 5.23928
5911.32 5.12066
5912.82 5.09020
5915.81 5.08257
5921.80 5.08039
5933.77 5.08084
5945.75 5.09237
5951.74 5.13300
5953.24 5.17065
5954.73 5.27011
5955.48 5.40078
5956.23 5.74978
5956.61 6.20935
5956.79 6.64855
5956.98 7.41693
5957.17 8.95459
5957.26 10.3913
5957.35 12.7873
5957.45 17.3526
5957.49 21.3299
5957.54 27.4181
5957.59 37.8973
5957.63 57.4767
5957.66 74.5029
5957.68 99.0281
5957.70 136.686
5957.73 196.930
5957.76 309.755
5957.79 386.902
5957.82 308.643
5957.85 195.228
5957.87 145.520
5957.89 111.655
5957.92 69.6175
5957.96 47.4700
5958.00 34.7604
5958.04 26.9031
5958.07 21.7450
5958.15 15.6481
5958.22 12.3397
5958.29 10.3549
5958.44 8.21243
5958.59 7.13245
5958.74 6.52247
5959.03 5.89066
5959.62 5.42500
5960.21 5.26073
5961.39 5.14584
5962.57 5.10810
5964.93 5.08472
5967.29 5.07969
5972.01 5.08381
5976.74 5.09982
5981.46 5.13871
5983.82 5.17937
5986.18 5.25546
5987.36 5.32071
5988.54 5.42135
5989.72 5.58788
5990.90 5.89182
5991.49 6.14720
5992.08 6.53523
5992.67 7.16534
5993.26 8.28752
5993.55 9.20905
5993.85 10.5795
5994.14 12.7429
5994.44 16.4450
5994.73 23.5554
5994.88 29.8681
5995.03 39.8685
5995.18 57.2741
5995.32 90.5755
5995.40 119.880
5995.47 165.371
5995.55 238.824
5995.62 358.155
5995.71 569.695
5995.79 712.419
5995.88 570.519
5995.97 359.318
5996.06 224.613
5996.14 148.312
5996.23 104.152
5996.32 77.3279
5996.40 59.6974
5996.49 47.8285
5996.66 33.1553
5996.84 24.8441
5997.01 19.7556
5997.36 14.0803
5997.70 11.1526
5998.05 9.45706
5998.40 8.38261
5998.74 7.66267
5999.43 6.78321
6000.13 6.28716
6000.82 5.97974
6001.51 5.77589
6002.90 5.53033
6004.29 5.39326
6005.67 5.30873
6007.06 5.25277
6009.83 5.18527
6012.60 5.14732
6018.15 5.10773
6023.69 5.08799
6029.23 5.07634
6040.32 5.06305
6062.50 5.04993
6084.67 5.04214
6129.03 5.03096
6173.38 5.02195
6262.08 5.00666
6306.43 4.99999
6328.61 4.99782
6339.70 5.00176
6345.24 5.02540
6346.63 5.05119
6348.01 5.12549
6348.70 5.22887
6349.40 5.51774
6349.74 5.90900
6350.09 6.95842
6350.26 8.31212
6350.35 9.58505
6350.44 11.7135
6350.52 15.7820
6350.57 19.2792
6350.61 24.7437
6350.65 34.1969
6350.70 51.3668
6350.72 66.1548
6350.74 87.1281
6350.76 120.736
6350.78 171.597
6350.81 272.612
6350.84 338.921
6350.87 272.959
6350.90 172.061
6350.93 113.917
6350.95 78.5348
6350.98 57.0942
6351.00 43.9290
6351.05 28.6419
6351.10 20.7694
6351.16 16.1646
6351.21 13.3512
6351.31 10.1686
6351.41 8.49693
6351.51 7.52948
6351.72 6.49604
6352.13 5.70072
6352.54 5.40498
6353.36 5.18447
6354.18 5.10429
6355.82 5.04493
6357.46 5.02329
6364.01 5.00072
6377.13 4.99290
6403.36 4.98761
6429.59 4.98389
6442.70 4.98272
6449.26 4.98463
6452.54 4.99602
6454.18 5.04337
6455.00 5.22618
6455.20 5.40613
6455.41 5.88435
6455.51 6.49724
6455.61 7.99205
6455.66 9.71604
6455.71 13.4128
6455.74 17.1391
6455.76 23.4353
6455.79 36.0846
6455.80 46.8941
6455.81 61.6669
6455.84 96.2522
6455.86 118.453
6455.88 96.3628
6455.90 61.8084
6455.91 47.0316
6455.92 36.2123
6455.95 23.8829
6455.97 17.4169
6456.00 13.7125
6456.05 9.91874
6456.10 8.13783
6456.20 6.57537
6456.30 5.94361
6456.50 5.44034
6456.70 5.24939
6457.50 5.05261
6459.11 4.99942
6462.33 4.98493
6468.76 4.98032
6481.62 4.97767
6507.34 4.97444
6533.07 4.97338
6545.93 4.98236
6549.14 4.99363
6552.36 5.02751
6553.97 5.07592
6555.57 5.21437
6556.38 5.40605
6556.78 5.59584
6557.18 5.93813
6557.58 6.65161
6557.79 7.34029
6557.99 8.54879
6558.19 10.9635
6558.29 13.2052
6558.39 16.9109
6558.49 23.8416
6558.54 29.6824
6558.59 38.6143
6558.64 53.1506
6558.69 78.7306
6558.74 128.071
6558.76 169.821
6558.79 230.945
6558.83 366.104
6558.87 457.609
6558.91 366.583
6558.95 231.604
6558.98 166.543
6559.00 123.331
6559.03 93.2743
6559.06 73.4155
6559.11 48.7212
6559.17 35.2965
6559.22 27.0295
6559.28 21.7054
6559.39 15.5625
6559.50 12.2419
6559.61 10.2822
6559.82 8.16044
6560.04 7.09432
6560.26 6.48895
6560.70 5.85788
6561.13 5.55320
6561.57 5.38300
6562.45 5.20912
6564.19 5.08032
6565.94 5.03351
6569.44 4.99863
6572.94 4.98563
6586.92 4.97106
6614.90 4.96415
6642.87 4.96027
6656.86 4.95882
6663.85 4.95953
6667.35 4.96612
6669.10 4.99509
6669.97 5.10925
6670.19 5.22306
6670.41 5.52645
6670.52 5.92019
6670.63 6.89494
6670.68 8.05340
6670.73 10.5483
6670.76 13.1724
6670.79 17.7856
6670.82 27.0619
6670.83 35.6170
6670.84 48.2035
6670.86 73.7396
6670.88 91.6518
6670.90 73.8787
6670.92 48.3788
6670.94 31.0550
6670.96 21.8738
6670.98 16.4117
6671.00 13.2781
6671.05 9.81406
6671.09 8.12074
6671.17 6.59822
6671.25 5.95840
6671.41 5.44229
6671.58 5.24411
6672.23 5.03572
6673.54 4.97837
6676.16 4.96259
6681.39 4.95773
6691.86 4.95533
6712.79 4.95267
6754.66 4.94815
6838.40 4.93970
6922.14 4.93165
6964.01 4.92793
6984.95 4.92672
6995.42 4.92818
7000.65 4.93641
7003.27 4.96886
7004.58 5.09189
7004.90 5.21362
7005.23 5.54249
7005.39 5.97378
7005.56 7.07518
7005.64 8.43092
7005.72 11.6033
7005.76 15.0575
7005.80 21.9273
7005.82 28.3298
7005.84 38.1053
7005.86 54.3747
7005.88 81.9526
7005.91 128.188
7005.93 159.014
7005.95 128.103
7005.97 81.8274
7006.00 49.3416
7006.02 33.0040
7006.05 23.6511
7006.07 18.3548
7006.12 12.6408
7006.17 9.93796
7006.27 7.48165
7006.36 6.47292
7006.56 5.66196
7006.75 5.35290
7007.14 5.12004
7007.53 5.03527
7009.09 4.95140
7012.21 4.93008
7018.45 4.92467
7030.92 4.92374
7043.39 4.92999
7049.63 4.95975
7051.19 4.99082
7052.75 5.07860
7053.53 5.19929
7054.31 5.53273
7054.70 5.98064
7055.09 7.17851
7055.28 8.71800
7055.38 10.1612
7055.48 12.5726
7055.58 17.1635
7055.63 21.1543
7055.67 27.2486
7055.72 37.6673
7055.77 56.3822
7055.80 72.6453
7055.82 95.7795
7055.84 130.681
7055.87 185.286
7055.90 292.241
7055.94 365.576
7055.97 292.384
7056.00 185.424
7056.04 112.966
7056.07 73.5132
7056.11 51.4637
7056.15 38.2819
7056.18 29.8914
7056.22 24.2627
7056.29 17.5276
7056.36 13.7225
7056.43 11.4302
7056.58 8.87536
7056.72 7.57283
7056.86 6.82113
7057.15 6.03254
7057.72 5.43383
7058.29 5.21471
7059.44 5.05310
7060.58 4.99510
7065.16 4.93762
7074.32 4.92213
7092.63 4.91669
7129.26 4.91244
7202.52 4.90662
7239.15 4.90564
7257.46 4.90676
7275.77 4.91069
7294.09 4.92205
7303.24 4.93489
7312.40 4.95990
7316.98 4.98181
7321.56 5.01608
7326.14 5.07358
7330.72 5.18001
7333.01 5.27052
7335.29 5.40937
7337.58 5.63768
7339.87 6.05125
7341.02 6.39666
7342.16 6.91858
7343.31 7.76021
7344.45 9.24321
7345.02 10.4520
7345.60 12.2311
7346.17 15.0061
7346.74 19.6762
7347.31 28.4414
7347.60 35.9788
7347.89 47.6744
7348.17 67.1003
7348.46 102.322
7348.60 131.254
7348.74 173.437
7348.89 236.323
7349.03 329.959
7349.24 525.655
7349.44 655.341
7349.65 525.349
7349.86 330.273
7350.03 223.571
7350.20 157.260
7350.37 115.393
7350.53 88.0064
7350.87 56.2381
7351.21 39.5125
7351.54 29.7380
7351.88 23.5644
7352.55 16.5253
7353.22 12.8272
7353.89 10.6505
7354.57 9.26277
7355.24 8.32424
7356.58 7.17201
7357.93 6.51903
7359.27 6.11298
7360.61 5.84317
7363.30 5.51765
7365.99 5.33596
7368.68 5.22398
7371.37 5.15000
7376.75 5.06102
7382.12 5.01128
7387.50 4.98045
7392.88 4.95988
7403.63 4.93465
7414.38 4.92000
7435.89 4.90371
7457.40 4.89453
7478.91 4.88824
7521.92 4.87917
7607.95 4.86533
7650.97 4.85884
7672.47 4.85557
7683.23 4.85420
7688.60 4.85537
7691.29 4.86467
7692.64 4.90563
7693.31 5.06600
7693.48 5.22329
7693.64 5.63656
7693.73 6.15355
7693.81 7.39288
7693.85 8.77946
7693.90 11.6327
7693.94 18.7824
7693.96 26.7709
7693.98 42.2943
7694.00 64.4461
7694.02 80.0184
7694.04 64.6510
7694.06 42.5537
7694.07 31.6342
7694.09 24.6349
7694.11 16.3311
7694.14 12.2087
7694.17 9.93063
7694.22 7.66921
7694.27 6.64949
7694.38 5.75645
7694.49 5.39868
7694.92 5.00778
7695.78 4.89587
7697.49 4.86467
7700.93 4.85546
7707.80 4.85182
7721.54 4.84885
7749.02 4.84420
7803.99 4.83496
7858.95 4.82558
7886.44 4.82483
7893.31 4.82930
7900.18 4.84637
7903.61 4.87308
7907.05 4.95341
7908.77 5.06802
7909.63 5.18337
7910.48 5.39394
7911.34 5.84074
7911.77 6.27942
7912.20 7.05942
7912.42 7.70172
7912.63 8.65777
7912.85 10.1685
7913.06 12.7410
7913.28 17.7041
7913.38 22.0705
7913.49 29.0227
7913.60 41.1548
7913.71 64.3007
7913.76 84.7065
7913.81 115.645
7913.87 166.271
7913.92 247.816
7913.98 394.782
7914.05 491.998
7914.11 395.553
7914.18 248.997
7914.23 162.828
7914.29 111.850
7914.35 80.8585
7914.41 61.1591
7914.52 38.9440
7914.63 27.5556
7914.75 21.0113
7914.86 16.9244
7915.09 12.3134
7915.32 9.90615
7915.55 8.50497
7915.77 7.61474
7916.00 7.01404
7916.46 6.27720
7916.92 5.86096
7917.83 5.42988
7918.74 5.22220
7919.65 5.10603
7921.48 4.98682
7925.13 4.89718
7928.78 4.86359
7936.09 4.83716
7943.39 4.82618
7957.99 4.81565
7972.60 4.80950
8001.81 4.80028
8016.42 4.79626
8023.72 4.79578
8027.37 4.80347
8029.20 4.84193
8030.11 4.99901
8030.34 5.15649
8030.56 5.57968
8030.68 6.12324
8030.79 7.47558
8030.85 9.05759
8030.91 12.5105
8030.94 16.0504
8030.96 22.1892
8030.99 34.8879
8031.01 45.6286
8031.02 62.1896
8031.04 97.1509
8031.06 120.009
8031.08 97.4836
8031.11 62.6252
8031.13 39.3942
8031.15 26.6819
8031.17 19.6185
8031.20 15.5570
8031.24 11.0185
8031.29 8.86323
8031.38 6.90458
8031.47 6.08991
8031.65 5.42394
8031.83 5.16813
8032.56 4.89811
8034.01 4.82234
8036.91 4.80041
8042.72 4.79260
8054.33 4.78737
8077.56 4.78000
8100.79 4.77328
8112.40 4.77321
8118.21 4.78943
8121.11 4.86652
8121.84 4.94791
8122.56 5.17752
8122.93 5.48973
8123.29 6.33360
8123.47 7.43189
8123.65 10.1903
8123.74 13.4986
8123.79 16.3494
8123.83 20.8132
8123.88 28.5458
8123.93 42.6526
8123.95 54.8304
8123.97 72.1926
8123.99 100.060
8124.02 141.964
8124.05 225.536
8124.08 280.020
8124.11 226.015
8124.14 142.617
8124.16 105.354
8124.18 80.0174
8124.21 49.4702
8124.25 33.8281
8124.29 25.0118
8124.33 19.6235
8124.37 16.1124
8124.45 11.9877
8124.60 8.42256
8124.76 6.97099
8125.07 5.82393
8125.38 5.38912
8126.01 5.05903
8126.63 4.93724
8129.12 4.81262
8134.11 4.77691
8144.08 4.76408
8154.05 4.76342
8159.03 4.79037
8160.28 4.82336
8161.52 4.92234
8162.15 5.06290
8162.77 5.45920
8163.08 5.99601
8163.39 7.42142
8163.55 9.23628
8163.63 10.9047
8163.70 13.6770
8163.78 18.7631
8163.82 23.0466
8163.86 29.5423
8163.90 39.9850
8163.94 58.0229
8163.98 91.8169
8164.01 157.610
8164.05 250.490
8164.08 311.733
8164.11 251.397
8164.15 158.924
8164.19 93.1177
8164.22 59.7907
8164.26 41.3210
8164.30 30.8232
8164.34 24.0713
8164.38 19.7098
8164.46 14.4127
8164.53 11.5007
8164.61 9.73458
8164.76 7.79393
8165.07 6.23824
8165.38 5.64053
8165.99 5.18121
8166.61 5.00942
8167.84 4.87916
8169.07 4.83022
8173.99 4.77706
8183.83 4.75762
8203.51 4.74477
8242.88 4.72671
8282.25 4.70818
8321.61 4.68744
8360.98 4.66361
8400.34 4.63572
8439.71 4.60258
8459.39 4.58410
8469.23 4.57687
8474.15 4.58433
8476.61 4.63281
8477.84 4.82895
8478.15 5.02496
8478.46 5.55073
8478.61 6.23295
8478.77 7.95898
8478.84 10.0256
8478.92 14.6913
8478.96 19.6416
8479.00 28.7280
8479.02 36.4402
8479.04 48.0516
8479.05 66.0891
8479.07 95.3854
8479.10 149.276
8479.12 186.459
8479.15 149.396
8479.17 95.5253
8479.20 59.6139
8479.22 40.2607
8479.25 28.8149
8479.27 22.1662
8479.33 14.8440
8479.38 11.3089
8479.48 8.06854
8479.58 6.70084
8479.78 5.59201
8479.98 5.16713
8480.39 4.84260
8480.79 4.72292
8482.41 4.60124
8485.65 4.56605
8492.13 4.55037
8505.09 4.53417
8518.05 4.53517
8521.29 4.55305
8524.53 4.61629
8526.15 4.71144
8526.96 4.80879
8527.77 4.98832
8528.58 5.37168
8528.99 5.74913
8529.39 6.42389
8529.80 7.80758
8530.00 9.12185
8530.20 11.3659
8530.41 15.7142
8530.51 19.5539
8530.61 25.6911
8530.71 36.3252
8530.81 56.8908
8530.86 75.1588
8530.91 103.011
8530.96 149.031
8531.01 223.109
8531.07 355.877
8531.13 442.855
8531.19 354.374
8531.25 224.240
8531.31 140.500
8531.37 93.9232
8531.43 66.3571
8531.48 49.6903
8531.54 38.6654
8531.60 31.2803
8531.72 22.1711
8531.83 16.9746
8531.95 13.7923
8532.18 10.2182
8532.42 8.37477
8532.65 7.30154
8533.11 6.16455
8533.58 5.60430
8534.05 5.28797
8534.98 4.96004
8535.91 4.80094
8536.84 4.71123
8538.71 4.61733
8542.44 4.54253
8546.17 4.51032
8553.63 4.47720
8557.36 4.47217
8559.22 4.50671
8560.16 4.68327
8560.39 4.86798
8560.62 5.37309
8560.74 6.03231
8560.86 7.66612
8560.92 9.61914
8560.97 13.8172
8561.00 18.0007
8561.03 25.4575
8561.06 40.1041
8561.08 53.2351
8561.09 71.3710
8561.11 112.849
8561.13 139.576
8561.16 113.749
8561.18 72.5866
8561.19 53.3885
8561.21 39.8310
8561.24 24.7378
8561.27 17.3792
8561.31 13.3571
8561.37 9.39718
8561.43 7.59761
8561.56 6.05925
8561.69 5.43545
8561.95 4.94025
8562.20 4.74948
8563.23 4.54424
8565.27 4.47894
8569.37 4.45009
8577.56 4.42418
8593.93 4.38178
8610.31 4.33697
8626.68 4.28632
8659.44 4.15822
8692.19 3.97200
8708.57 3.84255
8724.94 3.67430
8741.32 3.44673
8757.69 3.12226
8765.88 2.90252
8774.07 2.62475
8782.26 2.26417
8790.45 1.78272
8794.54 1.48051
8798.64 1.12887
8802.73 0.729489
8806.82 0.317134
8808.87 0.147162
8810.92 0.0651192
8811.94 0.0910835
8812.96 0.194861
8813.99 0.419569
8815.01 0.833860
8816.04 1.55369
8817.06 2.77656
8818.08 4.86572
8819.11 8.50761
8820.13 15.1253
8820.64 20.4081
8821.15 27.8274
8821.66 38.4810
8822.18 54.0248
8822.69 76.9880
8823.20 110.740
8824.11 204.375
8825.02 291.725
8825.92 264.331
8826.83 185.879
8827.49 141.225
8828.15 109.796
8828.80 87.8654
8829.46 72.3213
8830.78 52.4786
8832.09 40.8220
8833.41 33.3680
8834.72 28.2798
8837.35 21.9000
8839.98 18.1295
8842.61 15.6740
8845.24 13.9602
8847.87 12.7032
8853.13 10.9913
8858.39 9.88626
8863.65 9.11712
8868.90 8.55226
8879.42 7.77995
8889.94 7.27794
8900.46 6.92595
8910.98 6.66570
8932.01 6.30684
8953.05 6.07125
8974.09 5.90473
8995.12 5.78081
9037.20 5.60863
9079.27 5.49461
9121.34 5.41346
9163.42 5.35270
9247.56 5.26763
9331.71 5.21075
9415.85 5.16989
9500.00 5.13902
9500.00 6.98714
10000.0 6.98517
12500.0 6.98746
14000.0 6.99520
15000.0 7.00201
17000.0 7.01831
20000.0 7.04679
25000.0 7.09860
30000.0 7.15096
35000.0 7.20152
40000.0 7.24942
45000.0 7.29439
50000.0 7.33642
60000.0 7.41216
67500.0 7.46231
72000.0 7.48993
85000.0 7.56052
99999.9 7.62737
100000 7.62900
150000 7.70670
200000 7.72270
300000 7.66170
400000 7.60150
500000 7.51250
517000 7.49764
517041 7.49727
520000 7.49489
540000 7.47814
560000 7.45989
580000 7.44295
600000 7.42490
650000 7.36233
700000 7.29865
800000 7.17250
1.00000E+06 6.90280
1.20000E+06 6.65704
1.22000E+06 6.63106
1.23000E+06 6.61763
1.29000E+06 6.53978
1.29013E+06 6.53949
1.39000E+06 6.41103
1.40000E+06 6.39821
1.50000E+06 6.26546
1.60000E+06 6.13180
1.66000E+06 6.05335
1.66033E+06 6.05256
1.80000E+06 5.86700
1.80013E+06 5.86650
2.00000E+06 5.60790
2.50000E+06 5.02563
3.00000E+06 4.57370
3.50000E+06 4.29193
4.00000E+06 4.14230
4.50000E+06 4.09069
4.85900E+06 4.10031
4.85943E+06 4.10032
5.00000E+06 4.10330
5.36200E+06 4.13047
5.36226E+06 4.13049
6.00000E+06 4.17744
7.00000E+06 4.33287
8.00000E+06 4.44397
8.77200E+06 4.54508
8.77269E+06 4.54496
8.95000E+06 4.56839
8.95072E+06 4.56848
9.00000E+06 4.57442
1.00000E+07 4.65315
1.05300E+07 4.66199
1.10000E+07 4.66955
1.11900E+07 4.67441
1.11906E+07 4.67441
1.13300E+07 4.67600
1.13308E+07 4.67601
1.20000E+07 4.68800
1.30000E+07 4.61002
1.40000E+07 4.53099
1.49700E+07 4.45447
1.49712E+07 4.45432
1.50000E+07 4.45096
1.60000E+07 4.37195
1.67700E+07 4.31432
1.68400E+07 4.30877
1.68413E+07 4.30867
1.70000E+07 4.29697
1.80000E+07 4.22105
1.90000E+07 4.13403
2.00000E+07 4.04603