Cd-110(n,tot) ENDF/B-VII.1
Energy(eV) XS(b)
1.00000E-05 560.181
1.25000E-05 501.488
1.50000E-05 458.163
2.00000E-05 397.348
2.75000E-05 339.483
3.50000E-05 301.401
4.25000E-05 273.908
5.00000E-05 252.861
6.25000E-05 226.613
7.50000E-05 207.237
0.000100000 180.040
0.000125000 161.479
0.000150000 147.778
0.000200000 128.546
0.000275000 110.247
0.000350000 98.2031
0.000425000 89.5087
0.000500000 82.8525
0.000625000 74.5512
0.000750000 68.4233
0.00100000 59.8213
0.00125000 53.9508
0.00150000 49.6171
0.00200000 43.5335
0.00275000 37.7443
0.00350000 33.9336
0.00425000 31.1823
0.00500000 29.0756
0.00625000 26.4478
0.00750000 24.5075
0.0100000 21.7829
0.0125000 19.9226
0.0150000 18.5486
0.0200000 16.6184
0.0253000 15.2333
0.0314750 14.0830
0.0376500 13.2276
0.0500000 12.0180
0.0625000 11.1777
0.0750000 10.5556
0.100000 9.67860
0.125000 9.07658
0.150000 8.62954
0.200000 7.99664
0.237500 7.65621
0.275000 7.38566
0.350000 6.97642
0.500000 6.44192
0.750000 5.91834
1.00000 5.59053
1.50000 5.17776
2.00000 4.91402
2.75000 4.64627
3.50000 4.45907
5.00000 4.20553
7.50000 3.94973
10.0000 3.78731
12.5000 3.67023
15.0000 3.57863
20.0000 3.43639
27.5000 3.26816
35.0000 3.11346
42.5000 2.94829
50.0000 2.75287
54.9289 2.59645
59.8578 2.40665
64.7867 2.17006
69.7156 1.87066
72.1800 1.69478
74.6444 1.50765
77.1089 1.33453
79.5733 1.26522
80.8056 1.35324
81.4217 1.46364
81.7297 1.54403
81.8838 1.59208
82.0378 1.64609
82.1918 1.70670
82.3458 1.77462
82.4999 1.85062
82.6539 1.93561
82.8079 2.03060
82.9620 2.13672
83.1160 2.25527
83.2700 2.38770
83.5781 2.70116
83.8861 3.09357
84.1942 3.58673
84.5022 4.20985
84.8103 5.00276
85.1183 6.02056
85.4264 7.34130
85.7344 9.07761
86.0425 11.3970
86.3506 14.5553
86.6586 18.9592
86.9667 25.2818
87.2747 34.7007
87.5828 49.4145
87.8908 73.9018
88.1989 118.392
88.3529 155.307
88.5069 210.423
88.6610 297.422
88.8150 445.332
88.9690 724.421
89.0460 965.379
89.1231 1339.02
89.2001 1957.41
89.2771 3068.50
89.3156 3971.31
89.3541 5272.45
89.3926 7184.92
89.4311 9987.45
89.4901 16159.2
89.5490 20425.0
89.6080 16526.8
89.6669 10448.3
89.7073 7516.03
89.7476 5529.60
89.7880 4186.28
89.8284 3258.68
89.9091 2119.12
89.9898 1483.56
90.0705 1096.91
90.1513 845.324
90.3127 549.336
90.4742 388.476
90.6356 291.288
90.7971 227.958
90.9585 184.305
91.2815 129.438
91.6044 97.3596
91.9273 76.8618
92.2502 62.8948
92.8960 45.4806
93.5418 35.3264
94.1876 28.8172
94.8335 24.3544
96.1251 18.7255
97.4167 15.3834
98.7084 13.2013
100.000 11.6783
101.563 10.3648
103.125 9.41313
106.250 8.13437
109.375 7.31988
112.500 6.75811
118.750 6.03618
125.000 5.59304
131.250 5.29333
137.500 5.07678
150.000 4.78350
162.500 4.59211
175.000 4.45489
187.500 4.34847
200.000 4.25804
207.747 4.20312
211.621 4.17332
215.494 4.13929
219.367 4.09625
221.304 4.06810
223.241 4.03172
224.209 4.00867
225.178 3.98083
226.146 3.94638
227.114 3.90309
227.599 3.87767
228.083 3.85045
228.567 3.82453
229.051 3.81123
229.293 3.81990
229.535 3.85432
229.777 3.94517
230.019 4.17132
230.141 4.39636
230.262 4.77471
230.383 5.44832
230.504 6.74943
230.564 7.87799
230.625 9.61307
230.685 12.4420
230.746 17.4293
230.806 27.2621
230.821 31.2120
230.837 36.1066
230.852 42.3016
230.859 46.0559
230.867 50.2794
230.874 55.1839
230.882 60.8405
230.890 67.4041
230.897 74.9608
230.912 94.4631
230.927 122.245
230.942 163.565
230.958 226.546
230.973 326.356
230.988 485.748
231.007 790.241
231.026 1004.25
231.036 954.217
231.045 818.985
231.064 523.787
231.078 378.145
231.091 279.579
231.104 213.033
231.118 167.107
231.144 110.700
231.171 79.2868
231.197 60.0449
231.224 47.5278
231.277 32.6874
231.330 24.5583
231.383 19.6072
231.436 16.3556
231.489 14.0968
231.595 11.2273
231.702 9.52543
231.808 8.42314
231.914 7.66242
232.127 6.69744
232.339 6.12268
232.551 5.74690
232.764 5.48459
233.189 5.14600
233.613 4.93918
234.038 4.80067
234.463 4.70181
235.313 4.57036
236.163 4.48690
237.012 4.42903
237.862 4.38632
239.561 4.32692
241.261 4.28685
244.659 4.23437
248.058 4.19968
251.457 4.17371
258.254 4.13480
271.849 4.07943
285.444 4.03603
299.039 3.99730
312.634 3.95938
319.432 3.93953
326.229 3.91824
329.628 3.90690
333.027 3.89545
334.726 3.89044
336.425 3.88842
337.275 3.89183
337.700 3.89706
338.125 3.90811
338.550 3.93371
338.762 3.95987
338.975 4.00770
339.081 4.04774
339.187 4.10825
339.293 4.20569
339.399 4.37713
339.506 4.72083
339.559 5.03903
339.612 5.57249
339.665 6.56608
339.691 7.41898
339.718 8.73064
339.745 10.9027
339.771 14.7868
339.784 17.9576
339.798 22.5426
339.811 29.3091
339.824 39.1816
339.844 60.4477
339.864 74.5381
339.884 60.3353
339.904 39.1834
339.918 28.4663
339.933 21.5044
339.947 16.9343
339.962 13.8528
339.991 10.1576
340.020 8.16261
340.049 6.97089
340.078 6.21143
340.136 5.33471
340.194 4.86830
340.252 4.59245
340.310 4.41551
340.368 4.29570
340.484 4.14797
340.600 4.06398
340.716 4.01156
340.833 3.97658
341.065 3.93403
341.297 3.90987
341.761 3.88412
342.226 3.87061
342.690 3.86199
343.619 3.85056
345.477 3.83457
347.335 3.82006
351.051 3.78744
354.767 3.74385
356.625 3.71496
358.482 3.67855
360.340 3.63086
362.198 3.56536
363.127 3.52256
364.056 3.47031
364.985 3.40603
365.914 3.32826
366.379 3.28602
366.843 3.24657
367.308 3.22301
367.772 3.25502
368.004 3.32593
368.236 3.48069
368.469 3.80886
368.701 4.53262
368.817 5.21066
368.933 6.30861
369.049 8.19170
369.165 11.6931
369.194 13.0260
369.223 14.6343
369.252 16.6016
369.281 19.0365
369.296 20.4851
369.311 22.1027
369.325 23.9282
369.340 25.9971
369.369 31.0476
369.398 37.7354
369.427 46.8478
369.456 59.5456
369.485 77.9291
369.514 105.714
369.543 150.166
369.572 225.381
369.586 283.078
369.601 361.993
369.615 470.925
369.630 620.240
369.657 1014.57
369.684 1296.21
369.711 1061.61
369.738 680.855
369.770 398.742
369.802 253.014
369.834 173.586
369.866 126.730
369.897 97.0724
369.929 77.1911
369.993 53.0563
370.056 39.5018
370.120 31.1082
370.247 21.6208
370.374 16.6078
370.502 13.6062
370.629 11.6489
370.756 10.2912
371.011 8.55982
371.265 7.52285
371.519 6.84233
371.774 6.36603
372.283 5.74972
372.791 5.37257
373.300 5.11999
373.809 4.93985
374.827 4.70106
375.844 4.55051
376.862 4.44710
377.880 4.37171
379.915 4.26895
381.950 4.20192
383.986 4.15445
386.021 4.11883
390.092 4.06835
394.163 4.03360
398.233 4.00764
402.304 3.98709
410.445 3.95563
418.587 3.93160
434.869 3.89461
451.152 3.86495
467.435 3.83887
483.717 3.81480
491.859 3.80371
495.929 3.79932
497.965 3.79855
500.000 3.80233
500.901 3.80974
501.351 3.81775
501.801 3.83286
502.251 3.86564
502.477 3.89826
502.702 3.95723
502.814 4.00638
502.927 4.08051
503.039 4.19984
503.152 4.40974
503.208 4.58048
503.265 4.83210
503.321 5.22468
503.377 5.88445
503.433 7.12388
503.462 8.19593
503.490 9.85825
503.518 12.6419
503.546 17.7066
503.560 21.9118
503.574 28.0385
503.588 37.3141
503.602 51.1563
503.622 79.7009
503.642 98.6227
503.662 79.5472
503.682 51.1545
503.700 34.1355
503.718 24.1173
503.737 18.1088
503.755 14.3455
503.791 10.1265
503.827 7.98355
503.864 6.75985
503.900 5.99928
503.972 5.14552
504.045 4.70331
504.118 4.44613
504.190 4.28340
504.263 4.17399
504.408 4.04054
504.553 3.96543
504.844 3.88819
505.134 3.85119
505.425 3.83056
506.006 3.80932
507.168 3.79283
508.329 3.78592
510.653 3.77881
512.977 3.77417
517.624 3.76657
522.272 3.75956
540.862 3.73213
578.041 3.67364
615.221 3.60452
624.516 3.58468
633.811 3.56370
638.458 3.55303
643.106 3.54319
645.430 3.53988
647.753 3.54159
648.915 3.54944
649.496 3.55885
650.077 3.57731
650.658 3.61842
650.949 3.65992
651.239 3.73557
651.384 3.79907
651.529 3.89533
651.675 4.05137
651.820 4.32886
651.893 4.55699
651.965 4.89596
652.038 5.43158
652.110 6.35041
652.183 8.12393
652.219 9.70155
652.256 12.2357
652.292 16.6628
652.328 25.3447
652.346 33.1086
652.364 45.3130
652.383 65.6241
652.401 99.6170
652.421 157.522
652.441 195.907
652.462 157.206
652.482 99.6024
652.495 72.8399
652.509 54.5789
652.535 33.5241
652.562 22.8843
652.589 16.9379
652.616 13.3247
652.643 10.9805
652.696 8.24239
652.750 6.76635
652.803 5.88492
652.857 5.31761
652.910 4.93201
653.018 4.45497
653.125 4.18320
653.232 4.01359
653.339 3.90085
653.553 3.76471
653.768 3.68869
653.982 3.64187
654.196 3.61091
654.625 3.57355
655.053 3.55246
655.910 3.53001
656.768 3.51816
657.625 3.51051
659.339 3.50023
662.767 3.48589
666.196 3.47349
673.053 3.44895
679.910 3.42289
693.624 3.36332
707.338 3.28973
721.053 3.19516
734.767 3.06755
741.624 2.98501
748.481 2.88502
751.909 2.82776
753.624 2.79792
755.338 2.76869
757.052 2.74409
757.909 2.73739
758.766 2.74092
759.195 2.75071
759.624 2.77113
760.052 2.81142
760.481 2.89339
760.695 2.96592
760.909 3.07917
761.124 3.26733
761.338 3.60939
761.445 3.89512
761.552 4.32550
761.659 5.01756
761.766 6.23020
761.874 8.65287
761.927 10.8862
761.981 14.6041
762.034 21.4885
762.061 27.3402
762.088 36.2621
762.115 50.8569
762.141 76.6236
762.168 126.565
762.182 169.003
762.195 229.607
762.216 366.358
762.237 457.026
762.258 365.641
762.279 229.571
762.298 150.926
762.316 103.476
762.335 74.4392
762.353 55.9777
762.390 34.9385
762.426 24.1425
762.463 17.9092
762.500 14.0241
762.573 9.63657
762.647 7.35075
762.720 6.01599
762.794 5.16785
762.867 4.59699
763.014 3.89811
763.161 3.50240
763.308 3.25607
763.455 3.09176
763.749 2.89135
764.042 2.77641
764.336 2.70262
764.630 2.65102
765.218 2.58188
765.805 2.53493
766.980 2.46679
768.156 2.41091
769.331 2.35820
771.681 2.25071
776.382 1.99897
781.083 1.66510
783.434 1.45434
785.784 1.20762
788.135 0.926178
790.485 0.639688
791.660 0.531788
792.248 0.504461
792.836 0.509487
793.423 0.565785
793.717 0.622039
794.011 0.703846
794.305 0.818243
794.599 0.974457
794.892 1.18473
795.186 1.46551
795.480 1.83935
795.774 2.33699
796.068 3.00222
796.361 3.89785
796.655 5.11635
796.949 6.79764
797.243 9.16038
797.537 12.5596
797.830 17.5987
798.124 25.3635
798.418 37.9511
798.712 59.7999
799.006 101.521
799.153 137.569
799.299 193.128
799.446 283.728
799.593 442.050
799.740 741.163
799.814 988.414
799.887 1336.43
800.016 2216.11
800.145 2869.34
800.274 2375.77
800.402 1536.08
800.496 1097.29
800.591 804.588
800.685 609.586
800.779 476.470
800.968 314.230
801.156 224.209
801.345 169.348
801.533 133.497
801.910 90.8797
802.287 67.3039
802.665 52.7866
803.042 43.1431
803.419 36.3684
804.173 27.6219
804.927 22.3238
805.681 18.8243
806.435 16.3653
807.943 13.1740
809.452 11.2171
810.960 9.90640
812.468 8.97228
815.485 7.73656
818.501 6.96174
820.010 6.67649
821.518 6.44406
822.272 6.35144
822.649 6.31569
823.026 6.29417
823.403 6.30508
823.592 6.33920
823.780 6.41895
823.969 6.60852
824.063 6.80066
824.157 7.14355
824.252 7.83420
824.299 8.46973
824.346 9.52485
824.393 11.4617
824.417 13.0909
824.440 15.5456
824.464 19.4986
824.487 26.2748
824.511 38.9757
824.534 63.8400
824.554 98.4877
824.575 121.572
824.595 98.4813
824.615 63.8287
824.637 39.5580
824.660 26.9187
824.683 20.0249
824.706 15.9713
824.728 13.4203
824.751 11.7228
824.796 9.68631
824.842 8.56293
824.887 7.87969
824.978 7.12624
825.069 6.73934
825.159 6.51301
825.341 6.26772
825.523 6.13940
825.704 6.05983
826.067 5.96163
826.430 5.89737
826.793 5.84744
827.519 5.76667
828.972 5.63657
830.424 5.52635
833.328 5.34091
836.233 5.18830
842.042 4.94944
847.851 4.76929
859.469 4.50986
871.087 4.32201
882.705 4.16351
888.514 4.08462
894.323 3.99829
900.132 3.89363
903.036 3.82798
905.941 3.74679
908.845 3.64058
910.298 3.57336
911.750 3.49343
913.202 3.39990
913.928 3.35076
914.654 3.30780
915.380 3.29515
915.744 3.32400
916.107 3.41651
916.470 3.67417
916.651 3.95694
916.833 4.49008
917.014 5.63134
917.105 6.74251
917.196 8.69103
917.287 12.5701
917.332 16.1229
917.377 21.9869
917.423 32.7054
917.445 41.6881
917.468 55.2495
917.491 76.9286
917.513 114.099
917.536 183.043
917.559 316.684
917.578 505.827
917.598 631.160
917.618 504.785
917.637 316.656
917.651 225.939
917.664 165.505
917.678 124.673
917.692 96.8756
917.719 62.8772
917.746 44.1148
917.773 32.8089
917.800 25.5153
917.854 17.0291
917.908 12.4838
917.963 9.77302
918.071 6.83806
918.179 5.35820
918.288 4.50341
918.504 3.59046
918.721 3.12505
918.938 2.85197
919.371 2.61099
919.588 2.63965
919.805 2.83898
920.022 3.37067
920.130 3.87023
920.238 4.64313
920.292 5.18215
920.347 5.86338
920.401 6.73181
920.455 7.85071
920.509 9.31088
920.563 11.2460
920.618 13.8585
920.672 17.4578
920.726 22.5729
920.780 30.0808
920.834 41.5783
920.888 60.1228
920.943 92.3384
920.970 117.738
920.997 153.659
921.024 206.050
921.051 284.949
921.078 407.028
921.105 595.753
921.143 989.657
921.180 1283.59
921.218 1066.38
921.255 692.042
921.294 437.306
921.332 293.166
921.370 208.877
921.409 156.838
921.447 122.627
921.486 99.1309
921.563 69.7335
921.640 52.7186
921.716 41.9434
921.870 29.4685
922.024 22.7014
922.178 18.5655
922.332 15.8223
922.485 13.8916
922.793 11.3861
923.101 9.85281
923.408 8.82883
923.716 8.10135
924.331 7.14307
924.946 6.54418
925.561 6.13627
926.177 5.84121
927.407 5.44352
928.637 5.18793
929.868 5.00957
931.098 4.87772
933.559 4.69491
936.020 4.57306
938.481 4.48507
940.941 4.41785
945.863 4.32019
950.784 4.25088
960.628 4.15466
970.471 4.08702
980.314 4.03401
1000.00 3.95047
1029.38 3.84999
1058.76 3.75358
1073.45 3.69752
1080.79 3.66376
1088.14 3.62224
1095.48 3.56540
1099.15 3.52576
1102.83 3.47159
1104.66 3.43541
1106.50 3.38947
1108.34 3.32846
1110.17 3.24246
1111.09 3.18439
1112.01 3.11078
1112.93 3.01444
1113.84 2.88364
1114.30 2.79981
1114.76 2.70005
1115.22 2.58277
1115.68 2.45424
1115.91 2.39603
1116.14 2.36089
1116.37 2.38983
1116.60 2.59485
1116.71 2.85449
1116.83 3.33793
1116.94 4.25965
1117.00 5.01289
1117.06 6.10059
1117.11 7.75035
1117.14 8.88412
1117.17 10.2564
1117.20 12.0616
1117.23 14.3979
1117.26 17.4756
1117.29 21.4495
1117.32 27.0890
1117.34 35.0856
1117.37 46.8341
1117.40 64.0902
1117.43 92.7436
1117.46 139.797
1117.47 178.654
1117.49 228.509
1117.50 296.924
1117.52 390.247
1117.54 657.487
1117.57 851.397
1117.58 815.499
1117.60 702.348
1117.63 457.923
1117.64 339.793
1117.66 257.461
1117.70 160.056
1117.73 109.226
1117.77 79.9941
1117.81 61.7565
1117.84 49.6253
1117.91 35.1053
1117.98 26.7965
1118.06 21.6852
1118.20 15.7802
1118.34 12.5966
1118.48 10.6519
1118.63 9.35974
1118.77 8.44752
1119.06 7.25447
1119.34 6.52203
1119.63 6.02931
1119.92 5.67696
1120.49 5.20838
1121.06 4.91333
1121.63 4.71077
1122.20 4.56330
1123.35 4.36290
1124.49 4.23314
1125.64 4.14215
1126.78 4.07485
1129.07 3.98245
1130.22 3.95053
1131.36 3.92676
1132.51 3.91376
1133.65 3.92637
1134.22 3.96404
1134.51 4.00640
1134.80 4.08693
1135.08 4.26106
1135.23 4.43278
1135.37 4.73924
1135.44 4.99320
1135.51 5.36574
1135.58 5.96269
1135.65 6.97087
1135.73 8.94094
1135.76 10.6960
1135.80 13.4186
1135.83 18.2721
1135.87 27.7588
1135.89 36.1768
1135.91 49.4100
1135.92 71.1046
1135.94 104.559
1135.96 165.905
1135.98 203.961
1136.00 162.789
1136.02 104.537
1136.04 77.6075
1136.05 58.8624
1136.07 36.7430
1136.10 25.3037
1136.13 18.8154
1136.15 14.8339
1136.18 12.2325
1136.23 9.16955
1136.28 7.51151
1136.33 6.51696
1136.44 5.44346
1136.54 4.89750
1136.65 4.58540
1136.75 4.39028
1136.85 4.26110
1137.06 4.10260
1137.27 4.01360
1137.68 3.92036
1138.10 3.87375
1138.51 3.84600
1139.34 3.81369
1141.00 3.77984
1142.66 3.75840
1145.98 3.72678
1149.30 3.70153
1155.93 3.65977
1162.57 3.62405
1175.84 3.56012
1189.11 3.49859
1215.66 3.36445
1222.30 3.32619
1228.93 3.28546
1235.57 3.24418
1237.23 3.23606
1238.89 3.23450
1239.72 3.24293
1240.55 3.27752
1240.96 3.33013
1241.17 3.38357
1241.38 3.48029
1241.58 3.68383
1241.69 3.88090
1241.79 4.22302
1241.89 4.91271
1241.95 5.55026
1242.00 6.59059
1242.05 8.54705
1242.08 10.2138
1242.10 12.7724
1242.13 16.9590
1242.15 24.3822
1242.18 38.8503
1242.19 51.1936
1242.20 67.4009
1242.23 107.335
1242.25 132.431
1242.27 105.282
1242.29 67.3752
1242.31 43.9508
1242.32 30.3217
1242.34 22.2185
1242.36 17.3676
1242.40 11.6328
1242.44 8.80529
1242.47 7.14718
1242.51 6.14500
1242.59 5.00220
1242.66 4.41132
1242.74 4.06715
1242.89 3.70449
1243.04 3.52488
1243.18 3.42397
1243.48 3.31889
1243.78 3.26762
1244.08 3.23822
1244.68 3.20616
1245.88 3.17662
1247.07 3.15970
1249.47 3.13422
1251.86 3.11120
1256.64 3.06469
1261.43 3.01489
1271.00 2.90067
1280.57 2.75982
1290.14 2.58045
1299.71 2.34342
1304.49 2.19426
1309.28 2.01919
1311.67 1.92274
1312.87 1.87429
1314.06 1.82917
1315.26 1.79664
1315.86 1.79381
1316.46 1.81432
1317.05 1.89437
1317.35 1.98980
1317.65 2.17592
1317.80 2.33763
1317.95 2.58496
1318.10 2.99296
1318.25 3.71823
1318.32 4.31868
1318.40 5.21335
1318.47 6.62830
1318.55 9.01245
1318.62 13.6454
1318.66 17.8174
1318.70 24.3101
1318.74 35.8885
1318.77 57.7046
1318.79 77.3614
1318.81 106.126
1318.83 154.920
1318.85 229.657
1318.87 364.098
1318.89 452.725
1318.91 364.058
1318.94 229.603
1318.95 168.643
1318.96 126.176
1318.99 77.3119
1319.02 51.5174
1319.04 36.6758
1319.07 27.4754
1319.10 21.4194
1319.15 14.2351
1319.21 10.3171
1319.26 7.95485
1319.37 5.37526
1319.48 4.07238
1319.58 3.32329
1319.69 2.85236
1319.80 2.53621
1320.02 2.14875
1320.23 1.92628
1320.45 1.78406
1320.66 1.68546
1321.10 1.55577
1321.53 1.47051
1322.39 1.35299
1323.26 1.26242
1324.12 1.18123
1325.85 1.02563
1329.31 0.707315
1332.76 0.398163
1334.49 0.289672
1335.36 0.267525
1336.22 0.283420
1337.09 0.358851
1337.52 0.428797
1337.95 0.527839
1338.38 0.663768
1338.81 0.846745
1339.25 1.09017
1339.68 1.41194
1340.11 1.83736
1340.54 2.39776
1341.41 4.13149
1341.84 5.46720
1342.27 7.29134
1342.70 9.82516
1343.13 13.4213
1343.57 18.6657
1344.00 26.5824
1344.43 39.0762
1344.86 59.9757
1345.29 97.7772
1345.51 128.702
1345.73 173.883
1345.94 242.467
1346.16 351.088
1346.37 530.178
1346.59 829.935
1346.85 1396.77
1347.11 1831.77
1347.37 1526.73
1347.63 991.891
1347.80 742.363
1347.96 566.369
1348.29 355.572
1348.62 243.697
1348.96 178.602
1349.29 137.545
1349.62 110.154
1350.28 76.7951
1350.94 57.8670
1351.61 46.0289
1352.93 32.3935
1354.26 25.0003
1355.58 20.4631
1356.91 17.4359
1358.23 15.2928
1360.88 12.4828
1363.53 10.7423
1366.18 9.56632
1368.83 8.72284
1374.13 7.59789
1379.43 6.88475
1384.72 6.39334
1390.02 6.03439
1400.62 5.54486
1411.22 5.22585
1421.82 5.00053
1432.42 4.83211
1453.61 4.59483
1474.81 4.43293
1517.20 4.21804
1559.59 4.07213
1601.99 3.95724
1644.38 3.85647
1665.57 3.80853
1676.17 3.78595
1681.47 3.77970
1682.80 3.78263
1684.12 3.79640
1684.78 3.81805
1685.45 3.88100
1685.78 3.96762
1685.94 4.05293
1686.11 4.20425
1686.27 4.51671
1686.36 4.81406
1686.44 5.31976
1686.52 6.31436
1686.56 7.22174
1686.60 8.65993
1686.65 11.2790
1686.67 13.4275
1686.69 16.4182
1686.71 21.2316
1686.73 28.6242
1686.75 41.8592
1686.77 64.0921
1686.79 101.033
1686.81 124.469
1686.83 101.035
1686.85 64.0939
1686.87 46.2982
1686.89 34.6233
1686.90 26.8386
1686.92 21.5233
1686.95 15.0802
1686.98 11.5405
1687.01 9.35855
1687.04 8.00844
1687.10 6.43824
1687.16 5.58760
1687.22 5.09136
1687.34 4.55216
1687.46 4.28402
1687.58 4.13164
1687.82 3.97425
1688.30 3.85565
1688.79 3.81198
1689.75 3.77866
1690.72 3.76539
1692.65 3.75297
1694.59 3.74572
1702.32 3.72520
1717.78 3.68848
1733.24 3.65153
1748.70 3.61377
1764.16 3.57546
1779.62 3.53827
1787.35 3.52210
1795.08 3.51166
1798.95 3.51216
1802.81 3.52400
1804.74 3.54178
1806.68 3.58688
1807.64 3.64257
1808.13 3.69435
1808.61 3.78395
1809.09 3.96448
1809.33 4.13658
1809.57 4.43700
1809.70 4.68296
1809.82 5.04871
1809.94 5.62911
1810.06 6.62525
1810.18 8.60702
1810.24 10.4438
1810.30 13.4528
1810.36 19.1210
1810.39 23.8820
1810.42 31.1846
1810.45 43.1384
1810.48 64.3936
1810.51 106.148
1810.53 142.163
1810.54 196.878
1810.56 310.336
1810.59 387.260
1810.61 307.733
1810.63 193.507
1810.65 133.250
1810.67 95.6612
1810.68 70.1040
1810.70 54.1491
1810.74 34.7937
1810.77 24.5270
1810.81 18.5094
1810.84 14.7068
1810.91 10.4222
1810.98 8.14109
1811.05 6.82416
1811.12 5.97734
1811.19 5.41699
1811.33 4.73152
1811.47 4.34974
1811.61 4.11703
1811.74 3.96570
1812.02 3.78877
1812.30 3.69565
1812.86 3.60916
1813.41 3.57555
1813.97 3.56294
1815.08 3.56417
1816.20 3.58328
1817.31 3.61573
1819.53 3.73320
1820.65 3.83695
1821.76 3.99862
1822.87 4.26778
1823.99 4.76085
1824.54 5.17742
1825.10 5.81147
1825.66 6.84839
1826.21 8.70689
1826.49 10.2526
1826.77 12.5649
1827.05 16.2609
1827.32 22.7050
1827.60 35.4590
1827.74 47.1102
1827.88 66.3657
1828.02 101.457
1828.09 131.091
1828.16 175.149
1828.23 246.564
1828.30 367.071
1828.37 593.620
1828.44 1028.25
1828.50 1652.85
1828.56 2061.79
1828.62 1642.44
1828.68 1029.22
1828.72 755.241
1828.75 564.692
1828.83 339.721
1828.91 223.196
1828.98 157.005
1829.06 116.334
1829.13 89.7346
1829.29 58.5240
1829.44 41.4658
1829.59 31.2833
1829.89 20.1558
1830.20 14.5461
1830.50 11.3486
1830.80 9.34912
1831.10 8.01603
1831.71 6.40214
1832.32 5.50177
1832.92 4.94652
1833.53 4.58073
1834.74 4.14160
1835.96 3.89702
1837.17 3.74586
1838.38 3.64517
1840.81 3.52126
1843.23 3.44848
1845.66 3.39999
1848.08 3.36449
1852.94 3.31311
1857.79 3.27420
1867.49 3.20952
1877.19 3.14891
1886.89 3.08619
1906.30 2.94265
1925.70 2.75560
1935.41 2.63384
1945.11 2.47987
1954.81 2.27019
1959.66 2.12866
1964.51 1.94388
1969.36 1.68363
1971.79 1.50511
1974.22 1.27439
1975.43 1.13231
1976.64 0.968880
1977.85 0.785609
1979.07 0.602090
1979.67 0.533390
1980.28 0.518266
1980.89 0.635909
1981.19 0.799337
1981.49 1.09420
1981.80 1.61557
1981.95 2.01145
1982.10 2.53795
1982.25 3.25441
1982.40 4.22911
1982.55 5.59588
1982.71 7.52836
1982.86 10.3746
1983.01 14.6582
1983.16 21.4953
1983.31 32.9235
1983.46 53.9142
1983.54 71.2609
1983.61 96.4365
1983.69 135.523
1983.77 198.393
1983.84 304.176
1983.92 482.522
1984.00 810.281
1984.09 1063.67
1984.18 893.715
1984.26 584.872
1984.33 423.233
1984.39 315.238
1984.45 241.002
1984.51 190.516
1984.63 127.668
1984.76 92.3065
1984.88 70.5503
1985.00 56.2098
1985.25 39.0039
1985.49 29.3835
1985.74 23.4044
1985.99 19.4003
1986.23 16.5661
1986.72 12.8735
1987.22 10.6097
1987.71 9.09821
1988.20 8.02727
1989.18 6.61510
1990.17 5.73361
1991.15 5.13119
1992.13 4.69364
1994.10 4.09599
1996.07 3.70128
2000.00 3.19290
2004.14 2.84130
2008.27 2.57045
2016.54 2.11715
2024.81 1.67579
2033.09 1.18179
2037.22 0.904869
2041.36 0.613108
2045.49 0.335389
2047.56 0.228032
2048.60 0.192396
2049.63 0.175865
2050.66 0.186429
2051.70 0.235551
2052.73 0.339783
2053.25 0.419772
2053.76 0.523503
2054.80 0.823405
2055.83 1.29612
2056.87 2.03176
2057.90 3.17755
2058.93 4.99160
2059.97 7.93896
2061.00 12.9273
2062.04 21.8872
2062.55 29.0954
2063.07 39.4310
2063.59 54.7619
2064.10 78.4686
2064.62 117.052
2065.14 183.835
2065.65 307.460
2066.17 545.248
2066.66 924.927
2067.15 1224.81
2067.64 1036.41
2068.13 683.581
2068.65 430.787
2069.18 289.048
2069.70 206.944
2070.22 156.265
2070.75 122.988
2071.27 100.085
2072.32 71.3479
2073.36 54.5698
2074.41 43.8625
2076.50 31.3015
2078.60 24.3683
2080.69 20.0619
2082.78 17.1632
2084.87 15.0952
2089.06 12.3648
2093.25 10.6587
2095.34 10.0296
2097.43 9.50765
2098.48 9.28521
2099.53 9.10289
2100.05 9.04816
2100.57 9.08212
2100.83 9.21338
2100.96 9.36407
2101.09 9.64637
2101.23 10.2456
2101.29 10.8226
2101.36 11.7958
2101.42 13.6861
2101.46 15.3522
2101.49 17.8959
2101.52 22.3510
2101.55 30.4296
2101.57 37.7495
2101.59 48.1829
2101.60 64.2860
2101.62 90.8283
2101.64 140.328
2101.66 172.906
2101.68 140.401
2101.70 90.7221
2101.72 65.6295
2101.73 49.8937
2101.75 38.8794
2101.76 31.9325
2101.80 23.3048
2101.83 18.6347
2101.86 15.8556
2101.89 14.0777
2101.95 12.0476
2102.01 10.9433
2102.07 10.2863
2102.20 9.57637
2102.32 9.21035
2102.44 8.99557
2102.69 8.75383
2103.18 8.52389
2103.68 8.39315
2104.66 8.20779
2105.65 8.05670
2107.62 7.79531
2109.60 7.56666
2117.49 6.85574
2125.39 6.35282
2133.29 5.97543
2149.08 5.43992
2164.87 5.06888
2196.45 4.55513
2228.04 4.16378
2259.62 3.78238
2275.41 3.56524
2291.20 3.30760
2307.00 2.97948
2322.79 2.52595
2330.68 2.22095
2338.58 1.83537
2342.53 1.60307
2346.47 1.34001
2348.45 1.19766
2350.42 1.05319
2351.41 0.986895
2352.40 0.944223
2352.89 0.956636
2353.38 1.06376
2353.63 1.24286
2353.75 1.42518
2353.88 1.75380
2354.00 2.43244
2354.06 3.07123
2354.12 4.13423
2354.19 6.17191
2354.22 7.94540
2354.25 10.6145
2354.28 15.2204
2354.31 23.7283
2354.32 31.1267
2354.34 41.4138
2354.35 56.8710
2354.37 81.0643
2354.39 129.810
2354.41 161.267
2354.43 129.780
2354.45 81.0218
2354.48 49.8665
2354.50 32.2325
2354.52 22.2367
2354.54 16.2030
2354.56 12.3363
2354.59 9.72934
2354.63 6.56208
2354.67 4.79442
2354.72 3.71193
2354.81 2.51178
2354.89 1.89597
2354.98 1.53737
2355.16 1.15553
2355.33 0.960867
2355.51 0.845327
2355.86 0.713010
2356.56 0.577980
2357.27 0.492577
2358.67 0.362206
2360.08 0.259848
2361.48 0.189294
2362.89 0.169695
2363.24 0.176426
2363.59 0.189155
2364.29 0.236265
2365.00 0.319939
2365.70 0.451756
2366.40 0.648245
2367.10 0.931616
2367.81 1.33328
2368.51 1.89722
2369.21 2.69055
2369.91 3.81065
2370.62 5.40834
2371.32 7.71934
2372.02 11.1457
2372.73 16.3699
2373.43 24.6476
2374.13 38.4212
2374.83 63.0078
2375.18 82.7072
2375.54 110.876
2375.89 152.524
2376.24 215.702
2376.59 314.358
2376.94 469.129
2377.44 805.341
2377.93 1072.12
2378.42 909.634
2378.91 604.498
2379.43 386.660
2379.94 262.508
2380.46 189.782
2380.98 144.501
2381.50 114.610
2382.01 93.8748
2383.05 67.6890
2384.08 52.2988
2385.11 42.4069
2387.18 30.7278
2389.25 24.2298
2391.32 20.1685
2393.39 17.4210
2395.45 15.4529
2399.59 12.8431
2403.73 11.2085
2405.79 10.6093
2407.86 10.1257
2408.90 9.93843
2409.41 9.87065
2409.93 9.83878
2410.45 9.88999
2410.71 9.99002
2410.96 10.2083
2411.22 10.7159
2411.35 11.2255
2411.48 12.1368
2411.55 12.8888
2411.61 14.0024
2411.68 15.7463
2411.74 18.6320
2411.81 24.1079
2411.84 28.7384
2411.87 35.8723
2411.90 48.0866
2411.93 69.4874
2411.97 111.984
2411.98 148.965
2412.00 203.309
2412.02 319.815
2412.05 397.510
2412.07 319.748
2412.09 203.212
2412.11 146.102
2412.13 110.016
2412.16 68.4870
2412.19 47.0316
2412.22 35.4893
2412.26 28.2794
2412.29 23.7579
2412.35 18.4414
2412.42 15.5301
2412.48 13.8144
2412.61 11.9306
2412.74 10.9732
2412.87 10.4240
2413.13 9.83461
2413.39 9.52960
2413.65 9.34353
2414.16 9.11757
2414.68 8.97245
2415.20 8.86139
2416.23 8.68451
2418.30 8.40387
2420.36 8.16874
2424.50 7.77730
2428.63 7.45906
2436.90 6.96885
2445.16 6.60778
2453.43 6.33064
2461.70 6.11302
2465.83 6.02372
2469.96 5.95283
2472.03 5.93333
2474.10 5.95226
2475.13 6.01189
2475.65 6.07999
2476.17 6.21028
2476.68 6.49504
2476.94 6.77758
2477.20 7.28586
2477.33 7.71091
2477.46 8.34465
2477.59 9.35753
2477.72 11.1234
2477.84 14.6195
2477.91 17.8473
2477.97 23.1061
2478.04 32.8741
2478.07 40.9615
2478.10 53.1651
2478.14 73.4575
2478.17 107.546
2478.20 171.148
2478.22 223.317
2478.23 299.696
2478.26 477.055
2478.29 592.806
2478.31 476.710
2478.34 299.207
2478.37 179.126
2478.40 116.112
2478.43 79.8735
2478.46 59.0458
2478.49 45.3659
2478.52 36.5215
2478.58 25.6417
2478.64 19.6206
2478.69 15.9570
2478.81 11.9257
2478.93 9.87873
2479.05 8.70055
2479.17 7.96133
2479.28 7.46731
2479.52 6.86846
2479.76 6.53265
2480.23 6.18755
2480.70 6.02100
2481.17 5.92648
2482.12 5.82520
2483.06 5.77144
2484.00 5.73704
2485.89 5.69397
2487.78 5.67211
2489.67 5.68569
2490.61 5.73558
2491.08 5.79365
2491.56 5.90643
2492.03 6.15567
2492.26 6.40576
2492.50 6.85904
2492.62 7.23661
2492.74 7.80510
2492.85 8.71671
2492.97 10.3108
2493.09 13.4748
2493.15 16.3708
2493.21 21.1632
2493.27 29.9077
2493.30 37.3852
2493.33 48.2905
2493.36 66.3314
2493.39 96.1628
2493.41 150.706
2493.44 256.581
2493.47 406.604
2493.50 508.438
2493.52 407.437
2493.55 257.703
2493.58 154.365
2493.60 99.8696
2493.63 69.5232
2493.66 51.4153
2493.69 39.5706
2493.72 31.9518
2493.77 22.7258
2493.83 17.5219
2493.89 14.4091
2494.00 10.9403
2494.11 9.17408
2494.22 8.15437
2494.34 7.51249
2494.45 7.08210
2494.68 6.55788
2494.90 6.26192
2495.35 5.95545
2495.81 5.80529
2496.26 5.71917
2497.16 5.62581
2498.97 5.54262
2500.77 5.49883
2504.39 5.44120
2508.00 5.39652
2515.23 5.32093
2522.45 5.25511
2536.91 5.14183
2551.36 5.04609
2580.26 4.89023
2609.17 4.76589
2638.08 4.66165
2666.98 4.57059
2681.43 4.52856
2695.89 4.48844
2710.34 4.45111
2717.56 4.43802
2719.37 4.43898
2721.18 4.44960
2722.08 4.46790
2722.98 4.52234
2723.44 4.59804
2723.89 4.80636
2724.11 5.08446
2724.23 5.35210
2724.34 5.82093
2724.45 6.75672
2724.51 7.62977
2724.57 9.06330
2724.62 11.7735
2724.65 14.0488
2724.68 17.5357
2724.71 23.2298
2724.73 33.3056
2724.76 52.9218
2724.78 69.6811
2724.79 95.0018
2724.81 148.520
2724.83 185.207
2724.86 148.365
2724.88 94.8030
2724.89 66.6895
2724.91 49.0071
2724.93 37.4226
2724.94 29.6219
2724.97 20.3014
2725.01 15.2530
2725.04 12.2487
2725.07 10.3278
2725.13 8.11328
2725.20 6.93862
2725.26 6.24350
2725.39 5.49797
2725.52 5.12624
2725.65 4.91757
2725.90 4.70206
2726.42 4.54122
2726.93 4.48290
2727.96 4.43973
2728.98 4.42375
2731.03 4.41188
2733.08 4.41014
2735.14 4.41894
2737.19 4.45830
2738.21 4.51927
2738.73 4.58184
2739.24 4.69733
2739.75 4.94451
2740.01 5.18959
2740.27 5.62899
2740.39 5.99682
2740.52 6.54592
2740.65 7.42504
2740.78 8.96108
2740.91 12.0105
2740.97 14.8051
2741.03 19.4387
2741.10 27.9241
2741.13 35.0633
2741.16 45.8857
2741.19 63.2853
2741.23 93.3667
2741.26 149.862
2741.29 262.486
2741.32 417.279
2741.34 521.129
2741.37 417.630
2741.40 262.962
2741.42 190.174
2741.43 140.988
2741.45 106.089
2741.47 83.4142
2741.51 54.8907
2741.55 39.1595
2741.58 29.6870
2741.62 23.5805
2741.69 16.5507
2741.77 12.7262
2741.84 10.4529
2741.91 8.99433
2741.99 8.01469
2742.14 6.78881
2742.28 6.09522
2742.43 5.65984
2742.58 5.37216
2742.87 5.02350
2743.17 4.82882
2743.76 4.62997
2744.35 4.53465
2744.94 4.48135
2746.11 4.42578
2748.47 4.38105
2750.83 4.36090
2755.55 4.33813
2760.26 4.32186
2779.13 4.26743
2798.00 4.21448
2816.86 4.15933
2854.59 4.03560
2892.32 3.87868
2930.05 3.65270
2948.92 3.48879
2967.78 3.25992
2977.22 3.10570
2986.65 2.90975
2996.08 2.65139
3005.52 2.29449
3010.23 2.05997
3014.95 1.77210
3019.67 1.41405
3024.38 0.970167
3026.74 0.717894
3029.10 0.461601
3031.46 0.248294
3032.64 0.195375
3033.23 0.196098
3033.52 0.206170
3033.81 0.224141
3034.40 0.289861
3034.99 0.407366
3035.58 0.597470
3036.17 0.888986
3036.76 1.32649
3037.35 1.97426
3037.94 2.93695
3038.53 4.37559
3039.12 6.57035
3039.71 9.99544
3040.30 15.5600
3040.89 25.0353
3041.48 42.3826
3041.77 56.5871
3042.07 77.1601
3042.36 108.159
3042.66 156.399
3042.95 233.854
3043.25 358.678
3043.64 617.802
3044.03 828.232
3044.42 709.451
3044.81 473.747
3045.05 361.873
3045.30 281.273
3045.79 182.199
3046.28 128.324
3046.76 96.4313
3047.25 75.9983
3047.74 62.1567
3048.72 44.9923
3049.70 35.0617
3050.68 28.7278
3052.64 21.2772
3054.60 17.1285
3056.55 14.5247
3058.51 12.7531
3060.47 11.4757
3064.39 9.76291
3068.30 8.66861
3072.22 7.90521
3076.14 7.33604
3083.97 6.51201
3087.88 6.17847
3091.80 5.85467
3095.72 5.49584
3097.67 5.27669
3099.63 4.99990
3100.61 4.82467
3101.59 4.60997
3102.57 4.33564
3103.55 3.96660
3104.04 3.72798
3104.53 3.43879
3105.02 3.08240
3105.51 2.64701
3106.00 2.15725
3106.24 1.95985
3106.49 1.95463
3106.61 2.14552
3106.73 2.62225
3106.85 3.67899
3106.98 5.94355
3107.04 8.00812
3107.10 11.1354
3107.16 16.0917
3107.22 24.2930
3107.28 38.6603
3107.31 50.1687
3107.34 65.7616
3107.37 88.8668
3107.40 121.638
3107.43 172.164
3107.46 244.923
3107.51 428.548
3107.56 576.079
3107.61 495.001
3107.66 335.478
3107.71 227.672
3107.76 163.108
3107.80 122.868
3107.85 96.6329
3107.94 65.7031
3108.03 49.2159
3108.13 39.1445
3108.22 32.6143
3108.40 24.7272
3108.59 20.2180
3108.77 17.3590
3108.96 15.4032
3109.14 13.9959
3109.51 12.0978
3109.88 10.8938
3110.25 10.0633
3110.62 9.45662
3111.36 8.62923
3112.09 8.09186
3112.83 7.71257
3113.57 7.43001
3115.05 7.03296
3116.53 6.76432
3119.48 6.41507
3122.44 6.18994
3125.39 6.02741
3131.30 5.79908
3137.21 5.64000
3140.16 5.57668
3143.12 5.52259
3146.07 5.47945
3149.03 5.45895
3150.50 5.47470
3151.24 5.50194
3151.98 5.56068
3152.72 5.69795
3153.09 5.83858
3153.46 6.09640
3153.83 6.64319
3154.01 7.17728
3154.20 8.11858
3154.29 8.89713
3154.38 10.0393
3154.47 11.8321
3154.57 14.8775
3154.66 20.7561
3154.70 25.8705
3154.75 33.9593
3154.80 47.7733
3154.84 73.9181
3154.87 96.3663
3154.89 130.543
3154.91 184.376
3154.93 271.192
3154.96 429.595
3154.99 536.579
3155.02 429.589
3155.05 270.710
3155.08 167.796
3155.11 109.382
3155.14 76.3381
3155.17 56.4217
3155.20 43.6731
3155.23 35.0860
3155.29 24.7917
3155.35 18.9332
3155.41 15.4038
3155.53 11.4529
3155.65 9.42100
3155.77 8.25838
3155.88 7.52605
3156.00 7.03514
3156.24 6.43627
3156.48 6.10103
3156.96 5.75485
3157.43 5.58759
3157.91 5.49276
3158.86 5.39165
3160.77 5.30426
3162.68 5.25976
3166.49 5.20279
3170.31 5.15973
3177.94 5.09194
3179.84 5.08060
3181.75 5.07916
3182.71 5.09159
3183.66 5.14120
3184.14 5.21649
3184.61 5.43228
3184.85 5.72629
3184.97 6.01053
3185.09 6.51083
3185.21 7.51425
3185.27 8.45316
3185.33 10.0005
3185.39 12.9328
3185.42 15.4549
3185.45 19.2010
3185.48 25.5626
3185.51 37.0122
3185.52 46.3424
3185.54 59.8362
3185.55 79.7317
3185.57 106.634
3185.59 169.158
3185.61 208.517
3185.63 166.476
3185.66 106.908
3185.68 65.8765
3185.70 44.4222
3185.73 31.7382
3185.75 24.4122
3185.77 19.5085
3185.80 16.3416
3185.84 12.4553
3185.89 10.2277
3185.94 8.86639
3186.03 7.37279
3186.12 6.60001
3186.22 6.15759
3186.40 5.68844
3186.59 5.45893
3186.78 5.32939
3187.15 5.19542
3187.90 5.09227
3188.65 5.05151
3190.14 5.01481
3191.63 4.99498
3197.61 4.94585
3209.57 4.87225
3221.53 4.80907
3233.48 4.75228
3257.40 4.65045
3281.31 4.55475
3305.22 4.45185
3317.18 4.39031
3329.14 4.31326
3335.12 4.26441
3341.09 4.20401
3347.07 4.12522
3353.05 4.01483
3356.04 3.93977
3359.03 3.84330
3362.02 3.71373
3365.01 3.52915
3366.50 3.40353
3368.00 3.24357
3369.49 3.03287
3370.99 2.74476
3371.73 2.55821
3372.48 2.33413
3373.23 2.06552
3373.98 1.75664
3374.35 1.60148
3374.72 1.47525
3375.10 1.44409
3375.47 1.68715
3375.66 2.05356
3375.84 2.76411
3376.03 4.13097
3376.12 5.24277
3376.22 6.82641
3376.31 9.15691
3376.40 12.6014
3376.50 17.9821
3376.59 26.5680
3376.69 41.3663
3376.78 68.1036
3376.83 90.0747
3376.87 120.808
3376.92 166.318
3376.96 230.604
3377.05 399.090
3377.13 535.471
3377.21 460.575
3377.29 310.741
3377.35 223.015
3377.41 165.809
3377.48 127.352
3377.54 101.584
3377.67 69.9044
3377.79 52.2961
3377.92 41.3395
3378.05 34.0798
3378.30 25.2994
3378.55 20.2796
3378.81 17.1185
3379.06 14.9697
3379.31 13.4342
3379.82 11.4461
3380.07 10.8167
3380.33 10.4020
3380.58 10.2755
3380.71 10.4118
3380.83 10.8260
3380.96 11.8740
3381.02 12.9178
3381.09 14.7231
3381.15 18.2217
3381.18 21.2671
3381.21 25.8338
3381.25 33.6287
3381.28 47.1698
3381.29 58.5093
3381.31 74.9785
3381.33 99.4075
3381.34 135.297
3381.36 209.838
3381.39 262.103
3381.41 209.829
3381.44 135.249
3381.45 101.200
3381.46 78.7315
3381.49 50.7678
3381.52 36.1185
3381.55 27.9548
3381.58 22.6871
3381.61 19.3271
3381.66 15.2291
3381.72 12.9691
3381.78 11.5867
3381.89 10.0353
3382.01 9.20447
3382.12 8.69881
3382.35 8.10068
3382.58 7.74193
3382.81 7.49131
3383.26 7.13800
3384.18 6.68376
3385.09 6.37812
3386.01 6.15051
3386.92 5.97240
3388.75 5.70974
3390.57 5.52413
3392.40 5.38556
3396.06 5.19166
3399.71 5.06154
3403.37 4.96752
3410.68 4.83907
3417.99 4.75369
3425.30 4.69141
3439.92 4.60352
3454.54 4.54149
3461.85 4.51624
3469.16 4.49406
3476.48 4.47539
3483.79 4.46378
3487.44 4.46607
3491.10 4.49026
3492.93 4.53183
3493.84 4.57533
3494.75 4.65596
3495.67 4.82886
3496.12 4.99970
3496.58 5.30685
3497.04 5.94442
3497.27 6.55944
3497.49 7.63105
3497.72 9.77626
3497.84 11.7434
3497.95 15.0194
3498.07 21.0623
3498.12 26.1866
3498.18 34.0189
3498.24 46.7596
3498.29 69.1714
3498.35 112.391
3498.38 149.726
3498.41 202.358
3498.45 321.808
3498.50 399.999
3498.54 321.727
3498.59 202.203
3498.62 140.636
3498.66 101.341
3498.69 75.8061
3498.73 58.7272
3498.79 38.2557
3498.86 27.4489
3498.93 20.9664
3499.00 16.9033
3499.14 12.2244
3499.27 9.73094
3499.41 8.26077
3499.55 7.32302
3499.68 6.69278
3499.96 5.91370
3500.23 5.47411
3500.78 5.01999
3501.32 4.80178
3501.87 4.68057
3502.96 4.55666
3505.15 4.46343
3507.33 4.42717
3511.71 4.39472
3516.08 4.37689
3524.82 4.35157
3533.57 4.33015
3568.55 4.25025
3586.04 4.20914
3603.53 4.16586
3612.27 4.14379
3621.02 4.12393
3625.39 4.11838
3629.76 4.12665
3631.95 4.15004
3634.13 4.22819
3635.23 4.34140
3635.77 4.45510
3636.32 4.66139
3636.87 5.09651
3637.14 5.52022
3637.41 6.27261
3637.55 6.89218
3637.69 7.81454
3637.82 9.27385
3637.96 11.7577
3638.10 16.5883
3638.17 20.8563
3638.23 27.7010
3638.30 39.8696
3638.37 63.4541
3638.40 84.4513
3638.44 117.606
3638.47 172.389
3638.51 264.403
3638.54 420.328
3638.58 524.159
3638.62 420.167
3638.66 263.811
3638.69 178.481
3638.72 125.089
3638.75 91.5253
3638.78 70.2299
3638.84 44.9590
3638.90 31.6227
3638.96 23.8192
3639.03 18.8878
3639.15 13.2648
3639.27 10.2947
3639.39 8.56603
3639.51 7.46495
3639.64 6.72117
3639.88 5.80760
3640.13 5.29357
3640.61 4.76355
3641.10 4.50923
3641.59 4.36807
3642.57 4.22368
3643.55 4.15407
3644.52 4.11444
3646.48 4.07122
3650.39 4.03085
3654.29 4.00748
3658.20 3.99086
3662.11 3.98502
3664.07 3.99575
3666.02 4.04538
3667.00 4.12312
3667.97 4.34888
3668.46 4.65877
3668.71 4.96105
3668.95 5.49768
3669.20 6.59577
3669.32 7.62649
3669.44 9.38636
3669.56 12.7579
3669.62 15.7328
3669.68 20.4703
3669.75 28.6418
3669.81 44.3473
3669.84 58.3260
3669.87 79.2458
3669.90 114.038
3669.93 169.199
3669.97 269.530
3670.00 334.494
3670.04 269.577
3670.07 169.253
3670.11 109.909
3670.14 75.1080
3670.17 53.6734
3670.21 40.6380
3670.27 25.8757
3670.34 18.4974
3670.41 14.2189
3670.47 11.5687
3670.61 8.61875
3670.74 7.08238
3670.87 6.19486
3671.14 5.25178
3671.41 4.78949
3671.68 4.52881
3672.21 4.25994
3673.28 4.05698
3674.34 3.97969
3676.48 3.91448
3678.62 3.88191
3682.89 3.83850
3687.16 3.80170
3691.43 3.76715
3695.70 3.74234
3697.83 3.74722
3698.90 3.76426
3699.97 3.80608
3701.04 3.91078
3701.57 4.02154
3702.10 4.22738
3702.64 4.66822
3702.91 5.10101
3703.17 5.87137
3703.31 6.50596
3703.44 7.44121
3703.57 8.92598
3703.71 11.4407
3703.84 16.2908
3703.91 20.5733
3703.97 27.2658
3704.04 38.9286
3704.11 60.8094
3704.14 80.3454
3704.17 109.491
3704.21 155.622
3704.24 229.217
3704.28 364.822
3704.32 455.352
3704.36 365.036
3704.40 229.503
3704.44 142.636
3704.49 93.9921
3704.53 65.9535
3704.57 48.8166
3704.61 37.7331
3704.65 30.2089
3704.73 21.0036
3704.81 15.8318
3704.90 12.6519
3705.06 9.11709
3705.22 7.30362
3705.39 6.25206
3705.55 5.58832
3705.71 5.14469
3706.04 4.59947
3706.37 4.29093
3707.03 3.96962
3707.68 3.81015
3708.34 3.71653
3709.65 3.60887
3712.27 3.49381
3714.89 3.40991
3717.51 3.32787
3720.14 3.23821
3725.38 3.01182
3728.00 2.86077
3730.62 2.66976
3733.25 2.41988
3735.87 2.07991
3737.18 1.86113
3738.49 1.59912
3739.80 1.28696
3741.11 0.932100
3741.77 0.757360
3742.42 0.620969
3743.08 0.602954
3743.41 0.695646
3743.73 0.919866
3744.06 1.37364
3744.39 2.23910
3744.55 2.92894
3744.72 3.88448
3744.88 5.22173
3745.04 7.10726
3745.21 9.85239
3745.37 13.9320
3745.54 20.1975
3745.70 30.2317
3745.86 47.1796
3746.03 77.7638
3746.11 102.368
3746.19 137.277
3746.27 187.420
3746.36 258.127
3746.50 447.525
3746.65 604.902
3746.79 522.096
3746.94 351.098
3747.06 250.949
3747.17 185.084
3747.29 141.793
3747.41 112.676
3747.64 77.1443
3747.87 57.3274
3748.11 45.0884
3748.34 37.0206
3748.81 27.2270
3749.27 21.6352
3749.74 18.0995
3750.20 15.6858
3750.67 13.9464
3751.60 11.6248
3752.54 10.1609
3753.47 9.16007
3754.40 8.43598
3756.27 7.45995
3758.13 6.83545
3760.00 6.40181
3761.86 6.08350
3765.59 5.64657
3769.33 5.35984
3773.06 5.15609
3776.79 5.00294
3784.25 4.78551
3787.98 4.70479
3791.71 4.63689
3795.44 4.58041
3799.17 4.53954
3801.04 4.53344
3802.90 4.56401
3803.84 4.62857
3804.77 4.83188
3805.24 5.12134
3805.47 5.40873
3805.70 5.92688
3805.93 7.00355
3806.05 8.04404
3806.17 9.84524
3806.28 13.4504
3806.34 16.7247
3806.40 22.1357
3806.46 32.2324
3806.49 40.6003
3806.52 53.2493
3806.55 73.5089
3806.58 108.352
3806.60 173.321
3806.63 304.243
3806.66 482.626
3806.68 605.013
3806.71 482.962
3806.73 304.708
3806.75 216.503
3806.77 156.557
3806.79 117.162
3806.80 90.5881
3806.84 58.7979
3806.88 41.5624
3806.91 31.2998
3806.95 24.7351
3807.02 17.2355
3807.09 13.1818
3807.16 10.7831
3807.24 9.24877
3807.31 8.22084
3807.45 6.93665
3807.59 6.21146
3807.88 5.45587
3808.17 5.09107
3808.45 4.88662
3809.03 4.67581
3810.17 4.51286
3811.32 4.44655
3813.62 4.38323
3815.91 4.34611
3820.50 4.29186
3825.09 4.24633
3834.27 4.16400
3838.86 4.12633
3841.15 4.11557
3842.30 4.14172
3842.87 4.27215
3843.02 4.40147
3843.16 4.73381
3843.23 5.14347
3843.30 6.07750
3843.34 7.09261
3843.37 9.08231
3843.41 13.6454
3843.43 18.2454
3843.44 25.4961
3843.47 38.6607
3843.49 47.0206
3843.51 38.7228
3843.53 25.5751
3843.54 19.7100
3843.55 15.4712
3843.58 10.7896
3843.61 8.35681
3843.64 7.05636
3843.69 5.73088
3843.75 5.12414
3843.86 4.60431
3843.96 4.39517
3844.18 4.22833
3844.40 4.16403
3845.28 4.09216
3847.03 4.05944
3850.54 4.02380
3857.55 3.95859
3871.57 3.81625
3885.60 3.64068
3899.62 3.40317
3906.63 3.24502
3913.64 3.04487
3920.66 2.78133
3927.67 2.41702
3931.17 2.17727
3934.68 1.88242
3938.18 1.51486
3941.69 1.05732
3943.44 0.795731
3945.20 0.527225
3946.95 0.296849
3947.83 0.232052
3948.70 0.244864
3949.58 0.404829
3950.02 0.578159
3950.45 0.847939
3950.89 1.25604
3951.33 1.86191
3951.77 2.76065
3952.21 4.10227
3952.65 6.13988
3953.08 9.29176
3953.52 14.3378
3953.96 22.7829
3954.40 37.7842
3954.62 49.7188
3954.84 66.6107
3955.06 91.1331
3955.27 127.654
3955.49 183.157
3955.71 267.564
3956.05 466.780
3956.39 633.117
3956.72 547.880
3957.06 369.843
3957.27 286.724
3957.47 225.833
3957.88 149.576
3958.29 107.137
3958.70 81.5559
3959.11 64.9723
3959.52 53.6422
3960.33 39.4632
3961.15 31.1592
3961.97 25.8251
3963.61 19.4924
3965.24 15.9301
3966.88 13.6807
3968.52 12.1422
3970.15 11.0304
3973.43 9.53782
3976.70 8.59094
3978.34 8.24167
3979.97 7.96106
3980.79 7.85532
3981.61 7.80922
3982.02 7.85612
3982.43 8.08776
3982.63 8.44321
3982.84 9.41770
3982.94 10.6802
3982.99 11.8334
3983.04 13.7481
3983.09 17.2578
3983.12 20.2830
3983.14 24.6940
3983.17 32.0882
3983.20 44.3952
3983.22 68.5717
3983.23 88.7948
3983.25 116.498
3983.27 182.394
3983.29 225.148
3983.31 182.276
3983.33 116.317
3983.36 71.0396
3983.38 47.6891
3983.40 34.2734
3983.43 26.6835
3983.45 21.6778
3983.47 18.4807
3983.52 14.6001
3983.57 12.3994
3983.61 11.0864
3983.70 9.61650
3983.80 8.85861
3983.89 8.42354
3984.08 7.95772
3984.45 7.57852
3984.82 7.41397
3985.57 7.24353
3986.32 7.13510
3987.81 6.97077
3989.30 6.83516
3992.28 6.60851
3995.27 6.42189
4001.24 6.12928
4007.20 5.90944
4013.17 5.73793
4019.14 5.60080
4025.11 5.49300
4028.09 5.46691
4028.84 5.47923
4029.58 5.53506
4029.96 5.62102
4030.33 5.86563
4030.52 6.19446
4030.70 7.05174
4030.79 8.11837
4030.84 9.09592
4030.89 10.6594
4030.93 13.5265
4030.96 15.8404
4030.98 19.2589
4031.00 24.8607
4031.03 33.8096
4031.05 49.5521
4031.07 79.0467
4031.10 123.804
4031.12 152.777
4031.14 123.818
4031.16 79.0631
4031.18 55.4831
4031.20 40.8758
4031.21 31.4457
4031.23 25.1684
4031.27 17.6028
4031.30 13.6983
4031.34 11.3327
4031.37 9.87628
4031.44 8.19780
4031.51 7.29725
4031.57 6.77321
4031.71 6.20625
4031.99 5.76327
4032.26 5.59636
4032.81 5.46702
4033.36 5.41551
4035.55 5.34246
4039.94 5.27679
4044.33 5.22554
4048.72 5.18025
4057.50 5.10191
4066.28 5.03606
4075.06 4.98003
4083.83 4.93302
4092.61 4.90259
4094.81 4.90559
4097.00 4.93187
4098.10 4.97598
4099.20 5.10559
4099.75 5.28400
4100.02 5.45841
4100.29 5.76909
4100.57 6.40880
4100.71 7.01471
4100.84 8.06044
4100.98 10.1000
4101.05 11.9526
4101.12 14.9236
4101.19 20.3014
4101.22 24.6454
4101.25 31.0387
4101.29 41.2826
4101.32 57.6879
4101.36 86.2253
4101.39 138.825
4101.43 218.041
4101.46 272.212
4101.49 217.783
4101.53 138.231
4101.56 90.4080
4101.59 62.6238
4101.62 45.3443
4101.65 34.8135
4101.71 22.8078
4101.77 16.7144
4101.83 13.2381
4101.89 11.0795
4102.01 8.65971
4102.14 7.40998
4102.26 6.68322
4102.50 5.91610
4102.75 5.54133
4102.99 5.33082
4103.48 5.11535
4104.45 4.95473
4105.43 4.89539
4107.38 4.84815
4109.33 4.82699
4117.13 4.78578
4132.74 4.73262
4140.54 4.71060
4148.34 4.69220
4156.15 4.68590
4158.10 4.69341
4160.05 4.72049
4161.02 4.75943
4162.00 4.86709
4162.49 5.01135
4162.97 5.39911
4163.22 5.90894
4163.34 6.39580
4163.46 7.24375
4163.58 8.92607
4163.65 10.4712
4163.71 13.0447
4163.77 17.7991
4163.80 21.9222
4163.83 28.0394
4163.86 38.3888
4163.89 56.1399
4163.92 90.4143
4163.93 119.490
4163.95 164.088
4163.97 257.453
4164.00 322.339
4164.02 256.696
4164.04 162.897
4164.06 111.518
4164.08 78.9182
4164.10 58.3526
4164.12 45.5003
4164.16 29.6595
4164.19 21.5374
4164.23 16.6596
4164.27 13.6650
4164.34 10.2360
4164.42 8.41226
4164.49 7.35686
4164.64 6.22615
4164.94 5.36077
4165.24 5.04366
4165.83 4.81284
4166.43 4.73195
4167.62 4.67501
4168.81 4.65574
4173.58 4.64488
4175.97 4.66052
4178.35 4.71993
4179.54 4.80932
4180.14 4.90030
4180.74 5.06736
4181.33 5.42239
4181.63 5.77073
4181.93 6.39175
4182.08 6.90207
4182.23 7.66139
4182.38 8.86070
4182.52 10.9146
4182.67 14.8635
4182.75 18.3875
4182.82 23.9393
4182.90 33.6854
4182.97 52.2511
4183.01 69.0038
4183.05 94.4189
4183.08 135.383
4183.12 202.144
4183.16 320.994
4183.21 400.345
4183.25 321.469
4183.30 202.912
4183.33 144.964
4183.36 107.382
4183.39 82.0381
4183.42 64.5687
4183.48 42.9151
4183.54 31.1391
4183.60 23.9082
4183.66 19.3148
4183.78 13.9095
4183.90 11.0117
4184.02 9.28343
4184.14 8.17145
4184.26 7.41427
4184.51 6.47863
4184.75 5.94411
4185.23 5.38717
4185.72 5.11713
4186.20 4.96550
4187.17 4.80924
4189.10 4.69031
4191.04 4.64433
4194.91 4.60525
4198.78 4.58629
4206.52 4.56392
4214.26 4.54949
4222.00 4.54237
4225.87 4.54425
4229.74 4.55475
4233.61 4.58685
4235.55 4.62303
4237.48 4.69258
4239.42 4.84579
4240.38 5.00003
4241.35 5.28105
4241.84 5.51725
4242.32 5.87612
4242.80 6.45931
4243.29 7.49727
4243.53 8.35336
4243.77 9.63088
4244.01 11.6581
4244.25 15.1565
4244.50 21.9708
4244.62 28.0906
4244.74 38.0206
4244.86 55.6260
4244.92 70.0960
4244.98 90.9669
4245.04 123.590
4245.10 175.619
4245.16 264.338
4245.22 420.014
4245.28 671.202
4245.35 835.927
4245.41 671.437
4245.47 420.319
4245.53 264.627
4245.59 175.874
4245.65 123.144
4245.71 91.1609
4245.77 69.9839
4245.83 55.7786
4245.95 38.2515
4246.07 28.2582
4246.20 22.1007
4246.44 15.2640
4246.68 11.7343
4246.92 9.69518
4247.16 8.40316
4247.40 7.53992
4247.89 6.48713
4248.37 5.89535
4248.85 5.52981
4249.33 5.28815
4250.30 4.99818
4251.27 4.83696
4252.23 4.73777
4253.20 4.67216
4255.13 4.59254
4257.06 4.54708
4260.92 4.49750
4264.79 4.47013
4268.65 4.45161
4276.38 4.42538
4284.10 4.40578
4291.83 4.39322
4295.69 4.39506
4299.55 4.42059
4301.49 4.46642
4302.45 4.51529
4303.42 4.60702
4304.38 4.80601
4304.87 5.00404
4305.35 5.36161
4305.59 5.65964
4305.83 6.10610
4306.07 6.82472
4306.31 8.07594
4306.56 10.5717
4306.68 12.8617
4306.80 16.6209
4306.92 23.5473
4306.98 29.3137
4307.04 38.0138
4307.10 52.2079
4307.16 76.2438
4307.22 120.855
4307.28 208.576
4307.33 331.083
4307.38 413.517
4307.44 331.445
4307.49 209.160
4307.53 135.730
4307.58 92.6670
4307.63 66.3107
4307.68 50.1003
4307.77 31.7950
4307.87 22.5177
4307.96 17.2263
4308.06 13.9394
4308.25 10.2503
4308.44 8.34051
4308.63 7.22688
4308.82 6.52144
4309.01 6.04651
4309.39 5.46626
4309.77 5.13831
4310.53 4.79937
4311.29 4.63571
4312.05 4.54359
4313.57 4.44741
4316.60 4.37002
4319.64 4.33531
4325.72 4.29547
4331.80 4.26493
4343.96 4.20239
4356.11 4.12137
4368.27 3.99820
4374.35 3.90502
4380.43 3.77077
4383.47 3.67793
4386.50 3.55752
4389.54 3.39465
4392.58 3.16170
4394.10 3.00308
4395.62 2.80142
4397.14 2.53694
4398.66 2.17845
4399.42 1.94917
4400.18 1.67715
4400.94 1.35855
4401.70 1.01013
4402.46 0.744765
4402.84 0.789179
4403.03 0.933184
4403.22 1.23085
4403.41 1.78846
4403.60 2.80221
4403.79 4.65782
4403.88 6.12809
4403.98 8.17780
4404.07 11.0876
4404.17 15.3138
4404.26 21.6299
4404.36 31.4075
4404.45 47.2079
4404.55 74.0591
4404.64 122.122
4404.74 209.222
4404.84 367.423
4404.94 499.538
4405.04 433.457
4405.14 294.192
4405.22 216.099
4405.30 163.013
4405.37 127.104
4405.45 102.495
4405.60 71.4867
4405.75 53.9146
4405.90 42.8577
4406.05 35.5008
4406.36 26.4609
4406.66 21.2324
4406.96 17.8949
4407.26 15.6050
4407.57 13.9532
4408.17 11.7330
4408.78 10.3286
4409.38 9.36486
4409.99 8.66521
4411.20 7.72044
4412.41 7.11527
4413.62 6.69494
4414.83 6.38682
4417.25 5.96510
4419.67 5.69047
4422.09 5.49729
4424.51 5.35391
4429.36 5.15493
4434.20 5.02303
4439.04 4.92880
4443.88 4.85786
4453.57 4.75776
4458.41 4.72125
4463.25 4.69135
4468.10 4.66802
4472.94 4.65572
4475.36 4.66119
4477.78 4.69762
4478.99 4.75773
4480.20 4.93574
4480.81 5.18386
4481.11 5.42921
4481.41 5.86844
4481.71 6.78128
4481.87 7.65378
4482.02 9.17254
4482.17 12.1995
4482.24 14.9706
4482.32 19.4814
4482.40 27.7970
4482.43 34.7678
4482.47 44.9532
4482.51 61.5637
4482.55 89.9816
4482.58 142.517
4482.62 243.367
4482.66 387.528
4482.69 482.601
4482.72 387.741
4482.75 243.649
4482.79 140.911
4482.83 89.2289
4482.87 60.6567
4482.91 44.4495
4482.95 34.0438
4482.99 27.3330
4483.06 19.2004
4483.14 14.7425
4483.22 12.0462
4483.37 9.09464
4483.52 7.60229
4483.68 6.74526
4483.99 5.85153
4484.29 5.41622
4484.60 5.17307
4485.22 4.92324
4486.45 4.73648
4487.68 4.66671
4490.14 4.61081
4492.60 4.58603
4497.52 4.55921
4502.44 4.54154
4512.28 4.51490
4517.20 4.50507
4519.66 4.50643
4520.89 4.53067
4521.50 4.63044
4521.66 4.72767
4521.81 4.98016
4521.89 5.29162
4521.96 6.02396
4522.00 6.83898
4522.04 8.42481
4522.08 12.1425
4522.10 15.9909
4522.12 22.6947
4522.14 33.8829
4522.16 40.9856
4522.18 33.9304
4522.20 22.7552
4522.22 15.0537
4522.25 11.0865
4522.29 7.60102
4522.34 6.26728
4522.39 5.64300
4522.48 5.08238
4522.57 4.84980
4522.94 4.59196
4523.69 4.51681
4525.18 4.49383
4528.17 4.48269
4534.13 4.47046
4540.10 4.46180
4543.09 4.46547
4544.58 4.49801
4545.32 4.63016
4545.51 4.76053
4545.70 5.10213
4545.79 5.53060
4545.88 6.56363
4545.93 7.74591
4545.98 10.1528
4546.00 12.5517
4546.02 16.4659
4546.05 23.5557
4546.07 37.1125
4546.09 56.6113
4546.11 69.7905
4546.13 56.6767
4546.15 37.1951
4546.17 27.8995
4546.18 21.6872
4546.21 14.3826
4546.24 10.7823
4546.27 8.80336
4546.33 6.84922
4546.38 5.97197
4546.50 5.21258
4546.61 4.90616
4546.84 4.66559
4547.07 4.57464
4547.99 4.48024
4549.84 4.45238
4553.52 4.44004
4560.89 4.42728
4575.62 4.40633
4605.09 4.36944
4634.57 4.33680
4649.30 4.32559
4656.67 4.33653
4658.51 4.35336
4660.35 4.40358
4661.27 4.47387
4662.19 4.67055
4662.66 4.93775
4662.89 5.19820
4663.12 5.66157
4663.35 6.60909
4663.46 7.50625
4663.58 9.04897
4663.69 12.0383
4663.75 14.7377
4663.81 19.0179
4663.86 26.6866
4663.92 41.6264
4663.95 55.3299
4663.98 77.3710
4664.01 114.700
4664.04 178.439
4664.07 281.530
4664.10 352.346
4664.13 281.567
4664.16 178.473
4664.19 118.141
4664.21 81.4159
4664.24 59.0555
4664.27 45.2614
4664.32 29.0042
4664.37 20.8111
4664.43 16.0062
4664.48 13.0620
4664.59 9.70409
4664.69 7.95985
4664.80 6.94129
4665.01 5.86494
4665.23 5.33357
4665.44 5.03552
4665.87 4.72860
4666.72 4.50182
4667.58 4.42143
4669.29 4.36727
4670.99 4.35789
4672.70 4.37595
4674.41 4.45380
4675.26 4.56878
4676.12 4.89358
4676.55 5.33220
4676.76 5.75835
4676.97 6.50511
4677.19 8.01237
4677.29 9.41278
4677.40 11.7404
4677.51 16.1245
4677.56 19.9378
4677.61 25.7382
4677.67 35.5486
4677.72 52.9675
4677.75 67.5052
4677.77 87.7974
4677.80 119.039
4677.83 165.200
4677.87 262.238
4677.91 326.601
4677.94 262.476
4677.98 165.550
4678.02 107.541
4678.05 74.0153
4678.09 53.2626
4678.13 40.5511
4678.20 26.0892
4678.27 18.7391
4678.34 14.5396
4678.41 11.9282
4678.55 9.00877
4678.69 7.48279
4678.83 6.59830
4679.12 5.65597
4679.40 5.19277
4679.68 4.93118
4680.25 4.66142
4681.38 4.45929
4682.51 4.38485
4684.78 4.32794
4687.04 4.30539
4691.57 4.28506
4696.10 4.27405
4714.22 4.24642
4732.34 4.22798
4736.87 4.22938
4741.40 4.24585
4743.67 4.27490
4745.93 4.36323
4747.06 4.48782
4747.63 4.61179
4748.20 4.83626
4748.76 5.30693
4749.05 5.76435
4749.33 6.57378
4749.47 7.23782
4749.61 8.21419
4749.75 9.75899
4749.89 12.3674
4750.04 17.3727
4750.11 21.7723
4750.18 28.6249
4750.25 40.4880
4750.32 63.0239
4750.36 82.7775
4750.39 112.104
4750.43 158.171
4750.46 232.348
4750.51 370.141
4750.55 460.684
4750.59 370.196
4750.64 232.395
4750.67 166.715
4750.70 123.200
4750.73 93.8267
4750.76 73.5703
4750.82 48.4580
4750.88 34.8049
4750.94 26.4262
4751.00 21.1075
4751.12 14.8559
4751.24 11.5102
4751.36 9.51838
4751.48 8.23916
4751.61 7.36969
4751.85 6.29811
4752.09 5.68820
4752.57 5.05690
4753.06 4.75232
4753.54 4.58266
4754.51 4.40980
4756.44 4.28123
4758.38 4.23324
4762.25 4.19419
4766.11 4.17624
4769.98 4.16559
4773.85 4.16293
4775.79 4.17069
4777.72 4.20482
4778.69 4.25888
4779.66 4.41920
4780.14 4.64395
4780.38 4.86695
4780.62 5.26643
4780.87 6.09717
4780.99 6.89303
4781.11 8.27647
4781.23 10.9971
4781.29 13.4881
4781.35 17.4986
4781.41 24.8252
4781.44 30.7700
4781.47 39.5630
4781.50 53.2289
4781.53 75.7398
4781.56 115.151
4781.59 186.654
4781.62 298.299
4781.65 369.976
4781.68 299.042
4781.71 187.700
4781.74 117.939
4781.77 77.6407
4781.80 54.6134
4781.83 41.0035
4781.86 31.8810
4781.89 25.7201
4781.95 18.3136
4782.01 14.0855
4782.07 11.5320
4782.18 8.68166
4782.30 7.20341
4782.42 6.34663
4782.66 5.44537
4782.90 5.00143
4783.13 4.75178
4783.61 4.49299
4784.56 4.29740
4785.51 4.22387
4787.41 4.16529
4789.31 4.14005
4796.90 4.09558
4804.50 4.06370
4812.10 4.02914
4819.70 3.98740
4827.29 3.93356
4831.09 3.89982
4834.89 3.85997
4838.69 3.81607
4840.59 3.81353
4841.54 3.90496
4841.78 4.00841
4842.01 4.29202
4842.13 4.66191
4842.25 5.57979
4842.31 6.68178
4842.37 9.07465
4842.40 11.5451
4842.43 15.8732
4842.46 24.9416
4842.47 33.0521
4842.49 44.5436
4842.51 69.5338
4842.53 85.5386
4842.55 69.6675
4842.57 44.7150
4842.60 27.4382
4842.62 18.5621
4842.65 13.7042
4842.67 10.8398
4842.72 7.82928
4842.77 6.38254
4842.86 5.08934
4842.96 4.55788
4843.15 4.12763
4843.35 3.96048
4843.73 3.82851
4844.12 3.77464
4845.66 3.69256
4848.74 3.59264
4851.83 3.47162
4854.91 3.30020
4856.45 3.18289
4858.00 3.03254
4859.54 2.83285
4861.08 2.55575
4861.85 2.37365
4862.62 2.15067
4863.39 1.87523
4864.16 1.53879
4864.94 1.16876
4865.32 1.03041
4865.71 1.05948
4866.09 1.65446
4866.29 2.54182
4866.48 4.40105
4866.57 6.05669
4866.67 8.54453
4866.77 12.4808
4866.86 18.8291
4866.96 29.8495
4867.06 49.8573
4867.10 66.1121
4867.15 89.3429
4867.20 122.975
4867.25 171.515
4867.33 301.106
4867.42 411.825
4867.50 359.131
4867.59 243.941
4867.65 180.011
4867.71 136.900
4867.78 107.443
4867.84 86.8627
4867.96 60.9469
4868.09 46.1975
4868.21 36.8676
4868.34 30.6523
4868.58 22.9700
4868.83 18.5338
4869.08 15.6965
4869.33 13.7473
4869.58 12.3356
4870.08 10.4432
4870.58 9.24294
4871.07 8.41901
4871.57 7.82169
4872.57 7.01348
4873.56 6.49550
4874.56 6.13544
4875.55 5.87140
4877.55 5.50965
4879.54 5.27383
4881.53 5.10772
4883.52 4.98423
4887.50 4.81237
4891.48 4.69788
4895.47 4.61553
4899.45 4.55302
4907.41 4.46322
4915.38 4.40083
4923.34 4.35775
4927.33 4.35945
4928.32 4.37794
4929.32 4.43947
4929.81 4.52857
4930.31 4.77947
4930.56 5.11738
4930.69 5.44552
4930.81 6.01682
4930.94 7.16833
4931.00 8.22289
4931.06 9.98024
4931.12 13.2228
4931.15 15.9723
4931.18 20.1737
4931.21 27.0045
4931.25 39.0110
4931.28 62.1426
4931.29 82.4671
4931.31 111.351
4931.33 174.658
4931.36 218.547
4931.38 174.863
4931.41 111.617
4931.43 70.3411
4931.46 47.0272
4931.48 33.6753
4931.51 25.5542
4931.53 20.3206
4931.56 16.7773
4931.61 12.5174
4931.66 10.0693
4931.70 8.59314
4931.80 6.92977
4931.90 6.06931
4932.00 5.57634
4932.20 5.05577
4932.60 4.65621
4932.99 4.50759
4933.79 4.39518
4934.58 4.35230
4937.76 4.29961
4944.11 4.26455
4956.81 4.21766
4969.51 4.17684
4975.87 4.15837
4979.04 4.15456
4980.63 4.17427
4981.42 4.26650
4981.62 4.35913
4981.82 4.60399
4981.92 4.91365
4982.02 5.66832
4982.07 6.54246
4982.12 8.35473
4982.14 10.1445
4982.17 13.2584
4982.19 19.1558
4982.22 30.5790
4982.24 46.3293
4982.26 57.1341
4982.28 46.3882
4982.30 30.6528
4982.32 21.7527
4982.33 16.3721
4982.37 10.6796
4982.40 8.13010
4982.44 6.83597
4982.51 5.58508
4982.58 5.03569
4982.72 4.57686
4982.85 4.39739
4983.41 4.20510
4984.51 4.14890
4986.73 4.12776
4991.15 4.10979
5000.00 4.07942
5014.37 4.02726
5028.74 3.96674
5043.11 3.89211
5057.47 3.79373
5071.84 3.65239
5079.03 3.55347
5086.21 3.42251
5093.40 3.23918
5096.99 3.11643
5100.58 2.96206
5104.17 2.76215
5107.76 2.49469
5109.56 2.32673
5111.36 2.13662
5112.25 2.04424
5113.15 1.99426
5113.60 2.03895
5114.05 2.28666
5114.28 2.67939
5114.39 3.07188
5114.50 3.76879
5114.61 5.17896
5114.67 6.46286
5114.72 8.58239
5114.78 12.4291
5114.81 15.6323
5114.84 20.4362
5114.86 28.0453
5114.89 40.9239
5114.92 64.3871
5114.95 111.144
5114.97 177.109
5115.00 220.892
5115.02 177.199
5115.05 111.251
5115.07 78.7395
5115.09 57.1309
5115.10 42.8552
5115.12 33.6312
5115.16 21.7844
5115.19 15.4812
5115.23 11.5889
5115.26 9.15558
5115.33 6.30982
5115.40 4.75837
5115.47 3.84233
5115.61 2.83142
5115.90 2.00197
5116.18 1.64932
5116.74 1.29874
5117.31 1.07926
5118.44 0.729279
5119.57 0.459441
5120.13 0.404158
5120.69 0.485794
5121.26 0.866084
5121.54 1.27203
5121.82 1.93107
5122.11 3.00052
5122.39 4.74310
5122.67 7.66498
5122.95 12.7725
5123.09 16.7482
5123.23 22.2600
5123.38 30.0754
5123.52 41.4507
5123.66 58.5026
5123.80 84.8734
5123.94 126.771
5124.08 193.713
5124.28 341.371
5124.47 467.126
5124.67 408.187
5124.87 278.198
5125.02 203.324
5125.17 153.054
5125.32 119.198
5125.47 95.8153
5125.77 66.8140
5126.07 50.3904
5126.37 40.1111
5126.67 33.2546
5127.27 24.8361
5127.87 19.9724
5128.47 16.8672
5129.07 14.7290
5129.67 13.1821
5130.87 11.1035
5132.07 9.78261
5133.27 8.87416
5134.48 8.21320
5136.88 7.31830
5139.28 6.74251
5141.68 6.34128
5144.08 6.04568
5148.89 5.63862
5153.69 5.37061
5158.50 5.17956
5163.30 5.03549
5172.91 4.82948
5182.52 4.68493
5201.74 4.47940
5220.96 4.31242
5230.56 4.22631
5240.17 4.12876
5249.78 4.00809
5254.59 3.93304
5259.39 3.84286
5264.20 3.73131
5269.00 3.59140
5271.40 3.51246
5273.80 3.44709
5275.00 3.45025
5276.21 3.57303
5276.81 3.80197
5277.11 4.04473
5277.41 4.49448
5277.71 5.44718
5277.86 6.36393
5278.01 7.96154
5278.16 11.1081
5278.23 13.9622
5278.31 18.6392
5278.38 27.0506
5278.42 34.1077
5278.46 44.3282
5278.50 60.7894
5278.53 87.4916
5278.57 136.382
5278.61 224.888
5278.64 359.706
5278.68 446.984
5278.71 359.765
5278.75 224.930
5278.78 151.185
5278.81 104.516
5278.84 75.6619
5278.87 57.6054
5278.93 36.4353
5278.99 25.4002
5279.04 18.9934
5279.10 14.9650
5279.22 10.3910
5279.34 7.98086
5279.46 6.57816
5279.69 5.07424
5279.93 4.31902
5280.17 3.88406
5280.64 3.41119
5281.59 2.98799
5282.53 2.75206
5284.42 2.36907
5286.31 1.93718
5287.26 1.67526
5288.20 1.37306
5289.15 1.02983
5290.09 0.675283
5291.04 0.464757
5291.51 0.598466
5291.75 0.818780
5291.99 1.22647
5292.22 1.94730
5292.46 3.19574
5292.58 4.14641
5292.70 5.40678
5292.81 7.10705
5292.93 9.43080
5293.05 12.6912
5293.17 17.2799
5293.29 23.9439
5293.40 33.9059
5293.52 49.3095
5293.64 74.0307
5293.76 115.102
5293.88 184.119
5294.03 326.108
5294.18 447.241
5294.33 391.517
5294.47 267.775
5294.63 177.584
5294.78 124.697
5294.94 92.6576
5295.09 72.4182
5295.24 58.7339
5295.40 49.1644
5295.70 36.8177
5296.01 29.4090
5296.32 24.5642
5296.93 18.7266
5297.54 15.4012
5298.16 13.2831
5298.77 11.8275
5299.39 10.7709
5300.61 9.34711
5301.84 8.43683
5303.07 7.80692
5304.30 7.34635
5306.75 6.71793
5309.21 6.31016
5311.66 6.02400
5314.12 5.81213
5319.03 5.51874
5323.94 5.32462
5328.85 5.18615
5333.76 5.08204
5343.59 4.93532
5348.50 4.88183
5353.41 4.83787
5358.32 4.80312
5363.23 4.78293
5365.69 4.78764
5368.14 4.83159
5369.37 4.90664
5370.60 5.13160
5371.21 5.44593
5371.52 5.75688
5371.83 6.31585
5372.13 7.47372
5372.29 8.58811
5372.44 10.5157
5372.59 14.3482
5372.67 17.8470
5372.75 23.5257
5372.82 33.9416
5372.86 42.4918
5372.90 55.2583
5372.94 76.0392
5372.98 110.302
5373.01 172.152
5373.05 290.218
5373.09 460.747
5373.12 576.342
5373.16 461.123
5373.19 290.744
5373.22 186.530
5373.26 124.946
5373.29 88.6301
5373.32 66.0736
5373.36 51.3156
5373.39 41.2115
5373.45 28.8817
5373.52 21.7621
5373.59 17.4186
5373.72 12.5098
5373.85 9.97550
5373.98 8.50057
5374.24 6.94059
5374.50 6.17358
5374.77 5.74311
5375.29 5.29939
5375.81 5.08576
5376.34 4.96637
5377.39 4.84266
5379.49 4.74581
5381.58 4.70511
5385.78 4.66447
5389.97 4.63982
5398.36 4.60429
5406.76 4.57625
5423.54 4.53116
5431.93 4.51338
5436.12 4.51078
5438.22 4.53285
5439.27 4.63445
5439.53 4.73728
5439.79 5.01502
5439.93 5.37439
5440.06 6.27989
5440.12 7.36892
5440.19 9.76718
5440.22 12.2780
5440.25 16.9743
5440.27 21.1015
5440.29 26.9336
5440.30 35.8357
5440.32 49.8837
5440.34 76.9477
5440.36 95.5022
5440.38 77.0740
5440.41 50.0438
5440.42 38.1331
5440.43 29.9773
5440.46 19.8325
5440.49 14.5455
5440.51 11.6182
5440.57 8.53500
5440.62 7.08273
5440.72 5.81254
5440.83 5.29051
5441.04 4.87440
5441.26 4.71663
5441.68 4.59643
5442.10 4.55182
5443.80 4.50418
5447.20 4.48578
5453.99 4.47015
5467.58 4.44647
5494.76 4.40666
5521.93 4.37257
5535.52 4.35738
5542.31 4.35183
5545.71 4.35620
5547.41 4.38601
5548.26 4.50486
5548.47 4.62225
5548.68 4.93195
5548.79 5.32419
5548.89 6.28468
5548.95 7.38951
5549.00 9.75123
5549.03 12.1217
5549.05 16.1185
5549.08 24.0912
5549.09 30.5659
5549.11 40.0118
5549.13 61.8053
5549.15 75.7219
5549.17 61.8214
5549.19 40.0317
5549.21 30.0002
5549.22 22.9155
5549.25 15.1671
5549.28 11.2948
5549.31 9.14555
5549.37 6.98104
5549.43 6.01196
5549.54 5.17570
5549.66 4.83936
5549.89 4.57621
5550.13 4.47750
5551.06 4.37567
5552.93 4.34696
5556.67 4.33607
5564.14 4.32645
5579.09 4.31069
5594.04 4.29584
5601.52 4.28918
5605.25 4.28819
5607.12 4.29658
5608.06 4.33405
5608.52 4.47134
5608.76 4.92148
5608.88 6.14478
5608.93 8.55441
5608.96 11.7422
5608.99 18.9909
5609.01 28.0035
5609.03 33.7026
5609.05 27.9873
5609.07 18.9699
5609.09 13.1524
5609.12 9.88161
5609.16 7.02316
5609.25 5.31646
5609.42 4.60283
5609.76 4.37018
5610.45 4.30303
5611.84 4.28404
5614.60 4.27689
5620.13 4.27047
5631.18 4.25972
5653.29 4.23981
5664.35 4.23172
5675.40 4.22927
5680.93 4.23596
5686.46 4.26524
5689.22 4.31066
5690.60 4.35715
5691.98 4.44265
5693.37 4.62531
5694.06 4.80592
5694.75 5.13163
5695.09 5.40335
5695.44 5.81235
5695.79 6.47405
5696.13 7.64078
5696.30 8.59651
5696.48 10.0132
5696.65 12.2418
5696.82 16.0129
5696.99 23.2532
5697.08 29.5839
5697.17 39.6158
5697.25 57.0693
5697.34 90.0473
5697.38 118.575
5697.43 162.343
5697.47 231.998
5697.51 346.902
5697.56 550.535
5697.62 689.522
5697.67 550.468
5697.72 346.576
5697.77 223.578
5697.82 152.179
5697.86 108.967
5697.91 81.5916
5698.01 50.8308
5698.10 35.1234
5698.19 26.0513
5698.29 20.4733
5698.48 14.1962
5698.67 10.9289
5698.85 9.03620
5699.04 7.83278
5699.23 7.02865
5699.61 6.04659
5699.98 5.49472
5700.36 5.15426
5700.74 4.92963
5701.49 4.66108
5702.25 4.51283
5703.75 4.36370
5705.26 4.29629
5706.77 4.27204
5707.52 4.28453
5708.28 4.35725
5708.65 4.47603
5709.03 4.82762
5709.22 5.31213
5709.41 6.59316
5709.50 8.19255
5709.55 9.63460
5709.60 11.9766
5709.64 16.1222
5709.69 24.3941
5709.71 32.0883
5709.74 43.9281
5709.76 64.8542
5709.78 101.309
5709.81 160.689
5709.84 200.739
5709.86 162.431
5709.89 103.647
5709.91 67.1160
5709.93 45.9480
5709.96 33.4652
5709.98 25.9639
5710.03 17.3743
5710.07 13.0089
5710.12 10.5091
5710.17 8.94918
5710.26 7.18648
5710.45 5.72192
5710.64 5.13822
5711.01 4.67644
5711.39 4.49687
5712.14 4.35387
5712.89 4.29603
5715.90 4.22322
5721.92 4.18678
5733.95 4.15853
5758.02 4.12210
5782.08 4.09167
5788.10 4.08911
5794.12 4.10025
5797.13 4.12503
5800.13 4.20456
5801.64 4.31824
5802.39 4.43153
5803.14 4.63620
5803.89 5.06302
5804.27 5.47523
5804.65 6.19974
5805.02 7.65360
5805.21 9.00311
5805.40 11.2745
5805.59 15.5351
5805.68 19.2133
5805.77 24.9409
5805.87 34.5077
5805.96 52.0139
5806.01 66.5335
5806.06 87.9051
5806.10 120.150
5806.15 168.823
5806.22 267.664
5806.28 333.621
5806.35 267.859
5806.41 169.104
5806.49 100.318
5806.56 64.3622
5806.64 44.7167
5806.71 33.1747
5806.78 25.9439
5806.86 21.1813
5807.01 15.7045
5807.15 13.1668
5807.23 12.7279
5807.30 12.9625
5807.37 14.3554
5807.41 15.8848
5807.45 18.4947
5807.49 23.1371
5807.52 32.0625
5807.54 39.9678
5807.56 51.2687
5807.58 68.5926
5807.60 95.3585
5807.62 149.128
5807.64 183.279
5807.67 149.133
5807.69 95.2098
5807.71 70.7251
5807.73 54.0311
5807.76 34.1921
5807.79 24.2248
5807.82 18.7841
5807.86 15.3346
5807.89 13.1361
5807.95 10.4540
5808.02 8.93316
5808.08 7.99615
5808.21 6.89612
5808.48 5.86411
5808.74 5.36342
5809.26 4.86116
5809.78 4.60909
5810.82 4.36159
5811.87 4.24501
5813.95 4.13875
5816.04 4.09123
5820.21 4.04693
5824.39 4.02375
5841.08 3.96786
5857.78 3.91576
5866.12 3.88733
5870.30 3.87578
5872.38 3.88515
5873.43 3.94937
5873.95 4.19846
5874.08 4.43634
5874.21 5.03360
5874.28 5.74566
5874.34 7.34325
5874.37 9.03134
5874.41 12.0894
5874.44 18.8006
5874.45 24.8787
5874.47 34.7324
5874.49 53.4675
5874.51 65.6646
5874.53 53.5128
5874.56 34.7897
5874.57 26.4056
5874.58 20.4712
5874.61 13.7908
5874.64 10.2491
5874.67 8.33053
5874.72 6.35293
5874.77 5.45073
5874.88 4.65513
5874.99 4.33481
5875.21 4.08029
5875.43 3.98350
5876.31 3.88138
5878.06 3.84743
5881.56 3.82465
5888.56 3.78828
5895.57 3.74884
5902.57 3.70399
5916.58 3.59102
5930.59 3.42864
5937.60 3.31672
5944.60 3.17200
5951.60 2.97716
5958.61 2.70046
5962.11 2.51349
5965.61 2.27756
5969.11 1.97185
5972.62 1.56483
5974.37 1.31037
5976.12 1.01605
5977.87 0.686229
5979.62 0.359302
5980.50 0.239807
5981.37 0.215966
5981.81 0.275437
5982.25 0.417749
5982.69 0.689028
5983.12 1.16353
5983.56 1.97190
5984.00 3.34243
5984.44 5.70675
5984.87 9.92381
5985.09 13.2600
5985.31 17.9299
5985.53 24.6141
5985.75 34.4359
5985.97 49.3063
5986.19 72.5511
5986.41 109.923
5986.62 170.057
5986.93 302.494
5987.23 417.567
5987.53 367.478
5987.83 251.906
5988.03 191.241
5988.24 148.370
5988.44 118.089
5988.64 96.5602
5989.05 68.8878
5989.46 52.6378
5989.87 42.2401
5990.28 35.1880
5991.10 26.3935
5991.91 21.2494
5992.73 17.9379
5993.55 15.6494
5994.36 13.9847
5996.00 11.7413
5997.63 10.3125
5999.27 9.32820
6000.90 8.61145
6004.17 7.64079
6007.44 7.01653
6010.71 6.58206
6013.98 6.26277
6020.51 5.82511
6027.05 5.53949
6033.59 5.33864
6040.12 5.19012
6053.20 4.98869
6059.73 4.92160
6066.27 4.87568
6069.54 4.86314
6072.81 4.86152
6076.08 4.87829
6079.35 4.93161
6080.98 4.98547
6082.61 5.07426
6084.25 5.22754
6085.88 5.51463
6086.70 5.75892
6087.52 6.13162
6088.33 6.73894
6089.15 7.82314
6089.56 8.71607
6089.97 10.0422
6090.38 12.1438
6090.79 15.7388
6091.19 22.6863
6091.40 28.8398
6091.60 38.6939
6091.81 55.9386
6092.01 89.3908
6092.11 118.969
6092.22 165.337
6092.32 241.215
6092.42 367.195
6092.54 585.552
6092.65 731.485
6092.77 586.024
6092.89 367.908
6092.96 269.446
6093.04 202.163
6093.18 122.874
6093.33 81.6730
6093.48 58.4893
6093.63 44.1693
6093.78 34.8781
6094.07 23.9185
6094.37 17.9583
6094.67 14.3918
6095.26 10.5041
6095.85 8.54843
6096.45 7.42810
6097.04 6.72663
6097.63 6.25805
6098.82 5.68893
6100.01 5.36872
6101.19 5.16955
6102.38 5.03641
6104.75 4.87290
6107.12 4.77796
6109.49 4.71613
6111.87 4.67233
6116.61 4.61297
6121.36 4.57275
6130.84 4.51694
6140.33 4.47586
6149.82 4.44175
6168.80 4.38392
6187.78 4.33275
6206.76 4.28390
6225.74 4.23671
6235.23 4.22506
6237.60 4.23415
6239.97 4.27336
6241.16 4.33495
6242.34 4.51693
6242.94 4.77105
6243.23 5.02320
6243.53 5.47496
6243.83 6.41283
6243.97 7.30636
6244.12 8.85395
6244.27 11.9098
6244.34 14.6531
6244.42 19.1209
6244.49 27.0809
6244.53 33.5894
6244.57 43.1764
6244.60 57.9951
6244.64 82.2278
6244.68 124.249
6244.71 201.761
6244.75 321.066
6244.79 400.620
6244.83 321.860
6244.86 202.919
6244.90 130.022
6244.93 87.6807
6244.97 62.6344
6245.00 47.3922
6245.04 37.0449
6245.07 29.9549
6245.14 21.2891
6245.21 16.2845
6245.28 13.2253
6245.42 9.78190
6245.56 7.98383
6245.70 6.93596
6245.97 5.82798
6246.25 5.28048
6246.53 4.97185
6247.08 4.65245
6248.19 4.41257
6249.30 4.32559
6251.52 4.26759
6253.74 4.26493
6255.95 4.30930
6257.06 4.36567
6258.17 4.47551
6259.28 4.71601
6259.84 4.95509
6260.39 5.38324
6260.67 5.73804
6260.95 6.26620
6261.22 7.10414
6261.50 8.54827
6261.78 11.3677
6261.92 13.8973
6262.05 17.9582
6262.19 25.1758
6262.33 39.4372
6262.40 52.5557
6262.47 73.3674
6262.54 108.515
6262.61 169.406
6262.68 269.289
6262.76 334.995
6262.83 269.491
6262.90 169.688
6262.98 100.617
6263.07 64.2065
6263.15 44.3729
6263.23 32.8329
6263.32 25.4705
6263.40 20.6269
6263.56 14.7714
6263.73 11.5425
6263.89 9.58154
6264.22 7.42622
6264.55 6.33183
6264.88 5.70128
6265.21 5.30496
6265.54 5.03951
6266.20 4.71645
6266.86 4.53404
6268.18 4.34421
6269.50 4.25031
6270.82 4.19531
6273.46 4.13259
6278.74 4.06731
6284.03 4.02182
6294.59 3.93287
6305.15 3.81840
6315.71 3.64359
6320.99 3.51142
6326.27 3.32207
6328.91 3.19228
6331.55 3.02565
6334.20 2.80361
6336.84 2.49394
6338.16 2.28887
6339.48 2.03587
6340.80 1.71908
6342.12 1.32165
6343.44 0.851351
6344.10 0.633963
6344.76 0.544213
6345.09 0.635845
6345.42 0.936219
6345.75 1.65315
6345.91 2.29519
6346.08 3.25315
6346.24 4.69614
6346.41 6.90827
6346.57 10.3891
6346.74 16.0651
6346.90 25.7651
6347.07 43.3490
6347.15 57.5720
6347.23 77.4224
6347.32 106.109
6347.40 146.390
6347.55 261.263
6347.71 362.307
6347.86 319.869
6348.02 219.777
6348.19 141.631
6348.37 97.5402
6348.54 71.9053
6348.71 56.0461
6348.89 45.4825
6349.06 38.1591
6349.41 28.7912
6349.75 23.2040
6350.10 19.5594
6350.79 15.1700
6351.49 12.6653
6352.18 11.0657
6352.88 9.96322
6353.57 9.16073
6354.96 8.07485
6356.35 7.37816
6357.74 6.89431
6359.12 6.53922
6361.90 6.05335
6364.68 5.73692
6367.45 5.51435
6370.23 5.34920
6375.78 5.12046
6378.56 5.03838
6381.33 4.97136
6386.89 4.88406
6388.28 4.88518
6389.66 4.93262
6390.36 5.01809
6391.05 5.27527
6391.40 5.63087
6391.75 6.59325
6391.92 7.84087
6392.01 9.00659
6392.09 10.9492
6392.18 14.6419
6392.22 17.8873
6392.27 22.8409
6392.31 31.3492
6392.35 46.6337
6392.38 59.6484
6392.40 77.9049
6392.42 106.748
6392.44 149.190
6392.47 236.887
6392.50 293.928
6392.53 237.228
6392.56 149.654
6392.58 110.495
6392.60 82.7118
6392.64 51.1760
6392.68 34.9863
6392.72 25.8411
6392.76 20.1291
6392.80 16.5135
6392.87 12.2540
6392.95 9.92338
6393.03 8.54531
6393.19 7.04368
6393.34 6.28309
6393.50 5.84986
6393.81 5.39466
6394.44 5.04640
6395.07 4.91394
6396.32 4.80689
6397.57 4.75948
6402.58 4.67614
6407.59 4.62748
6412.60 4.58882
6422.61 4.52703
6432.63 4.47803
6442.65 4.43751
6452.67 4.40463
6457.68 4.39310
6462.68 4.39264
6465.19 4.40718
6467.69 4.46404
6468.95 4.55076
6470.20 4.80310
6470.82 5.15232
6471.14 5.49652
6471.45 6.11328
6471.76 7.38448
6471.92 8.60089
6472.08 10.6913
6472.23 14.8018
6472.31 18.4802
6472.39 24.4515
6472.47 35.2284
6472.51 43.9332
6472.55 56.7195
6472.58 76.4103
6472.62 108.447
6472.66 163.600
6472.70 263.179
6472.74 417.759
6472.78 523.154
6472.82 418.366
6472.86 264.090
6472.90 172.192
6472.93 117.079
6472.97 83.9238
6473.00 63.4895
6473.08 39.8687
6473.15 28.0038
6473.22 21.1125
6473.29 16.8818
6473.43 12.0812
6473.58 9.59092
6473.72 8.13682
6474.00 6.59383
6474.29 5.83474
6474.58 5.40573
6475.15 4.96297
6475.72 4.75022
6476.29 4.63157
6477.44 4.51054
6479.72 4.42351
6482.01 4.40150
6484.30 4.41740
6486.59 4.51186
6487.73 4.65777
6488.30 4.80541
6488.87 5.07355
6489.45 5.63306
6489.73 6.17129
6490.02 7.11029
6490.30 8.96652
6490.45 10.6580
6490.59 13.4435
6490.73 18.4892
6490.81 22.7206
6490.88 28.9699
6490.95 38.9934
6491.02 55.6652
6491.09 85.7244
6491.16 142.598
6491.23 226.200
6491.29 281.343
6491.36 226.548
6491.42 143.040
6491.47 99.4857
6491.52 71.7158
6491.57 53.5080
6491.62 41.6785
6491.73 27.6069
6491.83 20.1615
6491.93 15.7212
6492.03 12.9031
6492.23 9.68623
6492.43 7.97792
6492.63 6.97366
6493.03 5.89474
6493.44 5.35652
6493.84 5.05006
6494.64 4.73119
6495.45 4.57567
6496.26 4.48760
6497.87 4.39471
6501.09 4.31894
6504.31 4.28528
6510.75 4.25998
6512.36 4.26982
6513.97 4.31616
6514.78 4.39028
6515.58 4.60992
6515.99 4.91628
6516.39 5.75469
6516.59 6.85973
6516.69 7.90433
6516.79 9.66898
6516.89 13.0756
6516.94 16.0406
6516.99 20.7249
6517.04 28.9191
6517.09 44.1706
6517.12 57.2295
6517.14 77.0490
6517.17 108.134
6517.19 157.949
6517.22 250.382
6517.26 313.149
6517.29 251.318
6517.32 159.270
6517.34 115.922
6517.36 85.6344
6517.39 65.3192
6517.41 51.9196
6517.45 34.9928
6517.49 25.5647
6517.54 19.8454
6517.58 16.1368
6517.66 11.7985
6517.75 9.44162
6517.84 8.05082
6518.01 6.53898
6518.18 5.77445
6518.35 5.33861
6518.70 4.88043
6519.39 4.52983
6520.08 4.39750
6521.46 4.29389
6522.84 4.25156
6528.36 4.18946
6539.40 4.12697
6550.44 4.06249
6561.48 3.97827
6572.52 3.85124
6578.04 3.75580
6583.56 3.61893
6586.32 3.52462
6589.08 3.40256
6591.84 3.23792
6594.59 3.00330
6595.97 2.84402
6597.35 2.64193
6598.73 2.37800
6600.11 2.02183
6600.80 1.79539
6601.49 1.52819
6602.18 1.21772
6602.87 0.882271
6603.56 0.636608
6603.91 0.688710
6604.25 1.11912
6604.43 1.64906
6604.60 2.58810
6604.77 4.27847
6604.86 5.58477
6604.94 7.37426
6605.03 9.89652
6605.12 13.4349
6605.20 18.5611
6605.29 26.1897
6605.38 37.9006
6605.46 56.4966
6605.55 86.9430
6605.63 137.223
6605.75 244.871
6605.86 339.770
6605.98 300.817
6606.09 207.366
6606.21 137.042
6606.33 95.9859
6606.45 71.5052
6606.57 56.1310
6606.69 45.7391
6606.81 38.4401
6607.06 29.1003
6607.30 23.4675
6607.54 19.7936
6608.02 15.3501
6608.50 12.8020
6608.99 11.1760
6609.47 10.0523
6609.95 9.23586
6610.92 8.13044
6611.88 7.42084
6612.85 6.92827
6613.81 6.56697
6615.74 6.07316
6617.67 5.75180
6619.60 5.52601
6621.53 5.35865
6625.39 5.12713
6629.25 4.97604
6633.11 4.88404
6635.04 4.91671
6635.52 4.98641
6636.01 5.19887
6636.25 5.49413
6636.49 6.28373
6636.61 7.29390
6636.73 9.74356
6636.79 12.6040
6636.85 18.5918
6636.88 24.3930
6636.91 34.4217
6636.94 53.2569
6636.96 68.7981
6636.97 91.5513
6637.00 144.387
6637.02 178.846
6637.05 144.779
6637.07 92.0728
6637.10 60.3369
6637.12 41.5247
6637.14 30.4356
6637.17 23.5495
6637.22 15.9593
6637.26 12.2096
6637.36 8.67873
6637.45 7.18294
6637.65 5.94932
6637.84 5.46632
6638.22 5.09072
6638.60 4.94685
6639.36 4.83075
6640.13 4.78059
6643.18 4.69749
6649.29 4.61569
6655.40 4.55856
6661.50 4.51349
6673.72 4.44449
6685.93 4.39205
6698.15 4.34902
6710.36 4.31162
6722.58 4.27771
6728.68 4.26255
6731.74 4.25978
6733.26 4.27764
6734.03 4.36029
6734.41 4.66271
6734.50 4.94250
6734.60 5.61581
6734.65 6.39032
6734.69 7.97780
6734.74 12.1871
6734.77 17.1178
6734.79 26.2666
6734.81 39.4340
6734.83 48.3514
6734.85 39.5206
6734.87 26.3758
6734.89 19.3953
6734.91 14.7619
6734.94 10.0389
6735.01 6.65513
6735.07 5.54358
6735.14 5.05852
6735.41 4.48405
6735.94 4.30915
6737.01 4.25789
6739.14 4.23914
6743.41 4.22441
6751.95 4.20109
6769.03 4.15470
6786.11 4.10414
6803.19 4.04561
6820.27 3.97363
6837.35 3.87881
6845.89 3.81773
6854.43 3.74302
6862.97 3.65117
6867.24 3.60900
6869.38 3.64173
6869.91 3.69970
6870.45 3.87453
6870.71 4.11618
6870.98 4.76664
6871.11 5.60483
6871.25 7.66788
6871.31 10.0926
6871.38 15.2708
6871.41 20.6040
6871.45 29.8835
6871.48 48.1053
6871.50 64.3773
6871.51 87.5274
6871.54 138.508
6871.56 171.645
6871.59 138.596
6871.61 87.6358
6871.64 57.9851
6871.66 40.6033
6871.68 29.5818
6871.70 22.9075
6871.75 15.2015
6871.79 11.3339
6871.88 7.66501
6871.97 6.07335
6872.15 4.75645
6872.33 4.24311
6872.68 3.84354
6873.04 3.69138
6873.76 3.56998
6874.47 3.51720
6877.32 3.41915
6883.04 3.26453
6888.75 3.06839
6894.46 2.79252
6897.31 2.60684
6900.17 2.37316
6903.02 2.07128
6905.88 1.67146
6907.31 1.42284
6908.74 1.13707
6910.16 0.820181
6911.59 0.513667
6912.30 0.408207
6913.02 0.401163
6913.73 0.620594
6914.09 0.898431
6914.45 1.37546
6914.80 2.17319
6915.16 3.50484
6915.52 5.76467
6915.87 9.72997
6916.05 12.8197
6916.23 17.0588
6916.41 23.0566
6916.59 31.6368
6916.77 44.3622
6916.95 63.4992
6917.12 93.0014
6917.30 138.545
6917.58 248.659
6917.85 345.886
6918.12 306.676
6918.40 211.856
6918.58 163.163
6918.76 128.016
6919.11 84.9189
6919.47 61.4024
6919.83 47.3665
6920.19 38.3209
6920.55 32.1263
6921.27 24.3546
6921.99 19.7787
6922.70 16.8126
6924.14 13.2535
6925.58 11.2235
6927.01 9.92718
6928.45 9.03337
6929.89 8.38358
6932.76 7.51428
6934.19 7.22014
6935.63 6.99988
6937.07 6.86718
6937.79 6.85598
6938.50 6.92186
6939.22 7.16776
6939.58 7.45177
6939.94 7.99300
6940.30 9.15176
6940.48 10.2798
6940.66 12.2391
6940.84 16.1248
6940.93 19.6550
6941.02 25.3613
6941.11 35.7040
6941.15 44.2334
6941.20 56.9018
6941.24 76.7009
6941.29 109.566
6941.33 167.713
6941.38 272.849
6941.42 433.923
6941.46 540.131
6941.51 434.483
6941.55 273.694
6941.58 199.376
6941.61 148.035
6941.66 89.8798
6941.72 60.3729
6941.78 43.8298
6941.83 33.7522
6941.89 27.1993
6942.01 19.5146
6942.12 15.3392
6942.23 12.8630
6942.46 10.1664
6942.69 8.79927
6942.92 8.01397
6943.38 7.17910
6943.83 6.75748
6944.29 6.50818
6945.20 6.22535
6947.03 5.95084
6948.86 5.79486
6952.51 5.59015
6956.16 5.44552
6959.82 5.33252
6963.47 5.24034
6970.77 5.09738
6978.08 4.99072
6985.39 4.90765
7000.00 4.78579
7000.00 8.23113
7200.00 8.20376
8500.00 8.05391
10000.0 7.92529
12500.0 7.77585
14000.0 7.71123
15000.0 7.67542
17000.0 7.61700
20000.0 7.55308
25000.0 7.48569
30000.0 7.44652
35000.0 7.42339
40000.0 7.40996
45000.0 7.40265
50000.0 7.39929
60000.0 7.39940
67500.0 7.40262
72000.0 7.40516
85000.0 7.41329
99999.9 7.42193
100000 7.60000
150000 7.68000
200000 7.69100
300000 7.61100
400000 7.53100
500000 7.42300
600000 7.31500
640000 7.25900
660000 7.23100
664000 7.22500
664059 7.22455
680000 7.20268
700000 7.17473
750000 7.10487
800000 7.03500
1.00000E+06 6.74900
1.20000E+06 6.49600
1.40000E+06 6.23700
1.49000E+06 6.12000
1.50000E+06 6.10800
1.56000E+06 6.03000
1.56019E+06 6.02959
1.60000E+06 5.97800
1.75000E+06 5.78500
1.80000E+06 5.72100
1.83000E+06 5.68400
2.00000E+06 5.47200
2.10000E+06 5.36000
2.13000E+06 5.32600
2.13017E+06 5.32581
2.18000E+06 5.27000
2.24000E+06 5.20300
2.24038E+06 5.20251
2.31000E+06 5.12495
2.35000E+06 5.07996
2.35038E+06 5.07947
2.38000E+06 5.04591
2.38025E+06 5.04564
2.50000E+06 4.91200
2.88700E+06 4.57300
2.88726E+06 4.57277
3.00000E+06 4.47400
3.50000E+06 4.19500
4.00000E+06 4.04100
4.50000E+06 3.98500
5.00000E+06 3.99400
6.00000E+06 4.06700
6.75300E+06 4.17800
6.75362E+06 4.17809
7.00000E+06 4.21500
7.75700E+06 4.28800
7.75766E+06 4.28806
8.00000E+06 4.31200
8.99800E+06 4.42600
8.99874E+06 4.42600
9.00000E+06 4.42600
9.71400E+06 4.47500
9.97100E+06 4.49300
1.00000E+07 4.49500
1.10000E+07 4.51900
1.10000E+07 4.51900
1.10000E+07 4.51900
1.20000E+07 4.54300
1.20000E+07 4.54300
1.20000E+07 4.54300
1.30000E+07 4.48196
1.30000E+07 4.48200
1.30000E+07 4.48200
1.40000E+07 4.41979
1.40000E+07 4.42000
1.40000E+07 4.42000
1.50000E+07 4.35140
1.50000E+07 4.35200
1.50000E+07 4.35200
1.60000E+07 4.28276
1.60000E+07 4.28400
1.60000E+07 4.28400
1.60300E+07 4.28200
1.60318E+07 4.28187
1.70000E+07 4.21310
1.70000E+07 4.21500
1.70000E+07 4.21500
1.70500E+07 4.21200
1.70511E+07 4.21192
1.74000E+07 4.18700
1.74013E+07 4.18691
1.80000E+07 4.14280
1.80000E+07 4.14600
1.80000E+07 4.14600
1.90000E+07 4.05860
1.90000E+07 4.06300
1.90000E+07 4.06300
2.00000E+07 3.98000