Cd-106(n,tot) ENDF/B-VII.1
Energy(eV) XS(b)
1.00000E-05 54.1436
1.25000E-05 48.9070
1.50000E-05 45.0414
2.00000E-05 39.6155
2.75000E-05 34.4527
3.50000E-05 31.0549
4.25000E-05 28.6020
5.00000E-05 26.7242
6.25000E-05 24.3823
7.50000E-05 22.6536
0.000100000 20.2271
0.000125000 18.5711
0.000150000 17.3487
0.000200000 15.6328
0.000275000 14.0002
0.000350000 12.9258
0.000425000 12.1501
0.000500000 11.5563
0.000625000 10.8157
0.000750000 10.2690
0.00100000 9.50164
0.00125000 8.97796
0.00150000 8.59140
0.00200000 8.04878
0.00275000 7.53248
0.00350000 7.19268
0.00425000 6.94737
0.00500000 6.75957
0.00625000 6.52534
0.00750000 6.35244
0.0100000 6.10973
0.0125000 5.94409
0.0150000 5.82181
0.0200000 5.65014
0.0253000 5.52707
0.0314750 5.42497
0.0376500 5.34914
0.0500000 5.24208
0.0625000 5.16788
0.0750000 5.11308
0.100000 5.03609
0.125000 4.98348
0.150000 4.94459
0.200000 4.88990
0.275000 4.83765
0.350000 4.80308
0.500000 4.75866
0.750000 4.71620
1.00000 4.69027
1.50000 4.65830
2.00000 4.63810
2.75000 4.61737
3.50000 4.60238
5.00000 4.58056
7.50000 4.55493
10.0000 4.53528
15.0000 4.50408
20.0000 4.47857
27.5000 4.44631
35.0000 4.41873
50.0000 4.37268
75.0000 4.31257
100.000 4.26462
125.000 4.22368
150.000 4.18684
200.000 4.11828
264.133 4.02644
296.199 3.97245
328.266 3.90717
360.332 3.82123
376.365 3.76432
392.398 3.69060
408.432 3.58622
416.448 3.51280
424.465 3.41316
428.473 3.34750
432.481 3.26538
436.490 3.15876
440.498 3.01370
442.502 2.91948
444.506 2.80489
446.510 2.66416
448.515 2.49371
449.517 2.40053
450.519 2.31213
451.521 2.25524
452.523 2.31125
453.024 2.45162
453.525 2.76417
454.026 3.43305
454.276 4.02269
454.402 4.42149
454.527 4.91439
454.652 5.52925
454.715 5.89364
454.778 6.30265
454.840 6.76449
454.903 7.28587
454.965 7.87726
455.028 8.55041
455.153 10.2036
455.279 12.3995
455.404 15.3830
455.529 19.5341
455.654 25.5024
455.780 34.4101
455.905 48.4078
456.030 71.8570
456.093 89.8889
456.155 114.882
456.218 150.744
456.281 204.310
456.343 288.439
456.406 427.799
456.468 672.934
456.531 1117.53
456.594 1833.83
456.657 2352.76
456.720 1932.15
456.783 1239.09
456.822 926.056
456.861 704.474
456.940 437.486
457.018 295.869
457.097 213.792
457.175 162.445
457.253 128.298
457.410 87.1602
457.567 64.1750
457.724 49.9914
458.037 33.9749
458.351 25.5066
458.664 20.4287
458.978 17.1094
459.291 14.8009
459.918 11.8458
460.545 10.0658
461.172 8.89170
461.799 8.06596
463.053 6.99070
464.308 6.32708
465.562 5.87917
466.816 5.55734
469.324 5.12612
471.832 4.84995
474.340 4.65699
476.848 4.51361
481.865 4.31220
486.881 4.17522
489.389 4.12272
491.897 4.08282
493.151 4.07333
493.778 4.07559
494.405 4.08888
495.032 4.12895
495.346 4.17312
495.659 4.25573
495.816 4.32523
495.973 4.42982
496.130 4.59673
496.286 4.88486
496.443 5.44424
496.522 5.94340
496.600 6.74567
496.678 8.15187
496.757 10.9178
496.796 13.3898
496.835 17.3081
496.874 23.8143
496.913 34.7702
496.957 53.2516
497.000 65.5288
497.043 53.2084
497.087 34.7365
497.132 22.4653
497.178 15.8013
497.223 12.0412
497.269 9.77732
497.315 8.32622
497.360 7.35139
497.451 6.16787
497.542 5.50714
497.633 5.10315
497.815 4.65525
497.997 4.42532
498.179 4.29146
498.361 4.20631
498.543 4.14847
498.908 4.07619
499.272 4.03338
500.000 3.98455
501.052 3.94633
502.104 3.92129
504.207 3.88416
508.415 3.82534
516.829 3.72354
533.659 3.52931
550.488 3.31002
567.318 3.02445
575.732 2.83776
584.147 2.60475
592.562 2.30408
600.976 1.90258
605.184 1.64977
609.391 1.35498
613.598 1.02106
617.806 0.687135
619.909 0.567651
620.961 0.542200
621.487 0.543697
622.013 0.557940
622.539 0.588187
622.802 0.610557
623.065 0.638541
623.591 0.714259
624.117 0.822101
624.643 0.970841
625.169 1.17199
625.695 1.44079
626.220 1.79774
626.746 2.27083
627.272 2.89849
627.798 3.73515
628.324 4.85898
628.850 6.38508
629.376 8.48766
629.902 11.4390
630.428 15.6815
630.954 21.9693
631.480 31.6558
632.006 47.3654
632.531 74.6644
633.057 126.914
633.320 172.191
633.583 242.153
633.846 356.762
634.109 558.190
634.372 942.354
634.504 1262.35
634.635 1715.86
634.861 2838.38
635.087 3666.51
635.313 3029.03
635.539 1953.85
635.717 1360.97
635.895 978.093
636.073 730.006
636.251 564.214
636.607 366.706
636.963 259.338
637.319 194.800
637.675 153.000
638.386 103.732
639.098 76.6865
639.810 60.1097
640.522 49.1276
641.234 41.4264
642.658 31.5018
644.081 25.4967
645.505 21.5324
646.929 18.7474
649.776 15.1325
652.623 12.9149
655.471 11.4287
658.318 10.3688
664.013 8.96545
669.707 8.08280
675.402 7.47847
681.097 7.03950
692.486 6.44524
703.876 6.06185
715.265 5.79390
726.654 5.59589
749.433 5.32226
772.212 5.14145
794.991 5.01251
817.770 4.91550
863.327 4.77824
908.885 4.68467
954.442 4.61587
1000.00 4.56245
1062.50 4.50510
1125.00 4.45963
1250.00 4.38939
1375.00 4.33428
1500.00 4.28661
1750.00 4.19844
2000.00 4.10412
2161.90 4.03123
2242.85 3.98867
2323.79 3.94021
2404.74 3.88377
2445.22 3.85168
2485.69 3.81645
2526.17 3.77786
2566.64 3.73740
2586.88 3.71984
2597.00 3.71447
2607.11 3.71551
2612.17 3.72113
2617.23 3.73355
2622.29 3.75874
2627.35 3.81092
2629.88 3.85759
2632.41 3.93101
2634.94 4.05411
2637.47 4.28078
2638.73 4.47239
2640.00 4.76493
2641.26 5.24316
2642.53 6.10303
2643.16 6.81846
2643.79 7.89377
2644.43 9.62401
2645.06 12.6596
2645.38 15.1313
2645.69 18.7581
2646.01 24.4050
2646.32 33.8913
2646.64 51.6226
2646.80 66.8693
2646.96 90.5070
2647.11 129.738
2647.27 200.828
2647.35 259.207
2647.43 344.328
2647.51 471.257
2647.59 660.351
2647.70 1056.23
2647.82 1317.15
2647.93 1052.29
2648.05 659.831
2648.17 398.402
2648.29 256.022
2648.41 175.705
2648.53 127.368
2648.65 96.4520
2648.77 75.6393
2649.01 50.3944
2649.25 36.3338
2649.49 27.7409
2649.96 18.2611
2650.44 13.4164
2650.92 10.6268
2651.40 8.87013
2651.88 7.69771
2652.84 6.27467
2653.80 5.47794
2654.76 4.98732
2655.72 4.66380
2657.64 4.27648
2659.56 4.06182
2661.47 3.92984
2663.39 3.84241
2667.23 3.73616
2671.06 3.67632
2672.98 3.65774
2674.90 3.65116
2675.86 3.66084
2676.82 3.70563
2677.30 3.77492
2677.54 3.84493
2677.78 3.97033
2678.02 4.22765
2678.14 4.46902
2678.26 4.87742
2678.38 5.64541
2678.44 6.30797
2678.50 7.33674
2678.56 9.04497
2678.62 12.1362
2678.65 14.6679
2678.68 18.3468
2678.71 23.8050
2678.74 31.5628
2678.78 48.8148
2678.83 60.1700
2678.87 48.8132
2678.92 32.0740
2678.96 21.4611
2679.00 15.3904
2679.04 11.8307
2679.09 9.62668
2679.13 8.18686
2679.17 7.20157
2679.26 5.98521
2679.35 5.29483
2679.43 4.86678
2679.60 4.38811
2679.77 4.13750
2679.95 3.99118
2680.29 3.83348
2680.98 3.70783
2681.66 3.65767
2683.03 3.61445
2684.41 3.59370
2687.15 3.56976
2689.90 3.55335
2700.88 3.50541
2711.86 3.46387
2722.84 3.42118
2733.82 3.37383
2744.80 3.31849
2750.29 3.28678
2755.78 3.25279
2758.53 3.23674
2761.27 3.22780
2762.65 3.23475
2764.02 3.27560
2764.70 3.34217
2765.05 3.41048
2765.39 3.53503
2765.73 3.79428
2765.91 4.04299
2766.08 4.47053
2766.25 5.30856
2766.33 6.06145
2766.42 7.26414
2766.51 9.40961
2766.59 13.6932
2766.63 17.5822
2766.68 23.8449
2766.72 34.4646
2766.76 52.3087
2766.81 82.2634
2766.85 101.731
2766.90 81.7137
2766.94 52.4911
2766.99 34.6350
2767.03 24.1814
2767.07 17.9392
2767.11 14.0995
2767.20 9.70355
2767.28 7.50134
2767.36 6.22849
2767.45 5.44679
2767.61 4.56192
2767.78 4.10295
2767.95 3.83457
2768.28 3.54909
2768.61 3.40646
2768.95 3.32457
2769.61 3.23634
2770.95 3.16053
2772.28 3.12222
2774.95 3.07030
2777.62 3.02402
2782.96 2.91975
2788.30 2.77868
2790.97 2.68453
2793.63 2.56561
2796.30 2.40999
2798.97 2.19751
2800.31 2.05982
2801.64 1.89360
2802.98 1.69234
2804.31 1.45636
2804.98 1.33365
2805.65 1.22715
2806.31 1.18175
2806.98 1.32469
2807.31 1.57035
2807.65 2.06795
2807.81 2.47821
2807.98 3.05925
2808.15 3.89089
2808.31 5.09196
2808.48 6.88768
2808.65 9.64127
2808.82 14.0363
2808.98 21.3771
2809.07 27.0373
2809.15 34.7047
2809.23 45.6197
2809.32 61.2393
2809.40 84.9201
2809.48 121.237
2809.57 179.281
2809.65 272.838
2809.76 464.077
2809.87 618.639
2809.98 528.211
2810.08 350.924
2810.17 245.787
2810.26 178.705
2810.35 134.837
2810.44 105.852
2810.62 71.0215
2810.80 52.0333
2810.98 40.4318
2811.16 32.8707
2811.51 23.7779
2811.87 18.6704
2812.23 15.4706
2812.58 13.3079
2812.94 11.7626
2813.66 9.72278
2814.37 8.45099
2815.08 7.58934
2815.80 6.97006
2817.23 6.14343
2818.65 5.61919
2820.08 5.25793
2821.51 4.99403
2824.37 4.63389
2827.22 4.39898
2830.08 4.23273
2832.93 4.10816
2838.65 3.93260
2841.50 3.86855
2844.36 3.81642
2847.22 3.77726
2850.07 3.76318
2851.50 3.78443
2852.21 3.81597
2852.93 3.88138
2853.64 4.03002
2854.00 4.17984
2854.36 4.45028
2854.53 4.67481
2854.71 5.00852
2854.89 5.54120
2855.07 6.45364
2855.25 8.23394
2855.34 9.81616
2855.43 12.3647
2855.52 16.9017
2855.61 25.7925
2855.65 33.8899
2855.69 46.5026
2855.74 68.0975
2855.78 104.099
2855.83 165.358
2855.88 205.239
2855.93 164.136
2855.98 104.242
2856.02 68.8584
2856.06 48.1085
2856.11 35.1419
2856.15 27.0751
2856.23 17.8269
2856.32 13.0789
2856.40 10.3489
2856.49 8.64370
2856.66 6.72789
2856.83 5.72372
2857.00 5.13920
2857.17 4.76537
2857.33 4.51439
2857.67 4.20455
2858.01 4.02867
2858.69 3.84397
2859.37 3.75168
2860.05 3.69733
2861.41 3.63519
2864.12 3.57248
2866.83 3.53354
2872.26 3.47471
2877.69 3.42475
2888.54 3.33390
2899.39 3.24613
2910.25 3.15588
2921.10 3.05957
2926.53 3.00915
2931.96 2.96098
2934.67 2.94348
2937.38 2.94801
2938.74 2.98118
2939.42 3.02173
2940.10 3.10130
2940.78 3.27711
2941.12 3.45175
2941.45 3.76448
2941.62 4.02277
2941.79 4.40499
2941.96 5.01253
2942.13 6.04715
2942.30 8.05126
2942.39 9.83171
2942.47 12.6443
2942.56 17.5851
2942.64 27.2164
2942.68 35.8669
2942.73 49.1232
2942.77 70.7031
2942.81 106.282
2942.86 168.582
2942.91 208.776
2942.96 167.083
2943.00 106.090
2943.05 68.5899
2943.09 46.6595
2943.14 33.5841
2943.18 25.5424
2943.27 16.4403
2943.36 11.8216
2943.45 9.18581
2943.54 7.54832
2943.72 5.71077
2943.90 4.75998
2944.07 4.20573
2944.25 3.85461
2944.43 3.61808
2944.79 3.32782
2945.14 3.16330
2945.85 2.99025
2946.57 2.90294
2947.28 2.85051
2948.70 2.78794
2951.55 2.71763
2954.40 2.66946
2957.25 2.63704
2958.68 2.63310
2960.10 2.64985
2961.53 2.71967
2962.24 2.80440
2962.95 2.97080
2963.31 3.11594
2963.67 3.33954
2964.02 3.70664
2964.38 4.36459
2964.56 4.90966
2964.74 5.71678
2964.91 6.98983
2965.09 9.16364
2965.27 13.3213
2965.36 16.9799
2965.45 22.7858
2965.54 32.7446
2965.63 51.7087
2965.67 68.3129
2965.72 93.1616
2965.76 133.483
2965.80 196.468
2965.86 312.938
2965.91 390.669
2965.97 313.427
2966.02 197.120
2966.07 134.121
2966.11 95.1592
2966.16 69.7455
2966.20 53.3938
2966.29 34.0308
2966.37 23.8615
2966.46 17.8092
2966.54 14.0146
2966.72 9.63866
2966.89 7.31965
2967.06 5.95958
2967.24 5.08933
2967.41 4.49858
2967.76 3.76779
2968.10 3.35035
2968.45 3.08702
2968.80 2.90878
2969.49 2.68575
2970.18 2.55237
2971.57 2.39545
2972.95 2.29696
2974.34 2.22067
2977.11 2.09000
2979.88 1.96297
2982.65 1.82730
2988.19 1.50435
2990.96 1.30655
2993.73 1.07903
2996.50 0.823816
2999.27 0.568891
3000.66 0.474305
3002.04 0.454489
3002.74 0.501857
3003.43 0.616989
3004.12 0.840338
3004.81 1.23893
3005.16 1.53918
3005.51 1.93362
3005.85 2.45605
3006.20 3.14763
3006.55 4.07597
3006.89 5.32877
3007.24 7.04829
3007.58 9.45198
3007.93 12.9020
3008.28 17.9686
3008.62 25.7014
3008.97 38.0545
3009.32 59.0478
3009.66 97.2141
3009.83 128.304
3010.01 172.992
3010.18 238.256
3010.35 333.404
3010.64 569.859
3010.93 762.593
3011.22 652.558
3011.50 433.797
3011.74 302.431
3011.98 218.280
3012.22 164.230
3012.46 128.414
3012.94 85.6616
3013.42 62.3956
3013.90 48.2766
3014.38 39.0589
3015.34 28.0207
3016.30 21.8162
3017.26 17.9288
3018.22 15.2997
3019.17 13.4212
3021.09 10.9344
3023.01 9.38007
3024.93 8.32318
3026.84 7.56037
3030.68 6.53460
3034.51 5.87616
3038.35 5.41518
3042.18 5.07201
3049.85 4.58690
3057.52 4.24981
3061.35 4.11425
3065.19 3.99737
3067.11 3.94972
3069.02 3.92375
3069.98 3.93794
3070.94 4.02598
3071.42 4.16706
3071.66 4.30966
3071.90 4.56396
3072.14 5.08166
3072.26 5.56358
3072.38 6.36457
3072.50 7.86588
3072.56 9.15006
3072.62 11.1287
3072.68 14.3818
3072.74 20.1900
3072.80 31.6344
3072.83 41.5092
3072.86 55.5056
3072.90 86.4578
3072.95 107.296
3072.99 86.5391
3073.04 55.5504
3073.07 40.0582
3073.11 29.9115
3073.14 23.2089
3073.17 18.6667
3073.24 13.2040
3073.30 10.2254
3073.37 8.44450
3073.44 7.30154
3073.57 5.97786
3073.70 5.26747
3073.83 4.84833
3074.10 4.39375
3074.36 4.16314
3074.63 4.02951
3075.15 3.88422
3076.21 3.75785
3077.27 3.69432
3079.38 3.61314
3081.50 3.54942
3085.73 3.43447
3089.95 3.32287
3094.18 3.20937
3098.41 3.09190
3100.53 3.03256
3102.64 2.97821
3103.70 2.96047
3104.76 2.97168
3105.28 3.01657
3105.81 3.16716
3106.08 3.37686
3106.21 3.57619
3106.34 3.91677
3106.47 4.56443
3106.54 5.12917
3106.61 6.01574
3106.67 7.51162
3106.74 10.2872
3106.77 12.6204
3106.80 16.0983
3106.84 21.4283
3106.87 29.6170
3106.91 45.9044
3106.96 56.4575
3107.00 45.5693
3107.05 29.6782
3107.08 20.8972
3107.12 15.3995
3107.16 11.9297
3107.19 9.71268
3107.26 7.08227
3107.33 5.68957
3107.40 4.86318
3107.48 4.34797
3107.62 3.75669
3107.76 3.44116
3107.90 3.25461
3108.19 3.04998
3108.76 2.87742
3109.33 2.79915
3110.46 2.71167
3111.60 2.64904
3113.88 2.53660
3116.16 2.42110
3120.72 2.15482
3125.27 1.81360
3127.55 1.60272
3129.83 1.35791
3132.11 1.07794
3134.38 0.782302
3135.52 0.655379
3136.66 0.587620
3137.23 0.601620
3137.80 0.673890
3138.37 0.840690
3138.94 1.16253
3139.22 1.41317
3139.51 1.74932
3139.79 2.19972
3140.08 2.80245
3140.36 3.61983
3140.65 4.73570
3140.93 6.27945
3141.22 8.44357
3141.50 11.5674
3141.79 16.1917
3142.07 23.2853
3142.36 34.6200
3142.64 53.9426
3142.93 89.1057
3143.07 118.000
3143.21 159.288
3143.35 219.560
3143.49 307.366
3143.73 527.251
3143.97 706.860
3144.21 606.133
3144.45 403.674
3144.63 288.970
3144.82 213.029
3145.00 162.836
3145.19 128.713
3145.56 87.2563
3145.92 64.2114
3146.29 50.0191
3146.66 40.6485
3147.40 29.3459
3148.14 22.9390
3148.88 18.9086
3149.62 16.1720
3150.36 14.2092
3151.84 11.6047
3153.32 9.97185
3154.80 8.85965
3156.28 8.05643
3159.23 6.97463
3162.19 6.27993
3165.15 5.79408
3168.10 5.43315
3174.02 4.92646
3179.93 4.57999
3191.76 4.11315
3203.59 3.78522
3215.42 3.51598
3239.08 3.02346
3262.74 2.46620
3274.57 2.11466
3286.39 1.67513
3292.31 1.40900
3298.22 1.10480
3304.14 0.763052
3310.05 0.411425
3313.01 0.266366
3314.49 0.217796
3315.97 0.198335
3317.45 0.224684
3318.92 0.323334
3319.66 0.412487
3320.40 0.537745
3321.14 0.709351
3321.88 0.940731
3322.62 1.25035
3323.36 1.66182
3324.10 2.21003
3324.84 2.94082
3325.58 3.92395
3326.32 5.25577
3327.06 7.08586
3327.80 9.64356
3328.54 13.3017
3329.28 18.6624
3330.01 26.7980
3330.75 39.6836
3331.49 61.2571
3332.23 99.7577
3332.97 173.951
3333.34 236.177
3333.71 324.659
3335.03 756.092
3335.48 718.838
3335.59 693.137
3335.70 669.129
3335.81 659.271
3335.87 671.162
3335.92 709.390
3335.98 776.673
3336.03 816.680
3336.08 741.059
3336.13 638.842
3336.19 567.914
3336.24 521.697
3336.29 487.980
3336.34 462.194
3336.43 427.546
3336.51 399.399
3336.68 352.943
3337.02 282.135
3337.36 230.327
3337.70 191.541
3338.39 138.685
3339.07 105.799
3339.75 84.0229
3340.43 68.9163
3341.79 49.7932
3343.15 38.5137
3344.52 31.2501
3347.24 22.6370
3349.97 17.8138
3352.69 14.7782
3355.42 12.7056
3358.14 11.2040
3363.59 9.16912
3369.04 7.84152
3371.77 7.33438
3374.49 6.91384
3375.86 6.75008
3376.54 6.69318
3377.22 6.67276
3377.90 6.73852
3378.24 6.84843
3378.58 7.07959
3378.92 7.60095
3379.09 8.11216
3379.26 9.00349
3379.43 10.7535
3379.52 12.3079
3379.60 14.8029
3379.69 19.1469
3379.77 27.6033
3379.82 35.1833
3379.86 46.7760
3379.90 66.1857
3379.94 97.8800
3379.99 152.867
3380.04 189.900
3380.09 153.028
3380.14 98.0784
3380.19 61.4284
3380.24 41.5567
3380.29 30.3123
3380.34 23.5271
3380.40 19.1773
3380.45 16.2424
3380.55 12.6714
3380.65 10.6579
3380.75 9.43498
3380.96 8.06894
3381.16 7.35564
3381.37 6.93508
3381.78 6.46853
3382.18 6.21634
3382.59 6.05378
3383.41 5.84152
3384.23 5.69193
3385.05 5.56877
3386.68 5.35715
3389.95 4.98568
3393.22 4.63809
3399.76 3.94771
3406.30 3.19693
3412.85 2.30251
3416.12 1.77610
3419.39 1.20569
3422.66 0.697732
3423.48 0.625460
3424.29 0.607073
3425.11 0.676754
3425.93 0.891895
3426.34 1.08324
3426.75 1.35424
3427.15 1.73126
3427.56 2.25121
3427.97 2.96683
3428.38 3.95526
3428.79 5.33238
3429.20 7.27222
3429.61 10.0728
3430.02 14.2167
3430.43 20.5683
3430.83 30.7379
3431.24 48.1465
3431.65 80.4381
3431.86 107.404
3432.06 146.885
3432.26 206.308
3432.47 296.118
3433.06 651.707
3433.21 633.303
3433.35 551.784
3433.65 351.608
3433.90 231.322
3434.15 156.134
3434.40 108.924
3434.65 78.1773
3434.90 57.0667
3435.15 42.0983
3435.40 31.0574
3435.65 22.8444
3435.90 16.7651
3436.14 12.6823
3436.27 11.4455
3436.39 10.8709
3436.52 11.1252
3436.64 12.4567
3436.71 13.6667
3436.77 15.2973
3436.83 17.4912
3436.89 20.2903
3436.96 23.9289
3437.02 28.4709
3437.14 41.3864
3437.27 61.9795
3437.39 94.7016
3437.52 146.814
3437.64 227.780
3437.85 447.088
3437.96 564.342
3438.06 631.197
3438.27 561.235
3438.48 404.461
3438.71 281.759
3438.93 207.548
3439.16 161.299
3439.38 130.825
3439.84 94.1947
3440.29 73.5732
3440.74 60.4934
3441.19 51.5517
3442.10 40.1451
3443.00 33.1949
3443.91 28.5337
3445.72 22.6731
3447.53 19.1441
3449.33 16.7875
3452.95 13.8374
3456.57 12.0631
3460.19 10.8757
3467.42 9.37873
3474.66 8.46528
3481.90 7.84335
3496.37 7.03819
3510.84 6.52825
3525.31 6.16842
3554.26 5.67910
3583.20 5.34687
3612.14 5.09354
3626.62 4.98447
3641.09 4.88362
3648.32 4.83634
3655.56 4.79329
3659.18 4.77652
3662.80 4.77264
3664.61 4.78813
3666.41 4.85259
3667.32 4.95060
3667.77 5.04948
3668.22 5.22872
3668.68 5.60303
3668.90 5.96205
3669.13 6.58791
3669.35 7.82510
3669.47 8.95343
3669.58 10.8146
3669.69 14.1969
3669.75 17.0505
3669.81 21.2670
3669.86 28.0985
3669.92 39.5248
3669.98 60.9098
3670.03 101.750
3670.08 159.718
3670.13 198.775
3670.18 159.723
3670.23 101.753
3670.27 69.3140
3670.32 49.0566
3670.36 36.4996
3670.40 28.5618
3670.48 19.3098
3670.56 14.4866
3670.65 11.6604
3670.73 9.90937
3670.90 7.92089
3671.06 6.87580
3671.23 6.26692
3671.56 5.61621
3671.90 5.29501
3672.23 5.11285
3672.89 4.92368
3673.56 4.83099
3674.23 4.77783
3675.56 4.71978
3678.22 4.66661
3680.88 4.63664
3686.20 4.59294
3691.53 4.55499
3702.18 4.48207
3712.83 4.40815
3734.12 4.24785
3755.42 4.05448
3776.72 3.79116
3787.36 3.60788
3798.01 3.35900
3803.34 3.19462
3808.66 2.98879
3813.98 2.72170
3819.31 2.35992
3821.97 2.12685
3824.63 1.84629
3827.29 1.50780
3829.96 1.11085
3831.29 0.903636
3832.62 0.720113
3833.95 0.629508
3834.62 0.669557
3835.28 0.824286
3835.95 1.18213
3836.28 1.48450
3836.61 1.90903
3836.94 2.50656
3837.28 3.34748
3837.61 4.54013
3837.94 6.24753
3838.28 8.75258
3838.61 12.5111
3838.94 18.3364
3839.27 27.7165
3839.61 43.7539
3839.94 73.0298
3840.11 96.8975
3840.27 130.833
3840.44 179.981
3840.60 250.941
3840.89 436.767
3841.18 592.628
3841.47 513.388
3841.76 346.626
3842.10 218.119
3842.43 148.289
3842.59 126.742
3842.76 112.377
3842.84 108.464
3842.92 108.573
3842.97 111.469
3843.01 117.700
3843.05 129.660
3843.09 151.720
3843.14 191.554
3843.19 217.237
3843.23 186.417
3843.28 141.460
3843.32 118.008
3843.35 102.242
3843.42 84.0553
3843.50 74.0222
3843.57 67.5463
3843.71 59.1763
3843.85 53.5257
3844.14 45.6051
3844.42 39.9943
3844.99 32.2456
3845.56 27.1116
3846.70 20.7715
3847.83 17.0613
3848.97 14.6554
3850.11 12.9818
3852.38 10.8244
3854.66 9.50267
3856.94 8.61481
3861.49 7.50001
3866.04 6.82868
3870.59 6.37898
3875.14 6.05514
3879.69 5.80952
3888.79 5.45824
3897.90 5.21702
3902.45 5.12492
3907.00 5.05630
3909.28 5.04193
3911.55 5.07587
3912.69 5.15587
3913.26 5.24362
3913.83 5.40853
3914.40 5.76090
3914.68 6.10552
3914.96 6.71159
3915.11 7.20797
3915.25 7.93406
3915.39 9.06382
3915.53 10.9584
3915.68 14.4877
3915.75 17.5108
3915.82 22.1783
3915.89 29.8788
3915.96 43.7072
3916.03 71.2275
3916.07 95.6402
3916.10 130.689
3916.15 206.053
3916.21 256.395
3916.26 205.982
3916.31 130.589
3916.35 90.7624
3916.40 65.4122
3916.44 48.8252
3916.48 38.1525
3916.56 25.4967
3916.64 18.7909
3916.73 14.8579
3916.81 12.3684
3916.98 9.53715
3917.14 8.03651
3917.31 7.15320
3917.47 6.59003
3917.64 6.21093
3917.97 5.74191
3918.30 5.47557
3918.96 5.19661
3919.63 5.05831
3920.29 4.97768
3921.61 4.88742
3924.27 4.79972
3926.92 4.74719
3932.22 4.66929
3937.52 4.60379
3948.12 4.48698
3958.72 4.37929
3969.33 4.27561
3979.93 4.17351
3985.23 4.12370
3990.53 4.07884
3993.18 4.06383
3995.83 4.06998
3997.16 4.10134
3998.49 4.21025
3999.15 4.36667
3999.48 4.52069
3999.81 4.79474
4000.14 5.35448
4000.31 5.88149
4000.47 6.77441
4000.64 8.49297
4000.72 10.0102
4000.80 12.3915
4000.89 16.5399
4000.97 24.5234
4001.01 31.6026
4001.05 42.3061
4001.09 59.4465
4001.14 87.5226
4001.19 137.764
4001.23 170.566
4001.28 137.414
4001.33 87.0623
4001.38 54.9792
4001.43 36.8875
4001.48 26.5411
4001.53 20.2563
4001.58 16.2111
4001.63 13.4756
4001.73 10.1434
4001.83 8.28036
4001.93 7.13924
4002.13 5.87623
4002.33 5.23153
4002.53 4.85923
4002.93 4.46822
4003.33 4.27747
4003.73 4.16995
4004.53 4.05855
4006.13 3.97438
4007.73 3.94971
4009.33 3.96447
4010.13 3.99762
4010.93 4.07029
4011.73 4.23930
4012.13 4.41126
4012.53 4.72323
4012.73 4.98225
4012.93 5.37027
4013.13 5.98760
4013.33 7.05414
4013.53 9.13024
4013.63 10.9912
4013.73 14.0025
4013.83 19.3175
4013.93 29.9048
4013.98 39.4962
4014.03 54.9136
4014.08 81.0081
4014.13 126.283
4014.19 199.868
4014.24 249.165
4014.29 200.168
4014.34 126.676
4014.38 89.3369
4014.42 64.5239
4014.46 48.4441
4014.50 37.7168
4014.58 25.0276
4014.66 18.2861
4014.74 14.2373
4014.82 11.6615
4014.98 8.71738
4015.14 7.14811
4015.30 6.22532
4015.46 5.63066
4015.62 5.22950
4015.94 4.73275
4016.26 4.44858
4016.89 4.15010
4017.53 4.00129
4018.17 3.91413
4019.45 3.81590
4022.00 3.71848
4024.55 3.65701
4029.65 3.55557
4034.75 3.45538
4039.85 3.34738
4044.95 3.22863
4047.50 3.16663
4050.06 3.11093
4051.33 3.09681
4052.61 3.12606
4053.24 3.20016
4053.56 3.28241
4053.88 3.43620
4054.20 3.76172
4054.36 4.07487
4054.52 4.61135
4054.68 5.65476
4054.76 6.58265
4054.84 8.04628
4054.92 10.6137
4055.00 15.5081
4055.04 19.8490
4055.08 26.6128
4055.12 37.5850
4055.16 55.1941
4055.20 86.4814
4055.25 107.548
4055.30 86.5767
4055.34 55.3128
4055.38 37.6948
4055.42 26.9209
4055.46 20.0626
4055.50 15.7512
4055.58 10.7443
4055.66 8.16922
4055.74 6.65375
4055.82 5.71249
4055.97 4.63370
4056.13 4.06700
4056.29 3.73216
4056.60 3.37003
4056.91 3.18534
4057.23 3.07557
4057.86 2.95023
4059.11 2.82406
4060.37 2.74305
4062.88 2.60658
4065.39 2.46914
4070.42 2.15051
4075.44 1.73886
4077.95 1.48541
4080.47 1.19561
4082.98 0.875791
4085.49 0.569599
4086.75 0.468796
4088.00 0.475168
4088.32 0.507205
4088.63 0.557439
4089.26 0.731129
4089.89 1.04729
4090.51 1.59037
4090.83 1.98884
4091.14 2.50582
4091.77 4.05677
4092.40 6.74952
4092.71 8.81597
4093.03 11.6376
4093.34 15.5625
4093.65 21.1467
4093.97 29.3116
4094.28 41.6493
4094.60 61.0349
4094.91 92.8751
4095.22 147.503
4095.54 243.039
4095.90 423.882
4096.26 576.536
4096.63 500.354
4096.99 337.851
4097.23 257.372
4097.46 199.955
4097.93 129.875
4098.40 91.9524
4098.87 69.5874
4099.34 55.2738
4099.81 45.5751
4100.75 33.5339
4101.69 26.5307
4102.63 22.0482
4104.51 16.7377
4106.40 13.7542
4108.28 11.8687
4110.16 10.5776
4112.04 9.64151
4115.80 8.37863
4119.56 7.56765
4123.33 7.00199
4127.09 6.58401
4134.61 6.00368
4142.14 5.61625
4145.90 5.46752
4149.66 5.34476
4151.55 5.29690
4153.43 5.27183
4154.37 5.28520
4155.31 5.36534
4155.78 5.49104
4156.01 5.61629
4156.25 5.83864
4156.48 6.28494
4156.60 6.69885
4156.72 7.38308
4156.84 8.65772
4156.90 9.74219
4156.95 11.3701
4157.01 14.0634
4157.07 18.8252
4157.13 28.0782
4157.16 35.8014
4157.19 47.2024
4157.24 72.3929
4157.28 88.9315
4157.33 72.1259
4157.37 46.8589
4157.41 32.7639
4157.45 24.2305
4157.49 18.7783
4157.53 15.3455
4157.61 11.3500
4157.68 9.29361
4157.76 8.08323
4157.83 7.33252
4157.99 6.47413
4158.14 6.02332
4158.29 5.76086
4158.60 5.48042
4159.21 5.26071
4159.83 5.17640
4161.05 5.11391
4162.28 5.10848
4163.50 5.16423
4164.11 5.24015
4164.73 5.39154
4165.34 5.72683
4165.64 6.05863
4165.95 6.64899
4166.10 7.13508
4166.26 7.84942
4166.41 8.96599
4166.56 10.8486
4166.72 14.3805
4166.79 17.4509
4166.87 22.1605
4166.95 30.1099
4167.02 44.3874
4167.06 56.4966
4167.10 73.8129
4167.14 99.7068
4167.18 139.164
4167.23 219.483
4167.29 273.952
4167.34 219.767
4167.39 139.536
4167.45 86.4711
4167.51 57.5552
4167.56 41.0472
4167.62 31.0233
4167.68 24.5694
4167.73 20.2021
4167.84 14.8753
4167.96 11.8701
4168.07 10.0449
4168.29 8.01590
4168.52 6.97027
4168.74 6.36582
4168.97 5.98285
4169.19 5.72435
4169.64 5.40556
4170.09 5.22268
4170.98 5.02580
4171.88 4.92241
4172.78 4.85721
4174.57 4.77415
4178.16 4.67160
4181.75 4.59477
4188.92 4.46427
4196.10 4.34620
4210.45 4.12262
4224.81 3.89660
4239.16 3.64875
4253.51 3.35463
4260.69 3.17896
4267.87 2.97625
4271.45 2.86433
4275.04 2.75301
4276.84 2.71039
4278.63 2.71667
4279.53 2.78970
4279.98 2.88039
4280.42 3.05823
4280.87 3.44803
4281.10 3.82945
4281.32 4.49961
4281.55 5.83699
4281.66 7.05266
4281.77 9.05333
4281.88 12.6715
4281.94 15.6750
4281.99 20.1658
4282.05 27.2496
4282.11 39.1667
4282.16 60.6723
4282.22 101.406
4282.27 161.306
4282.32 200.557
4282.37 161.362
4282.42 101.474
4282.47 63.3916
4282.53 41.8384
4282.58 29.4936
4282.63 21.9846
4282.68 17.1450
4282.73 13.8682
4282.84 9.86907
4282.94 7.62689
4283.05 6.24927
4283.25 4.72169
4283.46 3.92987
4283.67 3.46909
4284.08 2.97211
4284.50 2.71750
4284.91 2.56458
4285.74 2.38398
4287.41 2.18443
4289.07 2.03937
4292.39 1.76360
4295.71 1.45335
4299.03 1.08470
4300.69 0.881688
4302.35 0.691435
4304.01 0.612028
4304.84 0.722549
4305.26 0.869959
4305.67 1.12869
4306.09 1.57282
4306.50 2.33501
4306.71 2.91202
4306.92 3.68338
4307.13 4.74009
4307.33 6.20065
4307.54 8.28734
4307.75 11.3271
4307.96 15.9664
4308.16 23.3119
4308.37 35.7772
4308.58 58.3630
4308.68 76.8750
4308.79 103.584
4308.89 142.811
4308.99 199.767
4309.16 339.040
4309.33 455.714
4309.50 391.644
4309.67 258.675
4309.84 165.591
4310.01 112.177
4310.18 80.5087
4310.35 60.8704
4310.52 47.8304
4310.69 38.8488
4311.03 27.4952
4311.37 20.8463
4311.71 16.5850
4312.39 11.5617
4313.08 8.75798
4313.76 6.98697
4315.12 4.86866
4316.49 3.61276
4317.85 2.74389
4320.58 1.54583
4321.94 1.12175
4323.30 0.840969
4323.99 0.786478
4324.67 0.824952
4325.35 1.00533
4326.03 1.40991
4326.37 1.73734
4326.71 2.18158
4327.06 2.77898
4327.40 3.57972
4327.74 4.65418
4328.08 6.10295
4328.42 8.07283
4328.76 10.7833
4329.10 14.5711
4329.44 19.9698
4329.78 27.8530
4330.12 39.7060
4330.47 58.1538
4330.81 87.9892
4331.15 138.012
4331.49 222.583
4331.91 393.391
4332.34 538.299
4332.76 469.532
4333.18 320.133
4333.50 235.540
4333.83 178.025
4334.15 139.108
4334.47 112.189
4335.11 78.6423
4335.75 59.4517
4336.39 47.4200
4337.03 39.3333
4338.31 29.3614
4339.59 23.5756
4340.88 19.8546
4343.44 15.4092
4346.00 12.8739
4348.57 11.2444
4351.13 10.1102
4353.70 9.27466
4358.83 8.12149
4363.95 7.35699
4374.21 6.38473
4384.47 5.76561
4394.72 5.31021
4415.24 4.60157
4435.75 3.93066
4446.01 3.53865
4456.26 3.05446
4461.39 2.75591
4466.52 2.40191
4471.65 1.97378
4476.77 1.45306
4479.34 1.15865
4481.90 0.856677
4484.47 0.592321
4485.75 0.510428
4487.03 0.505887
4487.67 0.552171
4488.31 0.647510
4488.95 0.810886
4489.60 1.06950
4490.24 1.46305
4490.88 2.05077
4491.52 2.92331
4492.16 4.22343
4492.80 6.18404
4493.44 9.20098
4494.08 13.9808
4494.72 21.8609
4495.36 35.5549
4496.01 61.0207
4496.33 82.0327
4496.65 112.307
4496.97 156.834
4497.29 221.739
4498.39 536.878
4498.83 505.485
4499.05 468.429
4499.16 469.878
4499.21 488.100
4499.27 530.811
4499.33 609.825
4499.39 657.759
4499.44 596.805
4499.49 500.377
4499.50 470.288
4499.55 408.098
4499.60 364.657
4499.70 310.539
4499.79 276.576
4499.89 251.784
4500.08 214.646
4500.27 186.743
4500.65 146.340
4501.03 118.543
4501.80 83.6927
4502.56 63.4909
4503.33 50.6894
4504.09 42.0445
4505.62 31.3311
4507.15 25.0946
4508.68 21.0871
4510.20 18.3217
4511.73 16.3110
4514.79 13.6002
4517.85 11.8677
4520.90 10.6680
4523.96 9.78815
4530.07 8.57873
4536.19 7.77830
4542.30 7.19930
4548.41 6.75142
4560.64 6.07163
4572.86 5.52777
4578.98 5.27323
4585.09 5.02388
4588.15 4.90919
4591.20 4.82953
4592.73 4.83435
4594.26 4.94491
4595.02 5.12092
4595.41 5.29067
4595.79 5.58219
4596.17 6.14874
4596.36 6.66338
4596.55 7.52093
4596.74 9.13071
4596.84 10.5469
4596.93 12.7750
4597.03 16.6828
4597.13 24.2520
4597.17 31.0944
4597.22 42.0254
4597.27 60.4123
4597.32 91.2246
4597.37 141.530
4597.42 172.834
4597.47 136.839
4597.52 86.3990
4597.58 50.4452
4597.64 32.3864
4597.70 22.8186
4597.75 17.3968
4597.81 13.9854
4597.87 11.7930
4597.99 9.20525
4598.11 7.83182
4598.22 7.05360
4598.46 6.30447
4598.69 6.05690
4598.93 6.06557
4599.39 6.63098
4599.86 8.20123
4600.10 9.77219
4600.33 12.4896
4600.57 17.7600
4600.68 22.3958
4600.80 29.7516
4600.92 42.3420
4601.04 66.1924
4601.09 86.8731
4601.15 117.778
4601.21 167.201
4601.27 244.025
4601.34 391.020
4601.42 488.198
4601.49 390.959
4601.57 246.987
4601.61 183.446
4601.66 138.869
4601.75 86.0825
4601.84 58.2518
4601.93 42.2384
4602.02 32.3030
4602.11 25.7539
4602.30 17.9629
4602.48 13.6931
4602.66 11.1036
4603.02 8.24718
4603.39 6.77586
4603.75 5.91386
4604.12 5.35680
4604.48 4.97014
4605.21 4.46671
4605.94 4.14610
4607.40 3.72542
4608.85 3.41503
4610.31 3.13476
4613.22 2.55247
4614.68 2.22355
4616.14 1.86227
4617.59 1.48058
4619.05 1.14259
4619.78 1.05422
4620.51 1.11358
4620.87 1.24789
4621.24 1.49883
4621.60 1.92772
4621.97 2.63326
4622.33 3.78492
4622.51 4.60877
4622.69 5.66712
4623.06 8.81856
4623.42 14.2969
4623.60 18.5322
4623.79 24.3634
4623.97 32.5570
4624.15 44.3421
4624.33 61.7367
4624.51 88.0998
4624.70 128.925
4624.88 192.243
4625.15 341.069
4625.43 468.532
4625.70 410.157
4625.97 280.804
4626.25 187.795
4626.53 132.568
4626.81 99.1553
4627.09 77.8145
4627.37 63.4309
4627.65 53.2766
4628.21 40.1990
4628.76 32.3043
4629.32 27.1338
4630.44 20.8725
4631.55 17.2861
4632.67 14.9940
4633.78 13.4120
4634.90 12.2586
4637.13 10.6933
4639.36 9.68278
4641.59 8.97552
4643.82 8.45144
4648.28 7.72204
4652.74 7.23285
4661.66 6.60167
4670.58 6.19430
4679.50 5.89591
4683.96 5.77284
4688.43 5.66775
4690.66 5.62850
4692.89 5.62004
4694.00 5.65590
4694.56 5.70440
4695.12 5.80228
4695.67 6.02126
4695.95 6.23941
4696.23 6.62678
4696.51 7.41406
4696.65 8.15131
4696.79 9.38477
4696.93 11.7141
4697.00 13.7246
4697.07 16.7950
4697.14 21.9616
4697.21 31.1668
4697.24 38.8112
4697.28 49.9616
4697.31 66.5894
4697.35 90.8349
4697.40 141.933
4697.45 176.423
4697.50 142.121
4697.55 91.0757
4697.61 54.7017
4697.67 36.0564
4697.72 25.9296
4697.78 19.9907
4697.84 16.2599
4697.90 13.7804
4698.01 10.8099
4698.13 9.17399
4698.25 8.18072
4698.48 7.08805
4698.71 6.52970
4698.94 6.20796
4699.41 5.86609
4699.87 5.69447
4700.34 5.59410
4701.26 5.48156
4703.12 5.37326
4704.98 5.30922
4708.69 5.21366
4712.41 5.13081
4727.27 4.81842
4742.13 4.48370
4756.98 4.07674
4771.84 3.51539
4779.27 3.12633
4786.70 2.61173
4790.42 2.28582
4794.13 1.89863
4797.85 1.43914
4801.56 0.913806
4803.42 0.648639
4805.28 0.426428
4806.21 0.357853
4807.13 0.345527
4807.60 0.371551
4808.06 0.427571
4808.99 0.668584
4809.46 0.881984
4809.92 1.18355
4810.38 1.60440
4810.85 2.18420
4811.31 2.98446
4811.78 4.08686
4812.24 5.61847
4812.71 7.76974
4813.17 10.8457
4813.63 15.3132
4814.10 21.9805
4814.56 32.2492
4815.03 48.7244
4815.49 76.2259
4815.96 124.262
4816.42 209.775
4816.95 373.030
4817.49 512.997
4818.02 449.288
4818.55 307.597
4818.92 232.483
4819.29 179.723
4819.66 142.867
4820.03 116.649
4820.77 83.1527
4821.51 63.5456
4822.25 51.0440
4822.99 42.5669
4824.47 32.0180
4825.96 25.8564
4827.44 21.9061
4828.18 20.4553
4828.92 19.3153
4829.29 18.9148
4829.66 18.8074
4829.84 19.0701
4829.94 19.4107
4830.03 20.0356
4830.12 21.2568
4830.21 23.8225
4830.26 26.2973
4830.31 30.3168
4830.35 37.3375
4830.40 50.0442
4830.44 69.6728
4830.49 82.8428
4830.54 69.5523
4830.58 49.7780
4830.63 36.0137
4830.68 28.6882
4830.74 24.6796
4830.79 22.3416
4830.89 19.7888
4830.99 18.5241
4831.10 17.7737
4831.20 17.2831
4831.41 16.6545
4831.82 15.9244
4832.23 15.4318
4833.06 14.6746
4833.89 14.0580
4835.54 13.0534
4837.19 12.2546
4840.50 11.0525
4843.81 10.1893
4850.42 9.02922
4857.03 8.28185
4863.65 7.75590
4870.26 7.36196
4883.49 6.80005
4896.71 6.40386
4909.94 6.09567
4916.55 5.96422
4923.17 5.85281
4926.47 5.81633
4929.78 5.82967
4931.43 5.90255
4932.26 5.98951
4933.09 6.15817
4933.91 6.52710
4934.33 6.89120
4934.74 7.53951
4934.95 8.07195
4935.15 8.86180
4935.36 10.1040
4935.57 12.2053
4935.77 16.2230
4935.88 19.7259
4935.98 25.2549
4936.08 34.7933
4936.19 52.6690
4936.24 68.1594
4936.29 91.2309
4936.34 128.198
4936.39 186.799
4936.46 295.506
4936.52 367.771
4936.59 295.276
4936.65 186.447
4936.71 126.065
4936.76 88.6871
4936.81 65.3685
4936.87 50.2607
4936.98 32.9094
4937.08 23.9280
4937.19 18.6551
4937.30 15.3439
4937.51 11.6031
4937.73 9.63816
4937.95 8.49105
4938.16 7.76067
4938.38 7.26695
4938.81 6.65958
4939.24 6.31398
4940.10 5.95201
4940.96 5.77128
4941.82 5.66463
4943.54 5.54234
4945.27 5.47181
4946.99 5.43255
4947.85 5.43353
4948.71 5.48375
4949.14 5.57250
4949.57 5.82791
4949.79 6.16303
4950.00 6.98779
4950.11 7.94103
4950.22 9.94277
4950.27 11.8986
4950.33 15.2850
4950.38 21.6518
4950.43 34.2294
4950.48 51.5444
4950.53 63.4620
4950.57 51.7893
4950.62 34.5369
4950.67 22.7725
4950.71 16.5041
4950.76 12.9632
4950.81 10.8282
4950.91 8.52051
4951.00 7.40419
4951.20 6.39030
4951.39 5.96066
4951.78 5.60720
4952.16 5.46437
4952.93 5.34313
4953.70 5.28630
4955.25 5.22060
4956.79 5.17318
4962.96 5.01157
4969.14 4.84557
4975.31 4.65930
4987.66 4.17713
4993.83 3.84270
5000.00 3.39900
5003.34 3.09034
5006.68 2.71323
5010.02 2.24503
5013.37 1.66166
5015.04 1.32560
5016.71 0.974928
5018.38 0.656652
5019.21 0.548231
5020.05 0.520194
5020.47 0.557163
5020.88 0.645901
5021.30 0.806525
5021.72 1.06698
5022.14 1.47012
5022.55 2.07547
5022.97 2.97945
5023.39 4.32303
5023.81 6.34719
5024.22 9.44188
5024.64 14.2926
5025.06 22.1351
5025.48 35.4549
5025.89 59.2395
5026.10 78.1510
5026.31 104.585
5026.52 141.837
5026.73 193.736
5027.14 347.028
5027.55 478.708
5027.96 420.421
5028.37 289.416
5028.76 199.392
5029.15 143.839
5029.54 109.176
5029.94 86.5356
5030.72 59.9407
5031.50 45.4668
5032.28 36.6423
5033.06 30.8069
5034.63 23.7015
5036.19 19.6069
5037.75 16.9795
5039.32 15.1638
5040.88 13.8408
5044.01 12.0476
5047.14 10.8951
5050.26 10.0943
5053.39 9.50705
5059.65 8.70916
5062.77 8.43197
5065.90 8.21637
5069.03 8.06778
5070.59 8.03206
5072.16 8.04734
5073.72 8.17881
5074.50 8.34763
5075.28 8.68043
5075.67 8.96855
5076.06 9.41024
5076.46 10.1280
5076.85 11.3963
5077.24 13.9378
5077.43 16.2898
5077.63 20.1922
5077.82 27.4360
5077.92 33.5905
5078.02 42.8914
5078.12 58.1602
5078.21 84.6774
5078.31 136.180
5078.36 179.713
5078.41 241.708
5078.49 382.479
5078.57 475.856
5078.64 382.456
5078.72 241.624
5078.77 181.747
5078.82 139.045
5078.91 87.5623
5079.00 60.3222
5079.10 44.7622
5079.19 34.9855
5079.28 28.6085
5079.47 20.9816
5079.66 16.8153
5079.85 14.3002
5080.22 11.5490
5080.59 10.1558
5080.97 9.35210
5081.34 8.84482
5081.72 8.50256
5082.46 8.07901
5083.21 7.83256
5084.71 7.55922
5086.21 7.40704
5087.70 7.30507
5090.69 7.16532
5093.69 7.06401
5096.68 6.98131
5102.67 6.84642
5108.65 6.73630
5114.64 6.64261
5126.61 6.48921
5138.58 6.36745
5150.55 6.26833
5162.53 6.19084
5165.52 6.17872
5168.51 6.17954
5170.01 6.19662
5171.50 6.25939
5172.25 6.35116
5173.00 6.60607
5173.37 6.94218
5173.56 7.26100
5173.75 7.80978
5173.94 8.87440
5174.03 9.83293
5174.12 11.3653
5174.22 14.0976
5174.31 19.4779
5174.36 24.4025
5174.40 32.3460
5174.45 45.8551
5174.50 69.1702
5174.55 107.041
5174.60 132.024
5174.64 106.903
5174.69 68.9873
5174.74 44.2163
5174.80 30.5387
5174.85 22.7914
5174.90 18.1887
5174.95 15.1685
5175.00 13.1677
5175.10 10.7024
5175.20 9.32411
5175.30 8.47971
5175.50 7.54461
5175.71 7.06508
5175.91 6.78957
5176.31 6.49965
5177.12 6.27752
5177.93 6.19392
5179.55 6.12751
5181.16 6.09876
5184.40 6.06821
5187.63 6.04801
5200.57 5.99286
5207.04 5.97867
5213.51 5.99189
5216.75 6.03424
5218.36 6.08282
5219.98 6.17640
5221.60 6.38188
5222.41 6.58719
5223.21 6.95783
5223.62 7.26697
5224.02 7.73118
5224.43 8.47556
5224.83 9.77872
5225.24 12.3829
5225.44 14.7741
5225.64 18.7554
5225.84 26.0928
5225.94 32.3083
5226.04 41.7962
5226.15 57.2012
5226.25 84.2218
5226.35 136.096
5226.40 180.312
5226.45 243.527
5226.53 386.379
5226.61 481.369
5226.69 386.537
5226.77 243.715
5226.84 169.519
5226.90 122.283
5226.96 91.2045
5227.02 70.8263
5227.14 46.5007
5227.26 33.5440
5227.39 25.8096
5227.51 20.9229
5227.75 15.2792
5228.00 12.2936
5228.24 10.5292
5228.49 9.40155
5228.73 8.63773
5229.23 7.69788
5229.72 7.16558
5230.21 6.83433
5230.70 6.61405
5231.68 6.34766
5232.66 6.19843
5234.62 6.04381
5236.58 5.96748
5238.54 5.92271
5242.46 5.87166
5250.30 5.82009
5258.14 5.78837
5265.98 5.76447
5273.83 5.74884
5277.75 5.74918
5281.67 5.77183
5283.63 5.81382
5284.61 5.85873
5285.59 5.94318
5286.57 6.12594
5287.06 6.30731
5287.55 6.63362
5288.04 7.30871
5288.28 7.95389
5288.53 9.07252
5288.77 11.2641
5288.90 13.2529
5289.02 16.4697
5289.14 22.2631
5289.20 26.9754
5289.26 33.9223
5289.33 44.8953
5289.39 62.6605
5289.45 93.5805
5289.51 150.021
5289.57 236.301
5289.63 295.037
5289.69 236.813
5289.75 150.713
5289.80 101.294
5289.86 71.0799
5289.91 52.4654
5289.96 40.7038
5290.06 27.1000
5290.17 20.0375
5290.27 15.9158
5290.37 13.3581
5290.58 10.4558
5290.79 8.93196
5290.99 8.04250
5291.20 7.47604
5291.40 7.09311
5291.82 6.62236
5292.23 6.35584
5293.05 6.07880
5293.88 5.94442
5294.70 5.86853
5296.35 5.78901
5299.65 5.72508
5302.95 5.69699
5309.55 5.66708
5316.15 5.64755
5329.36 5.61831
5335.96 5.61145
5339.26 5.63225
5340.08 5.65858
5340.91 5.73426
5341.32 5.83672
5341.73 6.10735
5341.94 6.45034
5342.14 7.27763
5342.25 8.21396
5342.35 10.1704
5342.40 12.0611
5342.45 15.2139
5342.50 21.1145
5342.56 32.4720
5342.60 48.5000
5342.65 59.4784
5342.69 48.5976
5342.74 32.5948
5342.77 24.9669
5342.80 19.7713
5342.86 13.9173
5342.92 10.9314
5342.98 9.29829
5343.11 7.65129
5343.23 6.89545
5343.48 6.24670
5343.72 5.98387
5344.21 5.77651
5344.71 5.69746
5345.69 5.63669
5346.67 5.61323
5350.61 5.58415
5358.48 5.56440
5374.22 5.53686
5405.70 5.49004
5437.18 5.44948
5468.66 5.41410
5500.14 5.38410
5515.88 5.37175
5531.62 5.36223
5547.37 5.35781
5555.24 5.35926
5563.11 5.36549
5570.98 5.38129
5578.85 5.42182
5582.78 5.46891
5584.75 5.51036
5586.72 5.57847
5588.68 5.70787
5589.67 5.82557
5590.65 6.02513
5591.64 6.41794
5592.13 6.78346
5592.62 7.41128
5592.87 7.91400
5593.11 8.64882
5593.36 9.78952
5593.60 11.7111
5593.85 15.3512
5593.97 18.5448
5594.10 23.6217
5594.22 32.3913
5594.34 49.3679
5594.40 64.4866
5594.46 87.7792
5594.53 125.735
5594.59 188.471
5594.66 296.389
5594.73 365.557
5594.80 290.696
5594.86 182.438
5594.92 126.268
5594.97 90.2743
5595.02 67.1591
5595.08 51.8571
5595.18 33.9265
5595.29 24.4910
5595.39 18.9069
5595.50 15.3906
5595.71 11.4244
5595.92 9.35745
5596.13 8.16611
5596.35 7.41684
5596.56 6.92283
5596.98 6.33516
5597.40 6.02105
5598.25 5.73703
5599.09 5.66225
5599.94 5.75573
5600.36 5.94173
5600.79 6.45659
5601.00 7.10764
5601.10 7.70009
5601.21 8.66257
5601.32 10.4156
5601.37 11.8723
5601.42 14.0039
5601.47 17.4249
5601.53 23.1996
5601.58 33.6739
5601.63 53.0793
5601.68 81.3381
5601.73 100.071
5601.78 80.8242
5601.82 52.4142
5601.88 32.2696
5601.93 21.8415
5601.99 16.2681
5602.05 13.0842
5602.10 11.0594
5602.16 9.74505
5602.27 8.16379
5602.38 7.29442
5602.49 6.77650
5602.71 6.21269
5603.16 5.76936
5603.60 5.60535
5604.49 5.48987
5605.38 5.45665
5607.16 5.45404
5608.94 5.48202
5612.50 5.59335
5616.06 5.81126
5617.84 5.99780
5619.62 6.28408
5621.40 6.75444
5623.18 7.60253
5624.07 8.30702
5624.96 9.36481
5625.85 11.0545
5626.74 13.9875
5627.63 19.7544
5628.07 24.9717
5628.51 33.4687
5628.96 48.6870
5629.18 61.2037
5629.40 79.6103
5629.63 108.295
5629.85 155.191
5630.07 236.815
5630.29 383.113
5630.52 612.060
5630.74 764.177
5630.96 612.287
5631.18 385.622
5631.37 253.749
5631.57 174.639
5631.76 126.170
5631.95 95.1773
5632.34 59.9534
5632.73 41.8489
5633.11 31.3790
5633.50 24.8400
5634.27 17.4288
5635.04 13.5593
5635.82 11.2886
5636.59 9.84287
5637.36 8.86533
5638.91 7.66484
5640.46 6.98216
5642.00 6.55614
5643.55 6.27201
5646.64 5.92658
5649.73 5.73138
5652.82 5.60939
5655.91 5.52741
5662.10 5.42575
5668.28 5.36618
5671.37 5.34639
5674.46 5.33815
5676.01 5.34868
5677.56 5.40431
5678.33 5.49695
5678.72 5.59476
5679.10 5.77678
5679.49 6.16657
5679.68 6.54531
5679.87 7.20883
5680.07 8.51766
5680.16 9.70850
5680.26 11.6255
5680.36 15.0604
5680.45 21.8450
5680.50 28.1296
5680.55 38.0299
5680.60 54.6870
5680.65 84.0073
5680.70 132.388
5680.75 165.339
5680.80 134.356
5680.86 86.6103
5680.90 60.0104
5680.94 43.7016
5680.98 33.1536
5681.03 26.4133
5681.11 18.4694
5681.20 14.2732
5681.28 11.8104
5681.37 10.2475
5681.54 8.45237
5681.71 7.49891
5681.88 6.93132
5682.21 6.31610
5682.55 6.00311
5682.89 5.82177
5683.57 5.62722
5684.93 5.47079
5686.29 5.40685
5689.01 5.35092
5691.72 5.32442
5697.15 5.29599
5702.59 5.27887
5713.45 5.25618
5724.32 5.24010
5746.05 5.21626
5767.78 5.19770
5811.25 5.16780
5832.98 5.15723
5843.85 5.16003
5849.28 5.18125
5850.64 5.20052
5852.00 5.24959
5852.67 5.31232
5853.35 5.47611
5853.69 5.68615
5854.03 6.21679
5854.20 6.86132
5854.37 8.35251
5854.46 9.95860
5854.54 13.1152
5854.59 15.9785
5854.63 20.4142
5854.67 27.7460
5854.71 40.2658
5854.76 61.0826
5854.81 75.0614
5854.85 60.8238
5854.90 39.9349
5854.94 27.4327
5854.98 20.1361
5855.03 15.7348
5855.07 12.9545
5855.15 9.84054
5855.24 8.25657
5855.40 6.78532
5855.57 6.15942
5855.91 5.64965
5856.25 5.45513
5856.92 5.31345
5857.59 5.26923
5858.94 5.26010
5860.29 5.30197
5861.64 5.41488
5862.31 5.53110
5862.99 5.74286
5863.66 6.18654
5864.00 6.61586
5864.33 7.37064
5864.67 8.88271
5864.84 10.2867
5865.01 12.6242
5865.18 16.9977
5865.26 20.7151
5865.34 26.4334
5865.43 35.8161
5865.51 52.5262
5865.60 85.3456
5865.64 113.596
5865.68 154.739
5865.75 245.447
5865.81 304.809
5865.87 244.242
5865.94 155.113
5866.00 96.4995
5866.07 64.4617
5866.14 45.8220
5866.20 34.6564
5866.27 27.3444
5866.33 22.4681
5866.46 16.4952
5866.59 13.1150
5866.72 11.0411
5866.98 8.74644
5867.25 7.56592
5867.51 6.88492
5868.03 6.16629
5868.55 5.81578
5869.08 5.61917
5870.12 5.41879
5871.17 5.32544
5872.21 5.27686
5874.31 5.24190
5876.40 5.26558
5877.44 5.31156
5878.49 5.40944
5879.54 5.63620
5880.06 5.86873
5880.58 6.29502
5880.84 6.65297
5881.10 7.19100
5881.37 8.05695
5881.63 9.55904
5881.89 12.5185
5882.02 15.1888
5882.15 19.4879
5882.28 27.1502
5882.41 42.2921
5882.48 56.2145
5882.54 78.2236
5882.61 115.213
5882.67 178.621
5882.74 285.035
5882.81 355.463
5882.88 285.774
5882.95 181.987
5883.01 123.942
5883.07 88.2794
5883.13 65.6960
5883.18 50.8817
5883.30 33.5263
5883.41 24.4457
5883.53 19.0738
5883.64 15.6998
5883.87 11.8253
5884.10 9.76413
5884.33 8.54689
5884.56 7.76139
5884.78 7.22850
5885.24 6.56487
5885.70 6.18384
5886.61 5.78122
5887.53 5.58139
5888.44 5.46665
5890.27 5.34437
5893.93 5.24587
5897.59 5.20518
5904.90 5.16916
5912.22 5.15194
5926.85 5.13321
5941.48 5.12145
5970.74 5.10439
6000.00 5.09063
6000.00 9.07612
7000.00 8.74805
8000.00 8.49197
8239.07 8.44173
8485.28 8.39180
9000.00 8.29284
9000.00 8.29284
9000.00 8.29284
9500.00 8.20303
10000.0 8.11875
10625.0 8.03215
11250.0 7.95227
11875.0 7.87825
12500.0 7.80935
12808.7 7.78037
13125.0 7.75172
13433.9 7.72471
13750.0 7.69799
14361.4 7.64878
15000.0 7.60054
16250.0 7.52207
17000.0 7.47873
17500.0 7.45428
18750.0 7.39724
20000.0 7.34530
21250.0 7.30571
22500.0 7.26939
23750.0 7.23591
25000.0 7.20490
26250.0 7.18234
27500.0 7.16152
28750.0 7.14223
30000.0 7.12429
32500.0 7.09959
35000.0 7.07824
37500.0 7.06482
40000.0 7.05349
42500.0 7.04795
45000.0 7.04413
47500.0 7.04171
50000.0 7.04042
52500.0 7.04294
55000.0 7.04589
57500.0 7.04918
60000.0 7.05275
62500.0 7.05843
65000.0 7.06434
67500.0 7.07045
70000.0 7.07670
75000.0 7.09130
80000.0 7.10550
85000.0 7.12123
90000.0 7.13650
95000.0 7.15132
99999.9 7.16570
100000 7.14157
110668 7.20532
119410 7.25351
133834 7.32639
150000 7.40000
173205 7.47462
200000 7.55000
236435 7.57060
247632 7.57631
247767 7.57638
250000 7.57748
265955 7.58519
279296 7.59124
300000 7.60000
301268 7.59896
310825 7.59127
319126 7.58480
345010 7.56575
373883 7.54629
387298 7.53782
399602 7.53017
400000 7.52993
420389 7.49617
436941 7.47009
463706 7.43017
485297 7.39982
500000 7.38000
517565 7.35510
526966 7.34219
563244 7.29466
589217 7.26277
600000 7.24999
600798 7.24851
622965 7.20820
625639 7.20343
638726 7.18054
638917 7.18021
653522 7.15528
663736 7.13822
664844 7.13638
682196 7.10814
687084 7.10035
700000 7.08000
706366 7.06976
714830 7.05629
748331 7.00460
760858 6.98602
800000 6.93000
862941 6.83321
874381 6.81650
874637 6.81613
891494 6.79199
900000 6.78000
997230 6.64365
1.00000E+06 6.64000
1.01701E+06 6.60970
1.02928E+06 6.58824
1.08272E+06 6.49796
1.13616E+06 6.41424
1.14028E+06 6.40795
1.14424E+06 6.40194
1.18218E+06 6.34567
1.20000E+06 6.31999
1.20082E+06 6.31905
1.20527E+06 6.31396
1.20547E+06 6.31374
1.22001E+06 6.29725
1.22356E+06 6.29328
1.22961E+06 6.28650
1.23402E+06 6.28160
1.23881E+06 6.27631
1.25000E+06 6.26402
1.29417E+06 6.21665
1.29466E+06 6.21613
1.31676E+06 6.19320
1.32342E+06 6.18639
1.34210E+06 6.16750
1.37284E+06 6.13712
1.37598E+06 6.13406
1.42695E+06 6.08567
1.44460E+06 6.06942
1.48143E+06 6.03631
1.48672E+06 6.03164
1.48924E+06 6.02942
1.50000E+06 6.02000
1.50803E+06 6.00912
1.52250E+06 5.98971
1.55656E+06 5.94497
1.61667E+06 5.86913
1.64341E+06 5.83658
1.64342E+06 5.83658
1.65831E+06 5.81875
1.70000E+06 5.77001
1.73295E+06 5.72876
1.73709E+06 5.72365
1.74714E+06 5.71133
1.74790E+06 5.71040
1.75000E+06 5.70783
1.77266E+06 5.68048
1.79223E+06 5.65724
1.79967E+06 5.64849
1.82580E+06 5.61816
1.88655E+06 5.54986
1.93108E+06 5.50168
1.95612E+06 5.47523
1.98877E+06 5.44145
2.00000E+06 5.43000
2.02186E+06 5.40009
2.02259E+06 5.39909
2.06545E+06 5.34192
2.09788E+06 5.29984
2.12454E+06 5.26599
2.12455E+06 5.26598
2.12991E+06 5.25924
2.14400E+06 5.24165
2.18255E+06 5.19439
2.18292E+06 5.19395
2.20545E+06 5.16688
2.22289E+06 5.14632
2.24037E+06 5.12589
2.26023E+06 5.10297
2.29414E+06 5.06456
2.32695E+06 5.02821
2.32695E+06 5.02821
2.35280E+06 5.00010
2.35683E+06 4.99575
2.36087E+06 4.99141
2.36087E+06 4.99140
2.37661E+06 4.97459
2.38237E+06 4.96849
2.38761E+06 4.96294
2.39308E+06 4.95718
2.47060E+06 4.87760
2.48671E+06 4.86357
2.50256E+06 4.84988
2.50927E+06 4.84412
2.50927E+06 4.84411
2.51235E+06 4.84148
2.51543E+06 4.83885
2.51543E+06 4.83885
2.52337E+06 4.83209
2.52694E+06 4.82906
2.52694E+06 4.82906
2.54602E+06 4.81295
2.54602E+06 4.81295
2.56129E+06 4.80020
2.56506E+06 4.79706
2.58471E+06 4.78081
2.58888E+06 4.77740
2.62582E+06 4.74740
2.64419E+06 4.73270
2.64707E+06 4.73041
2.69375E+06 4.69377
2.70001E+06 4.68893
2.70677E+06 4.68372
2.73220E+06 4.66429
2.76561E+06 4.63915
2.79936E+06 4.61419
2.81197E+06 4.60497
2.83395E+06 4.58906
2.88413E+06 4.55340
2.89432E+06 4.54628
2.90441E+06 4.53926
2.93157E+06 4.52057
2.95346E+06 4.50566
3.00000E+06 4.47454
3.00170E+06 4.47357
3.00311E+06 4.47278
3.02209E+06 4.46231
3.07518E+06 4.43350
3.08598E+06 4.42772
3.10475E+06 4.41774
3.10984E+06 4.41504
3.13958E+06 4.39944
3.16733E+06 4.38506
3.19963E+06 4.36855
3.20406E+06 4.36630
3.25000E+06 4.34330
3.25374E+06 4.34144
3.33495E+06 4.30189
3.37927E+06 4.28086
3.46410E+06 4.24163
3.50000E+06 4.22542
3.50814E+06 4.22178
3.52478E+06 4.21439
3.66747E+06 4.15274
3.68141E+06 4.14691
3.72242E+06 4.12987
3.79217E+06 4.10153
3.90073E+06 4.05876
3.92949E+06 4.04774
4.00000E+06 4.02110
4.11314E+06 4.00711
4.11323E+06 4.00710
4.14286E+06 4.00347
4.26001E+06 3.98958
4.30373E+06 3.98447
4.38695E+06 3.97496
4.50000E+06 3.96231
4.53278E+06 3.95875
4.63053E+06 3.94821
4.68825E+06 3.94210
4.77182E+06 3.93326
4.85539E+06 3.92487
4.86393E+06 3.92402
5.00000E+06 3.91051
5.08752E+06 3.91713
5.11526E+06 3.91921
5.26401E+06 3.93019
5.26991E+06 3.93061
5.36139E+06 3.93720
5.39184E+06 3.93939
5.44251E+06 3.94297
5.47723E+06 3.94541
5.53784E+06 3.94967
5.62312E+06 3.95554
5.69255E+06 3.96029
5.80050E+06 3.96756
5.88502E+06 3.97315
5.93275E+06 3.97629
6.00000E+06 3.98066
6.02918E+06 3.98503
6.05837E+06 3.98940
6.08755E+06 3.99376
6.11673E+06 3.99812
6.15048E+06 4.00310
6.18424E+06 4.00807
6.21799E+06 4.01303
6.25174E+06 4.01799
6.26679E+06 4.02019
6.29890E+06 4.02484
6.33100E+06 4.02949
6.36311E+06 4.03413
6.39521E+06 4.03877
6.41659E+06 4.04182
6.43798E+06 4.04487
6.45936E+06 4.04793
6.48074E+06 4.05097
6.51104E+06 4.05526
6.54133E+06 4.05955
6.57417E+06 4.06416
6.60700E+06 4.06876
6.61530E+06 4.06992
6.64325E+06 4.07382
6.67119E+06 4.07771
6.69550E+06 4.08109
6.71544E+06 4.08384
6.73537E+06 4.08659
6.76904E+06 4.09122
6.80270E+06 4.09584
6.82295E+06 4.09860
6.84320E+06 4.10136
6.86580E+06 4.10443
6.88841E+06 4.10749
6.91101E+06 4.11055
6.93361E+06 4.11361
6.96681E+06 4.11807
7.00000E+06 4.12253
7.04460E+06 4.12987
7.08121E+06 4.13586
7.11782E+06 4.14185
7.17772E+06 4.15155
7.23762E+06 4.16125
7.26884E+06 4.16628
7.31771E+06 4.17409
7.36657E+06 4.18190
7.39769E+06 4.18684
7.40154E+06 4.18745
7.41965E+06 4.19032
7.43708E+06 4.19307
7.46027E+06 4.19673
7.47383E+06 4.19887
7.48005E+06 4.19985
7.48331E+06 4.20035
7.49776E+06 4.20263
7.54388E+06 4.20986
7.62077E+06 4.22179
7.69766E+06 4.23372
7.73734E+06 4.23982
7.75234E+06 4.24213
7.76754E+06 4.24445
7.80430E+06 4.25007
7.86927E+06 4.25992
7.93423E+06 4.26978
8.00000E+06 4.27966
8.01682E+06 4.28215
8.03364E+06 4.28464
8.05489E+06 4.28776
8.07615E+06 4.29089
8.09740E+06 4.29402
8.11865E+06 4.29714
8.14317E+06 4.30072
8.16770E+06 4.30429
8.19222E+06 4.30787
8.21674E+06 4.31144
8.23907E+06 4.31468
8.25474E+06 4.31695
8.27040E+06 4.31922
8.28655E+06 4.32154
8.30270E+06 4.32386
8.31885E+06 4.32618
8.33500E+06 4.32850
8.35114E+06 4.33082
8.36729E+06 4.33314
8.38344E+06 4.33547
8.39959E+06 4.33779
8.42101E+06 4.34083
8.44244E+06 4.34388
8.46386E+06 4.34693
8.48528E+06 4.34998
8.50042E+06 4.35213
8.51556E+06 4.35427
8.53069E+06 4.35642
8.54583E+06 4.35857
8.56350E+06 4.36105
8.58117E+06 4.36354
8.59946E+06 4.36612
8.62593E+06 4.36982
8.65240E+06 4.37353
8.67887E+06 4.37723
8.70534E+06 4.38094
8.72210E+06 4.38327
8.73885E+06 4.38560
8.75764E+06 4.38820
8.77642E+06 4.39081
8.79518E+06 4.39340
8.81393E+06 4.39599
8.83269E+06 4.39858
8.85144E+06 4.40117
8.86763E+06 4.40339
8.88568E+06 4.40587
8.90372E+06 4.40835
8.92177E+06 4.41083
8.93981E+06 4.41331
8.95486E+06 4.41535
8.96991E+06 4.41740
8.98495E+06 4.41945
9.00000E+06 4.42150
9.00251E+06 4.42179
9.02179E+06 4.42395
9.04358E+06 4.42639
9.08716E+06 4.43124
9.12551E+06 4.43552
9.17201E+06 4.44070
9.17433E+06 4.44095
9.18076E+06 4.44165
9.24021E+06 4.44822
9.28243E+06 4.45286
9.31799E+06 4.45677
9.31850E+06 4.45683
9.33911E+06 4.45907
9.37543E+06 4.46303
9.41175E+06 4.46698
9.44807E+06 4.47093
9.48439E+06 4.47488
9.48474E+06 4.47491
9.48683E+06 4.47513
9.53148E+06 4.47992
9.57612E+06 4.48472
9.62077E+06 4.48952
9.66541E+06 4.49432
9.70977E+06 4.49903
9.73249E+06 4.50143
9.74004E+06 4.50223
9.81081E+06 4.50974
9.84901E+06 4.51378
9.88720E+06 4.51783
9.92579E+06 4.52188
9.96437E+06 4.52595
9.97582E+06 4.52715
1.00000E+07 4.52971
1.00865E+07 4.53281
1.01199E+07 4.53403
1.02411E+07 4.53838
1.03331E+07 4.54179
1.03642E+07 4.54292
1.03650E+07 4.54294
1.04368E+07 4.54558
1.04881E+07 4.54751
1.05228E+07 4.54885
1.05576E+07 4.55022
1.06429E+07 4.55357
1.07057E+07 4.55616
1.07135E+07 4.55650
1.08086E+07 4.56060
1.09037E+07 4.56523
1.09746E+07 4.56899
1.10000E+07 4.56998
1.10397E+07 4.57004
1.10794E+07 4.57018
1.11191E+07 4.57041
1.11583E+07 4.57073
1.11588E+07 4.57074
1.11979E+07 4.57113
1.12419E+07 4.57169
1.13037E+07 4.57259
1.13655E+07 4.57376
1.14273E+07 4.57522
1.14891E+07 4.57701
1.14969E+07 4.57725
1.15000E+07 4.57734
1.15460E+07 4.57886
1.15920E+07 4.58059
1.16331E+07 4.58231
1.16741E+07 4.58421
1.17121E+07 4.58611
1.17500E+07 4.58818
1.17851E+07 4.59026
1.18202E+07 4.59251
1.18553E+07 4.59495
1.18904E+07 4.59758
1.19452E+07 4.60205
1.20000E+07 4.60707
1.20869E+07 4.59679
1.21738E+07 4.58734
1.22476E+07 4.57984
1.23213E+07 4.57298
1.24035E+07 4.56597
1.24876E+07 4.55962
1.24900E+07 4.55945
1.25000E+07 4.55876
1.25841E+07 4.55331
1.26682E+07 4.54886
1.26982E+07 4.54746
1.27656E+07 4.54476
1.28330E+07 4.54277
1.29165E+07 4.54114
1.30000E+07 4.54070
1.30049E+07 4.54017
1.31240E+07 4.52789
1.32431E+07 4.51693
1.33669E+07 4.50684
1.34907E+07 4.49830
1.34933E+07 4.49813
1.34986E+07 4.49780
1.35000E+07 4.49771
1.36755E+07 4.48840
1.37152E+07 4.48672
1.38910E+07 4.48153
1.40000E+07 4.48012
1.40080E+07 4.47889
1.41258E+07 4.46132
1.42436E+07 4.44505
1.43718E+07 4.42835
1.45000E+07 4.41326
1.46169E+07 4.39702
1.48631E+07 4.36542
1.49794E+07 4.35191
1.49795E+07 4.35190
1.50000E+07 4.34962
1.51839E+07 4.31882
1.54919E+07 4.26633
1.55254E+07 4.26082
1.57320E+07 4.22817
1.59517E+07 4.19578
1.60000E+07 4.18899
1.60228E+07 4.18430
1.60455E+07 4.17963
1.60683E+07 4.17499
1.60910E+07 4.17037
1.61206E+07 4.16436
1.61501E+07 4.15840
1.61797E+07 4.15248
1.62092E+07 4.14661
1.62388E+07 4.14077
1.62683E+07 4.13499
1.62979E+07 4.12924
1.63274E+07 4.12354
1.63526E+07 4.11865
1.63778E+07 4.11381
1.64029E+07 4.10899
1.64281E+07 4.10420
1.64533E+07 4.09944
1.64785E+07 4.09472
1.65036E+07 4.09002
1.65288E+07 4.08536
1.65479E+07 4.08183
1.65669E+07 4.07831
1.65860E+07 4.07481
1.66050E+07 4.07133
1.66269E+07 4.06733
1.66489E+07 4.06336
1.66708E+07 4.05940
1.66927E+07 4.05547
1.67232E+07 4.05003
1.67536E+07 4.04463
1.67618E+07 4.04318
1.67729E+07 4.04123
1.68028E+07 4.03597
1.68327E+07 4.03076
1.68625E+07 4.02560
1.68924E+07 4.02047
1.69252E+07 4.01487
1.69580E+07 4.00932
1.69790E+07 4.00578
1.70000E+07 4.00227
1.70196E+07 3.99875
1.70506E+07 3.99320
1.70801E+07 3.98794
1.71096E+07 3.98270
1.71391E+07 3.97750
1.71687E+07 3.97233
1.71982E+07 3.96718
1.72277E+07 3.96207
1.72572E+07 3.95700
1.72867E+07 3.95195
1.73172E+07 3.94674
1.73476E+07 3.94157
1.73781E+07 3.93643
1.74085E+07 3.93132
1.74462E+07 3.92503
1.75154E+07 3.91310
1.75847E+07 3.90133
1.76539E+07 3.88971
1.77231E+07 3.87824
1.77923E+07 3.86692
1.78616E+07 3.85575
1.79308E+07 3.84473
1.80000E+07 3.83385
1.81108E+07 3.81379
1.82215E+07 3.79416
1.83323E+07 3.77495
1.84430E+07 3.75616
1.85126E+07 3.74425
1.85823E+07 3.73251
1.86519E+07 3.72094
1.87215E+07 3.70953
1.87911E+07 3.69828
1.88608E+07 3.68720
1.89304E+07 3.67628
1.90000E+07 3.66552
1.91546E+07 3.64044
1.93092E+07 3.61606
1.94637E+07 3.59236
1.96183E+07 3.56932
1.98092E+07 3.54051
2.00000E+07 3.51266