Cd-113(n,tot) ENDF/B-VII.1
Energy(eV) XS(b)
1.00000E-05 760661
1.25000E-05 680375
1.50000E-05 621111
2.00000E-05 537927
2.75000E-05 458782
3.50000E-05 406699
4.25000E-05 369103
5.00000E-05 340323
6.25000E-05 304434
7.50000E-05 277945
0.000100000 240770
0.000125000 215407
0.000150000 196690
0.000200000 170427
0.000275000 145453
0.000350000 129030
0.000425000 117183
0.000500000 108121
0.000625000 96830.9
0.000750000 88507.9
0.00100000 76847.4
0.00125000 68911.4
0.00150000 63069.3
0.00200000 54901.7
0.00275000 47184.3
0.00350000 42150.5
0.00425000 38550.1
0.00500000 35820.2
0.00625000 32460.4
0.00750000 30024.5
0.0100000 26701.0
0.0125000 24531.7
0.0150000 23010.7
0.0200000 21060.4
0.0253000 19884.3
0.0314750 19158.0
0.0376500 18866.7
0.0500000 19129.8
0.0625000 20242.6
0.0750000 22112.1
0.0875000 24789.9
0.100000 28410.3
0.110815 32438.5
0.121630 37398.1
0.135898 45304.2
0.150165 53888.6
0.164433 60595.4
0.171566 62062.5
0.178700 61762.9
0.189350 57984.9
0.200000 51252.7
0.217885 38036.6
0.226828 32066.4
0.235770 26919.5
0.244027 22914.2
0.252284 19562.4
0.260542 16774.7
0.268799 14459.5
0.277056 12533.5
0.285313 10925.9
0.293570 9577.87
0.301828 8441.67
0.318342 6658.24
0.334856 5349.58
0.351371 4368.96
0.367885 3619.87
0.384399 3037.53
0.400914 2577.68
0.417428 2209.38
0.433943 1910.64
0.500000 1148.92
0.562500 770.119
0.625000 546.498
0.687500 404.981
0.750000 310.503
0.875000 197.271
1.00000 135.377
1.12500 98.3226
1.25000 74.5967
1.50000 47.3597
1.75000 33.0988
2.00000 24.8032
2.37500 17.6998
2.75000 13.7241
3.12500 11.2933
3.50000 9.70594
4.25000 7.83509
5.00000 6.81949
5.96000 6.08047
6.44000 5.84171
6.68000 5.75435
6.80000 5.73666
6.92000 5.82521
7.00000 5.98169
7.08000 5.77234
7.17125 5.62476
7.26250 5.56154
7.44500 5.48795
7.81000 5.38396
8.54000 5.22602
10.0000 5.01109
12.0794 4.82769
14.1587 4.72061
15.1984 4.69139
15.7182 4.68743
16.2381 4.69894
16.7579 4.74820
17.0178 4.80784
17.2777 4.92524
17.5377 5.18570
17.6676 5.44587
17.7976 5.91248
17.9275 6.86520
17.9925 7.75844
18.0575 9.27014
18.1225 12.1148
18.1550 14.5709
18.1875 18.3880
18.2199 24.7346
18.2524 36.2442
18.2687 45.6960
18.2849 59.4559
18.3012 79.9400
18.3174 110.400
18.3412 174.749
18.3650 218.358
18.3888 176.440
18.4126 112.513
18.4374 70.0444
18.4622 46.7502
18.4870 33.5240
18.5118 25.5269
18.5366 20.3875
18.5614 16.9154
18.6110 12.6818
18.6606 10.3071
18.7102 8.84688
18.8095 7.21913
18.9087 6.37903
19.0079 5.88837
19.1071 5.57613
19.2063 5.36456
19.4047 5.10306
19.6032 4.95238
20.0000 4.79183
20.4475 4.70433
20.8950 4.66216
21.1188 4.65751
21.3425 4.68010
21.4544 4.72238
21.5103 4.76480
21.5663 4.83846
21.6222 4.97902
21.6502 5.10094
21.6781 5.29061
21.7061 5.60585
21.7341 6.17662
21.7620 7.32453
21.7760 8.33476
21.7900 9.83320
21.8105 12.9867
21.8310 15.0919
21.8515 12.9926
21.8720 9.83908
21.8930 7.78356
21.9139 6.64632
21.9348 5.99644
21.9558 5.60147
21.9977 5.17433
22.0395 4.96336
22.0814 4.84444
22.1233 4.77086
22.2071 4.68777
22.2908 4.64369
22.3746 4.61691
22.5421 4.58602
22.8772 4.55607
23.2123 4.53922
24.5525 4.50023
27.2330 4.45230
32.5940 4.38484
37.9550 4.32857
40.6355 4.30198
41.9758 4.29150
42.3108 4.29134
42.6459 4.29670
42.8134 4.30625
42.9809 4.33241
43.0647 4.36399
43.1485 4.43348
43.1904 4.50311
43.2322 4.62758
43.2741 4.87297
43.2951 5.08478
43.3160 5.39384
43.3480 6.06672
43.3800 6.51573
43.4120 6.06737
43.4440 5.39415
43.4684 5.04362
43.4928 4.81809
43.5172 4.67235
43.5416 4.57526
43.5904 4.46046
43.6392 4.39879
43.6880 4.36215
43.7368 4.33866
43.8344 4.31128
44.0296 4.28707
44.2248 4.27620
45.0055 4.25853
46.5670 4.23982
48.1285 4.22938
48.5189 4.23298
48.9093 4.25042
49.1044 4.27621
49.2020 4.30093
49.2996 4.34283
49.3972 4.42091
49.4460 4.48732
49.4948 4.58871
49.5436 4.75313
49.5924 5.04026
49.6412 5.58717
49.6656 6.04390
49.6900 6.69239
49.7300 8.18929
49.7700 9.18808
49.8100 8.19148
49.8500 6.69436
49.8875 5.77895
49.9250 5.24714
49.9625 4.93149
50.0000 4.73435
50.0480 4.57646
50.0960 4.47744
50.1921 4.36561
50.2881 4.30733
50.3841 4.27303
50.5762 4.23578
50.7682 4.21637
51.1523 4.19607
51.5364 4.18456
53.0728 4.15828
53.8409 4.15083
54.6091 4.15364
54.9932 4.16843
55.1853 4.18570
55.3773 4.21834
55.5694 4.28624
55.6654 4.34963
55.7614 4.45541
55.8574 4.64926
55.9055 4.81182
55.9535 5.05695
56.0015 5.44780
56.0495 6.11478
56.0975 7.34254
56.1455 9.71158
56.1878 13.0822
56.2300 15.3313
56.2723 13.0874
56.3145 9.71686
56.3432 8.11977
56.3718 7.03984
56.4292 5.80832
56.4865 5.19241
56.5438 4.85028
56.6012 4.64293
56.6585 4.50849
56.7732 4.35084
56.8879 4.26530
57.0025 4.21343
57.2319 4.15541
57.6905 4.10480
58.1492 4.08080
59.0666 4.05549
59.9839 4.04870
60.9013 4.08197
61.3599 4.14108
61.8186 4.27849
62.0479 4.41049
62.2773 4.62838
62.5066 5.01050
62.7360 5.74344
62.8506 6.37795
62.9653 7.35918
63.0800 8.97522
63.1946 11.8791
63.3093 17.8102
63.3666 23.3588
63.4240 32.7025
63.4813 50.1162
63.5100 64.9738
63.5386 87.7484
63.5673 124.881
63.5816 152.630
63.5960 190.163
63.6103 242.147
63.6246 315.633
63.6390 421.187
63.6533 572.092
63.6650 734.594
63.6767 921.325
63.7000 1161.31
63.7117 1098.46
63.7234 938.938
63.7467 594.127
63.7640 416.947
63.7813 300.961
63.7986 224.856
63.8159 173.539
63.8505 112.068
63.8851 78.6424
63.9197 58.6452
63.9543 45.7922
64.0235 30.8471
64.0927 22.8174
64.1619 18.0043
64.2312 14.8857
64.3004 12.7457
64.4388 10.0685
64.5772 8.51112
64.7156 7.51941
64.8540 6.84529
65.1308 6.00638
65.4077 5.51743
65.6845 5.20330
65.9613 4.98691
66.5150 4.71079
67.0686 4.54268
68.1759 4.34551
69.2832 4.22779
70.3905 4.14333
72.6051 4.01386
74.8197 3.90109
77.0343 3.79417
78.1416 3.75005
79.2489 3.73069
80.3562 3.78649
80.9099 3.89091
81.1867 4.00204
81.3251 4.13172
81.3943 4.30246
81.4635 4.85101
81.5200 5.65722
81.5765 4.91196
81.6275 4.50165
81.6785 4.37287
81.7805 4.33910
81.9845 4.46805
82.3924 4.99585
82.8004 5.99593
83.2083 8.00800
83.4123 9.80277
83.6163 12.6362
83.8202 17.4028
83.9222 21.0685
84.0242 26.1649
84.1262 33.5040
84.2282 44.5487
84.3302 62.1497
84.3812 75.0926
84.4322 92.4443
84.4832 116.392
84.5341 150.613
84.5851 201.715
84.6361 282.338
84.6871 419.038
84.7381 673.534
84.7636 887.800
84.7891 1207.04
84.8146 1696.05
84.8401 2446.36
84.8751 3957.02
84.9100 5002.19
84.9450 4049.74
84.9799 2562.55
85.0061 1789.33
85.0324 1285.09
85.0586 955.528
85.0848 734.040
85.1373 469.435
85.1897 325.813
85.2422 239.975
85.2946 184.808
85.3995 120.631
85.5044 86.1043
85.6093 65.3708
85.7142 51.9116
85.8191 42.6555
86.0289 31.0430
86.2387 24.2607
86.4486 19.9260
86.6584 16.9701
87.0780 13.2776
87.4976 11.1174
87.9172 9.72734
88.3368 8.77022
89.1760 7.55506
90.0153 6.82611
90.8545 6.34452
91.6937 6.00382
93.3722 5.55339
95.0506 5.26693
96.7291 5.07432
97.1487 5.04440
97.5683 5.03862
97.7781 5.06234
97.9879 5.14482
98.0928 5.24600
98.1977 5.45617
98.2502 5.64958
98.3026 5.96197
98.3551 6.49082
98.4075 7.40268
98.4638 8.90436
98.5200 9.90468
98.5763 8.89692
98.6325 7.38611
98.6752 6.60072
98.7180 6.09360
98.7607 5.76429
98.8034 5.54375
98.8889 5.28022
98.9744 5.13579
99.1453 4.98902
99.3163 4.91601
99.6581 4.83940
100.000 4.79379
101.121 4.70318
101.401 4.69488
101.681 4.71070
101.821 4.74766
101.961 4.85325
102.031 4.98103
102.101 5.25736
102.136 5.52776
102.171 5.99776
102.206 6.88485
102.241 8.65633
102.271 11.1240
102.300 12.7828
102.330 11.1214
102.359 8.64986
102.391 6.97043
102.424 6.08457
102.456 5.59288
102.488 5.30121
102.553 4.99030
102.617 4.83803
102.746 4.69712
102.875 4.63300
103.133 4.57072
103.390 4.53603
104.422 4.45825
104.937 4.44283
105.453 4.46214
105.968 4.58889
106.226 4.83655
106.355 5.25273
106.420 5.81130
106.452 6.34375
106.484 7.20449
106.560 9.75741
106.636 7.34993
106.687 6.24106
106.739 5.77411
106.841 5.52469
107.047 5.81080
107.252 6.64795
107.458 8.36184
107.560 9.86834
107.663 12.2083
107.766 16.0650
107.868 22.9703
107.920 28.6227
107.971 36.9269
108.022 49.8145
108.048 59.0522
108.074 71.1097
108.099 87.3545
108.125 109.795
108.151 141.864
108.176 189.382
108.202 263.935
108.228 386.881
108.241 479.942
108.253 604.079
108.266 771.968
108.279 997.313
108.305 1622.09
108.330 2060.62
108.356 1668.49
108.381 1055.12
108.398 766.615
108.415 570.317
108.449 342.624
108.483 226.531
108.516 161.056
108.550 120.813
108.584 94.5580
108.652 63.4553
108.719 46.4067
108.787 36.0639
108.855 29.2828
108.922 24.5961
109.058 18.6697
109.193 15.1819
109.328 12.9399
109.463 11.4036
109.734 9.47386
110.005 8.33722
110.275 7.60147
110.546 7.09232
111.087 6.44097
111.628 6.04652
112.169 5.78361
112.710 5.59616
113.793 5.34594
114.875 5.18516
117.040 4.98583
119.205 4.86195
121.369 4.77333
125.699 4.64578
130.028 4.54745
134.357 4.45699
136.522 4.40998
137.604 4.38563
138.687 4.36187
139.769 4.34437
140.310 4.34487
140.851 4.36508
141.122 4.39222
141.393 4.44354
141.663 4.54256
141.934 4.74638
142.069 4.93008
142.204 5.22123
142.340 5.71150
142.475 6.61069
142.610 8.48341
142.678 10.2605
142.746 13.2792
142.813 18.9749
142.847 23.8706
142.881 31.4311
142.915 43.8595
142.948 65.9612
142.982 109.086
142.999 145.913
143.016 199.240
143.043 321.876
143.070 407.959
143.097 331.064
143.124 210.687
143.155 125.593
143.185 81.0657
143.215 56.4978
143.246 41.9843
143.276 32.7485
143.307 26.5763
143.368 19.0811
143.429 14.8895
143.489 12.3081
143.611 9.41692
143.733 7.90689
143.855 7.01372
143.977 6.43790
144.098 6.04288
144.342 5.54527
144.585 5.25152
144.829 5.06062
145.072 4.92785
145.560 4.75616
146.047 4.64977
147.021 4.52200
147.995 4.44320
148.969 4.38498
150.917 4.29188
152.866 4.20447
153.840 4.15841
154.814 4.11185
155.301 4.09114
155.788 4.07724
156.275 4.08137
156.762 4.13466
157.006 4.20521
157.250 4.33926
157.493 4.60058
157.737 5.14474
157.858 5.63945
157.980 6.42830
158.102 7.76463
158.224 10.2268
158.346 15.3840
158.406 20.2878
158.467 28.6253
158.528 44.3604
158.559 57.9249
158.589 78.7862
158.604 93.7572
158.620 113.134
158.635 138.866
158.650 173.797
158.665 222.325
158.680 291.262
158.696 390.761
158.711 533.784
158.735 866.441
158.760 1098.92
158.772 1042.33
158.785 893.787
158.809 569.756
158.824 426.275
158.840 324.578
158.870 202.073
158.900 136.895
158.930 99.0987
158.960 75.4156
158.990 59.7589
159.050 40.9585
159.111 30.5146
159.171 24.1230
159.291 16.9741
159.412 13.2481
159.532 11.0423
159.653 9.61800
159.773 8.63921
160.014 7.40332
160.255 6.67213
160.496 6.19670
160.737 5.86655
161.219 5.44220
161.701 5.18360
162.183 5.01006
162.665 4.88538
163.629 4.71697
164.592 4.60727
165.556 4.53440
165.797 4.52504
166.038 4.52865
166.159 4.54452
166.279 4.58995
166.339 4.64108
166.400 4.73944
166.460 4.95085
166.490 5.14771
166.520 5.45306
166.560 6.04725
166.600 6.44273
166.640 6.04292
166.680 5.44411
166.706 5.17433
166.731 4.98760
166.782 4.76676
166.833 4.65129
166.883 4.58481
166.985 4.51462
167.087 4.47910
167.290 4.44230
167.493 4.42124
168.307 4.37058
169.933 4.29856
173.186 4.17819
176.439 4.06325
179.692 3.94228
181.318 3.87962
182.944 3.81987
184.571 3.77570
186.197 3.78654
187.011 3.84686
187.824 3.99183
188.637 4.31325
189.450 5.04125
189.857 5.73270
190.263 6.86493
190.670 8.83010
191.077 12.5406
191.280 15.6992
191.483 20.4999
191.687 28.2155
191.890 41.5851
192.093 67.3507
192.195 89.9975
192.296 125.612
192.398 185.709
192.500 296.290
192.551 388.419
192.601 523.785
192.652 727.735
192.703 1035.25
192.777 1687.79
192.850 2149.82
192.924 1749.92
192.997 1113.09
193.045 816.043
193.093 611.053
193.189 370.703
193.285 246.693
193.381 176.298
193.477 132.839
193.573 104.285
193.765 70.2733
193.957 51.5231
194.149 40.0725
194.534 27.2990
194.918 20.6485
195.302 16.7348
195.686 14.3444
195.878 13.8143
195.974 14.1679
196.022 14.8967
196.070 16.5568
196.110 18.9352
196.150 20.4741
196.190 18.6467
196.230 15.9785
196.260 14.5966
196.289 13.6622
196.348 12.5601
196.466 11.5338
196.701 10.5836
197.173 9.48963
198.115 8.15822
199.058 7.33633
200.000 6.77726
201.715 6.11843
202.573 5.91139
202.787 5.88570
203.001 5.90143
203.109 5.95387
203.216 6.09718
203.269 6.25278
203.323 6.54167
203.377 7.12824
203.403 7.64409
203.430 8.40260
203.470 10.0297
203.510 11.1116
203.550 10.0140
203.590 8.37056
203.622 7.47759
203.654 6.91428
203.686 6.55543
203.718 6.31876
203.783 6.03761
203.847 5.88379
203.975 5.72417
204.103 5.64043
204.360 5.54381
204.616 5.47900
205.643 5.29217
207.695 5.00193
208.721 4.87280
209.748 4.75205
210.774 4.65942
211.287 4.68906
211.415 4.74587
211.544 4.88827
211.608 5.04297
211.672 5.33982
211.736 5.98934
211.768 6.61156
211.800 7.59902
211.840 9.42575
211.880 10.6431
211.920 9.42528
211.960 7.59740
212.010 6.22186
212.060 5.55400
212.110 5.20706
212.160 5.01107
212.260 4.81497
212.360 4.72939
212.761 4.69189
213.161 4.87089
213.561 5.36518
213.761 5.85825
213.961 6.68249
214.161 8.13649
214.362 10.9197
214.462 13.3121
214.562 16.9729
214.662 22.9005
214.762 33.2477
214.812 41.5284
214.862 53.4271
214.912 71.3169
214.962 99.7469
215.012 148.420
215.037 186.346
215.062 239.627
215.087 316.855
215.112 432.480
215.137 610.345
215.162 884.599
215.196 1433.90
215.230 1820.29
215.264 1488.49
215.298 953.147
215.331 605.281
215.365 405.440
215.398 287.562
215.431 214.170
215.465 165.843
215.498 132.704
215.565 91.4575
215.631 67.7490
215.698 52.9094
215.831 35.9773
215.965 26.9950
216.098 21.6217
216.231 18.1293
216.364 15.7172
216.631 12.6632
216.898 10.8508
217.164 9.67190
217.431 8.85335
217.964 7.80291
218.497 7.16509
219.030 6.73921
219.563 6.43526
220.630 6.02922
221.696 5.76798
222.762 5.58310
223.829 5.44307
225.961 5.23848
228.094 5.08705
229.160 5.02205
229.693 4.99213
230.226 4.96595
230.760 4.95106
231.026 4.95614
231.293 4.98474
231.559 5.07751
231.693 5.18610
231.826 5.39830
231.959 5.86319
232.026 6.31807
232.092 7.10688
232.159 8.62710
232.192 9.95486
232.226 12.0317
232.259 15.4969
232.292 21.7743
232.326 34.3260
232.342 45.3197
232.359 61.4130
232.385 97.4469
232.410 123.075
232.436 101.481
232.461 66.6401
232.482 46.9942
232.503 34.6434
232.524 26.7803
232.544 21.5967
232.586 15.5076
232.628 12.2616
232.669 10.3310
232.711 9.09597
232.794 7.65628
232.878 6.87521
232.961 6.40123
233.127 5.87268
233.294 5.59403
233.460 5.42578
233.793 5.23499
234.127 5.12974
234.460 5.06216
235.126 4.97786
235.792 4.92632
236.458 4.89778
236.791 4.89870
236.957 4.90862
237.124 4.93260
237.291 4.98813
237.374 5.04180
237.457 5.13208
237.540 5.29736
237.624 5.63901
237.665 5.96005
237.707 6.49224
237.748 7.43339
237.790 9.15378
237.830 11.7612
237.870 13.4983
237.910 11.7587
237.950 9.14802
237.979 7.85316
238.007 6.99973
238.036 6.43435
238.065 6.05020
238.122 5.58596
238.179 5.33198
238.236 5.17884
238.294 5.07989
238.408 4.96334
238.522 4.89900
238.637 4.85894
238.866 4.81155
239.324 4.76357
239.781 4.73462
240.697 4.69170
241.613 4.65493
245.275 4.51622
248.938 4.36212
250.769 4.27851
251.227 4.26364
251.684 4.26697
251.913 4.29251
252.142 4.37759
252.257 4.48793
252.314 4.58596
252.371 4.74084
252.428 5.00295
252.486 5.48579
252.514 5.88800
252.543 6.48156
252.571 7.37916
252.600 8.73664
252.640 11.4825
252.680 13.3106
252.720 11.4781
252.760 8.72693
252.792 7.23005
252.824 6.28990
252.857 5.69464
252.889 5.30420
252.953 4.84914
253.018 4.60762
253.082 4.46429
253.146 4.37217
253.275 4.26295
253.532 4.16035
253.790 4.10738
254.819 3.98536
255.849 3.88145
256.879 3.78118
257.394 3.74213
257.909 3.72826
258.423 3.77756
258.938 3.99258
259.196 4.24450
259.453 4.70133
259.711 5.56168
259.968 7.30282
260.097 8.85345
260.225 11.2865
260.354 15.3303
260.418 18.4012
260.483 22.6076
260.547 28.5673
260.611 37.3092
260.676 50.8041
260.740 72.9023
260.772 89.5739
260.805 112.355
260.837 144.438
260.869 191.089
260.901 262.251
260.933 375.724
260.965 565.081
260.998 885.372
261.034 1445.52
261.070 1843.31
261.106 1506.13
261.143 963.210
261.174 640.351
261.206 443.988
261.238 322.292
261.270 244.133
261.333 154.368
261.396 107.451
261.460 79.9342
261.523 62.4751
261.650 42.2946
261.777 31.4524
261.904 24.9222
262.031 20.6543
262.158 17.6946
262.412 13.9300
262.666 11.6870
262.919 10.2229
263.173 9.20294
263.681 7.88884
264.189 7.08627
264.696 6.54798
265.204 6.16507
266.219 5.69232
266.727 5.59529
267.234 5.66426
267.488 5.82250
267.742 6.14581
267.996 6.78438
268.250 8.09537
268.504 11.0825
268.631 14.0783
268.757 19.3917
268.884 29.8883
268.948 39.3031
269.011 54.3552
269.075 80.3230
269.138 129.490
269.170 171.656
269.202 235.147
269.233 333.824
269.265 487.905
269.308 796.255
269.350 1017.59
269.393 834.121
269.435 535.270
269.466 381.320
269.497 279.433
269.528 211.750
269.559 165.626
269.621 109.619
269.683 78.7527
269.745 60.0251
269.807 47.8667
269.931 33.5163
270.055 25.6523
270.179 20.8600
270.304 17.7048
270.428 15.5132
270.676 12.7453
270.924 11.2004
271.048 10.7719
271.172 10.6775
271.234 10.8832
271.296 11.4798
271.358 12.9999
271.389 14.5110
271.420 16.9299
271.460 21.5856
271.500 24.6499
271.540 21.3814
271.580 16.5449
271.620 13.4205
271.660 11.6364
271.700 10.5720
271.740 9.89491
271.819 9.09807
271.899 8.64307
272.058 8.11585
272.218 7.79015
272.536 7.35874
272.855 7.05987
273.493 6.64691
274.130 6.36595
275.405 5.99869
276.680 5.76281
277.955 5.59337
279.230 5.46169
279.868 5.40636
280.505 5.36386
280.824 5.35983
280.983 5.37231
281.143 5.40991
281.302 5.51151
281.382 5.62074
281.461 5.82122
281.541 6.22997
281.581 6.60456
281.621 7.21275
281.661 8.28376
281.700 10.3629
281.720 12.1829
281.740 14.9935
281.760 19.4874
281.780 26.7395
281.805 40.5814
281.830 50.6227
281.855 42.5153
281.880 29.1536
281.895 23.3007
281.910 19.1026
281.940 13.9586
281.970 11.1808
282.000 9.55096
282.030 8.52228
282.060 7.83349
282.120 6.99699
282.180 6.52571
282.240 6.23226
282.360 5.89681
282.480 5.71567
282.600 5.60407
282.840 5.47423
283.080 5.39978
283.320 5.34986
283.800 5.28296
284.760 5.19794
285.720 5.13448
286.680 5.07838
287.640 5.02595
288.120 5.00242
288.600 4.98640
288.840 4.98775
289.080 5.01135
289.200 5.04784
289.320 5.13604
289.380 5.22945
289.440 5.40480
289.500 5.77536
289.530 6.11754
289.560 6.64597
289.600 7.67510
289.640 8.36143
289.680 7.67640
289.720 6.64831
289.749 6.13769
289.778 5.80235
289.835 5.43198
289.892 5.25417
289.950 5.16034
290.065 5.07776
290.180 5.05638
290.409 5.10447
290.639 5.28519
290.754 5.46696
290.869 5.76758
290.984 6.28931
291.099 7.26588
291.214 9.32854
291.271 11.2933
291.328 14.6214
291.386 20.8441
291.415 26.1215
291.443 34.1462
291.472 47.0333
291.501 69.1447
291.515 86.3578
291.529 109.957
291.544 143.120
291.558 188.775
291.571 243.080
291.584 306.117
291.610 389.715
291.623 371.155
291.636 319.633
291.662 206.269
291.682 145.011
291.702 105.359
291.722 79.6146
291.742 62.3850
291.783 41.8733
291.823 30.7695
291.863 24.0999
291.903 19.8060
291.983 14.7680
292.064 12.0272
292.144 10.3615
292.224 9.26716
292.304 8.50551
292.465 7.53377
292.626 6.95290
292.786 6.57326
292.947 6.30867
293.268 5.96798
293.589 5.76036
293.911 5.62130
294.232 5.52173
294.874 5.38809
295.517 5.30155
296.801 5.19305
298.086 5.12464
299.371 5.07528
301.941 5.00479
304.511 4.95394
307.080 4.91535
308.365 4.90150
309.008 4.89735
309.650 4.89723
310.293 4.90663
310.614 4.91984
310.935 4.94662
311.256 5.00583
311.417 5.06391
311.577 5.16570
311.738 5.36626
311.818 5.54761
311.899 5.84333
311.979 6.37071
312.019 6.80285
312.059 7.43818
312.099 8.42345
312.139 10.0319
312.180 12.8302
312.220 17.8139
312.260 25.6046
312.300 30.7805
312.340 25.5857
312.380 17.8155
312.411 13.7670
312.442 11.1626
312.472 9.48024
312.503 8.36039
312.564 7.03835
312.625 6.33053
312.686 5.91235
312.748 5.64618
312.870 5.34028
312.992 5.17811
313.115 5.08184
313.359 4.97757
313.604 4.92456
313.849 4.89339
314.338 4.85867
314.828 4.83936
315.318 4.82640
316.297 4.80842
318.255 4.78332
320.213 4.76285
324.129 4.72670
328.045 4.69362
335.878 4.63218
337.836 4.61773
339.794 4.60449
340.773 4.59944
341.752 4.59876
342.241 4.60420
342.731 4.62510
342.976 4.65506
343.098 4.68389
343.220 4.73336
343.343 4.82801
343.404 4.91093
343.465 5.04168
343.526 5.26363
343.588 5.67928
343.618 6.03200
343.649 6.56264
343.679 7.38542
343.710 8.66141
343.750 11.1205
343.790 12.7554
343.830 11.1142
343.870 8.66116
343.900 7.40141
343.930 6.58716
343.960 6.05701
343.990 5.70186
344.050 5.27926
344.110 5.05193
344.169 4.91678
344.229 4.83058
344.349 4.73095
344.469 4.67778
344.588 4.64598
344.828 4.61105
345.306 4.58164
345.785 4.56835
346.743 4.55384
347.700 4.54397
349.615 4.52895
350.573 4.52823
350.812 4.53310
351.051 4.54832
351.171 4.56777
351.291 4.61245
351.351 4.65908
351.410 4.74603
351.470 4.92919
351.500 5.09799
351.530 5.35830
351.570 5.86670
351.610 6.20554
351.650 5.86624
351.690 5.35723
351.720 5.09922
351.749 4.93074
351.808 4.74623
351.867 4.65752
351.926 4.60935
352.044 4.56195
352.162 4.54015
352.398 4.52064
352.634 4.51173
353.578 4.49678
354.521 4.48817
355.465 4.48132
356.409 4.47686
357.352 4.47979
357.824 4.49098
358.060 4.50384
358.296 4.52816
358.532 4.57944
358.650 4.62820
358.768 4.71129
358.886 4.86910
358.945 5.00649
359.004 5.22142
359.063 5.58385
359.122 6.25454
359.151 6.81689
359.181 7.65309
359.210 8.93069
359.240 10.8785
359.280 14.7425
359.320 17.3194
359.360 14.7431
359.400 10.8787
359.434 8.69278
359.468 7.35908
359.502 6.53075
359.536 5.99861
359.604 5.38945
359.672 5.07361
359.740 4.89028
359.807 4.77523
359.943 4.64429
360.079 4.57537
360.215 4.53448
360.486 4.48978
360.757 4.46646
361.029 4.45213
361.572 4.43478
362.657 4.41497
363.743 4.40055
365.914 4.37470
368.085 4.34849
370.257 4.32014
372.428 4.28796
373.514 4.26981
374.056 4.26038
374.599 4.25151
375.142 4.24628
375.413 4.24851
375.685 4.26049
375.821 4.27464
375.956 4.30004
376.092 4.34708
376.228 4.44016
376.363 4.64685
376.431 4.85121
376.499 5.20873
376.567 5.90527
376.601 6.51960
376.635 7.48928
376.669 9.13310
376.703 12.1559
376.720 14.6758
376.737 18.3576
376.754 23.9263
376.770 32.2512
376.795 50.1862
376.820 63.0810
376.845 52.4095
376.870 35.0283
376.885 27.0457
376.901 21.4810
376.933 14.8214
376.964 11.3272
376.996 9.31675
377.027 8.06535
377.059 7.23616
377.122 6.24157
377.185 5.68712
377.248 5.34554
377.373 4.96075
377.499 4.75705
377.625 4.63458
377.751 4.55401
377.877 4.49757
378.129 4.42414
378.381 4.37854
378.885 4.32413
379.389 4.29137
379.892 4.26815
380.900 4.23447
381.907 4.20853
382.915 4.18735
383.419 4.17978
383.922 4.17923
384.174 4.18766
384.426 4.21775
384.552 4.25778
384.678 4.35174
384.741 4.45145
384.804 4.64053
384.836 4.80307
384.867 5.05010
384.899 5.43790
384.930 6.04779
384.970 7.19681
385.010 7.96054
385.050 7.19234
385.090 6.04465
385.118 5.48384
385.147 5.11041
385.175 4.86167
385.203 4.69242
385.259 4.48631
385.316 4.37289
385.428 4.25964
385.541 4.20682
385.766 4.15890
385.992 4.13651
386.442 4.11252
386.893 4.09673
388.696 4.04655
392.302 3.94135
395.908 3.80930
399.514 3.63232
401.317 3.51821
403.120 3.37991
404.922 3.21044
406.725 3.00483
407.627 2.89159
408.528 2.78229
409.430 2.70646
410.331 2.75479
410.782 2.90392
411.233 3.24554
411.683 3.98682
412.134 5.64160
412.360 7.19796
412.585 9.72429
412.810 14.0588
412.923 17.4212
413.036 22.1024
413.148 28.8379
413.261 38.9076
413.374 54.7327
413.486 81.2619
413.599 129.987
413.655 170.718
413.712 231.511
413.768 327.105
413.824 485.625
413.881 764.901
413.937 1272.33
413.994 2087.87
414.050 2677.08
414.107 2197.22
414.163 1409.15
414.229 825.313
414.296 523.009
414.362 358.188
414.428 260.902
414.495 199.280
414.561 157.938
414.694 107.688
414.826 79.4146
414.959 61.8746
415.224 41.9981
415.489 31.4592
415.754 25.1279
416.020 20.9864
416.285 18.1050
416.815 14.4165
417.346 12.1941
417.876 10.7279
418.406 9.69662
419.467 8.35504
420.528 7.54115
421.058 7.26615
421.589 7.10405
421.854 7.11930
421.987 7.18855
422.119 7.34787
422.252 7.70348
422.318 8.03714
422.384 8.58287
422.451 9.53996
422.517 11.3944
422.550 13.0170
422.583 15.5141
422.617 19.5239
422.650 25.9800
422.690 37.6648
422.730 45.4517
422.770 37.6404
422.810 25.9288
422.846 19.0587
422.882 14.9501
422.918 12.4520
422.953 10.8624
423.025 9.06345
423.096 8.13247
423.167 7.58917
423.239 7.24236
423.382 6.83370
423.524 6.60177
423.667 6.44992
423.953 6.25340
424.524 6.01532
425.095 5.84508
426.237 5.56869
427.379 5.32123
428.521 5.07537
429.092 4.95182
429.664 4.84104
429.949 4.80439
430.235 4.80214
430.520 4.87895
430.806 5.15153
430.949 5.45246
431.091 5.98089
431.234 6.94625
431.377 8.83515
431.520 12.9830
431.591 17.0308
431.662 24.0119
431.698 29.5116
431.734 37.3043
431.769 48.7639
431.805 66.4062
431.841 95.1568
431.859 116.643
431.877 145.398
431.894 185.114
431.912 240.390
431.930 318.651
431.948 428.878
431.979 704.668
432.010 906.643
432.041 748.149
432.072 483.234
432.102 315.560
432.131 216.443
432.160 156.759
432.189 119.095
432.248 76.4220
432.306 54.3913
432.365 41.5311
432.424 33.3810
432.541 23.9392
432.658 18.8370
432.775 15.7356
432.892 13.6905
433.009 12.2592
433.243 10.4153
433.477 9.29639
433.712 8.55369
433.946 8.02824
434.414 7.33693
434.882 6.90346
435.351 6.60535
435.819 6.38667
436.756 6.08371
437.693 5.87960
439.566 5.61089
441.439 5.42950
443.313 5.28533
444.250 5.21860
444.718 5.18604
445.186 5.15577
445.655 5.13569
445.889 5.13877
446.123 5.16827
446.240 5.20515
446.357 5.27260
446.474 5.39871
446.591 5.64908
446.708 6.20302
446.767 6.74620
446.826 7.68524
446.884 9.47912
446.913 11.0299
446.943 13.4131
446.972 17.3196
447.001 24.1447
447.030 37.1595
447.060 63.1724
447.072 80.5808
447.085 100.895
447.110 128.483
447.135 106.749
447.160 70.4896
447.181 49.9465
447.202 36.9220
447.222 28.6141
447.243 23.1267
447.284 16.6734
447.325 13.2142
447.366 11.1458
447.407 9.81605
447.490 8.25421
447.572 7.39982
447.654 6.87785
447.737 6.53216
447.819 6.28943
447.984 5.97528
448.148 5.78361
448.313 5.65532
448.478 5.56370
448.807 5.44100
449.136 5.36155
449.795 5.26118
450.453 5.19635
451.112 5.14781
452.429 5.07321
453.746 5.01146
454.405 4.98225
455.064 4.95344
455.722 4.92634
456.051 4.91603
456.381 4.91366
456.545 4.91982
456.710 4.93678
456.875 4.97557
457.039 5.06286
457.122 5.14449
457.204 5.27550
457.286 5.49694
457.369 5.89965
457.451 6.71537
457.492 7.46131
457.533 8.67117
457.574 10.7988
457.616 14.9203
457.636 18.5298
457.657 24.0947
457.677 32.9709
457.698 47.1612
457.724 74.5657
457.750 94.5784
457.776 78.7832
457.802 52.4347
457.818 40.8241
457.834 32.5325
457.865 22.3111
457.896 16.7783
457.927 13.5345
457.959 11.4766
457.990 10.1013
458.052 8.42585
458.115 7.48031
458.177 6.89322
458.302 6.22450
458.428 5.86665
458.553 5.64973
458.678 5.50622
458.803 5.40511
459.053 5.27297
459.303 5.19072
459.803 5.09292
460.303 5.03508
460.803 4.99528
461.803 4.94052
463.804 4.86939
465.804 4.81648
469.805 4.72828
473.806 4.64694
477.807 4.56359
481.808 4.47121
483.808 4.41925
485.809 4.36330
486.809 4.33612
487.809 4.31831
488.309 4.32458
488.559 4.33973
488.809 4.37424
489.059 4.45477
489.184 4.53480
489.309 4.67447
489.435 4.94498
489.497 5.18343
489.560 5.56107
489.622 6.20519
489.685 7.41841
489.716 8.45553
489.747 10.0186
489.778 12.4657
489.810 16.2917
489.850 23.5615
489.890 28.3933
489.930 23.5398
489.971 16.2856
490.010 11.6855
490.050 9.08987
490.089 7.57747
490.129 6.64965
490.208 5.63369
490.287 5.12723
490.366 4.83969
490.445 4.66118
490.603 4.45852
490.761 4.35012
490.919 4.28352
491.236 4.20440
491.552 4.15559
491.868 4.11894
492.501 4.05918
493.133 4.00561
493.766 3.96064
494.082 3.95492
494.240 3.96760
494.398 4.00778
494.556 4.11822
494.635 4.23764
494.714 4.45712
494.793 4.90453
494.833 5.31293
494.872 5.97665
494.912 7.14396
494.951 9.40659
494.971 11.3910
494.991 14.4368
495.011 19.3268
495.030 27.1660
495.055 42.1120
495.080 52.8818
495.105 44.0461
495.130 29.5798
495.149 21.8018
495.168 16.7702
495.187 13.4860
495.206 11.2781
495.244 8.63105
495.282 7.19139
495.320 6.32260
495.358 5.76072
495.434 5.09634
495.510 4.73002
495.586 4.50347
495.738 4.24254
495.891 4.09682
496.043 4.00192
496.347 3.87888
496.956 3.72597
497.565 3.61265
498.174 3.52988
498.782 3.53457
499.087 3.63188
499.391 3.89204
499.696 4.53344
499.848 5.16243
500.000 6.20484
500.116 7.48311
500.231 9.50886
500.347 12.8979
500.405 15.4725
500.463 19.0036
500.521 23.9979
500.578 31.2922
500.636 42.4709
500.694 60.5472
500.752 92.1698
500.781 117.278
500.810 153.110
500.839 206.029
500.868 287.101
500.897 415.408
500.925 619.976
500.963 1019.31
501.000 1310.58
501.037 1079.42
501.075 695.131
501.108 461.004
501.142 319.276
501.175 232.282
501.209 176.462
501.276 112.650
501.343 79.3157
501.410 59.7345
501.477 47.2600
501.610 32.7964
501.744 24.9655
501.878 20.2118
502.012 17.0795
502.146 14.8935
502.414 12.0865
502.682 10.3934
502.950 9.27727
503.218 8.49318
503.754 7.47396
504.289 6.84589
504.825 6.42199
505.361 6.11685
506.433 5.70548
507.504 5.43792
509.647 5.09903
511.791 4.87648
513.934 4.70023
516.077 4.54069
516.613 4.50433
517.148 4.47747
517.416 4.47715
517.684 4.51089
517.818 4.56787
517.952 4.71313
518.019 4.87378
518.086 5.18746
518.120 5.46363
518.153 5.89238
518.187 6.58327
518.220 7.70292
518.260 9.71145
518.300 11.0442
518.340 9.69879
518.380 7.68818
518.405 6.80336
518.430 6.18292
518.479 5.44257
518.529 5.05378
518.579 4.82976
518.678 4.59641
518.777 4.48204
518.975 4.37126
519.174 4.31381
519.570 4.24217
519.967 4.18644
520.761 4.08171
521.554 3.97737
521.951 3.93115
522.347 3.90141
522.744 3.91593
523.141 4.05107
523.339 4.22557
523.538 4.55296
523.736 5.18237
523.934 6.46799
524.033 7.61469
524.133 9.40834
524.232 12.3672
524.331 17.6102
524.381 21.8350
524.430 27.9407
524.480 37.1402
524.529 51.7506
524.579 76.5781
524.604 95.8137
524.629 122.623
524.653 161.053
524.678 217.735
524.703 303.273
524.728 431.799
524.764 709.823
524.800 913.279
524.836 753.286
524.872 486.136
524.911 301.766
524.949 199.769
524.987 141.164
525.025 105.457
525.064 82.2211
525.102 66.3929
525.178 46.7921
525.255 35.5486
525.331 28.4898
525.484 20.4036
525.637 16.0674
525.790 13.4481
525.943 11.7292
526.096 10.5362
526.402 9.03737
526.708 8.24568
526.861 8.09215
527.014 8.25218
527.090 8.61299
527.167 9.46536
527.205 10.2911
527.243 11.6524
527.281 13.9991
527.320 18.1085
527.360 24.8142
527.400 29.2577
527.440 24.7064
527.481 17.9264
527.523 13.3833
527.566 10.9003
527.608 9.48673
527.651 8.62270
527.736 7.66667
527.820 7.16746
527.990 6.65448
528.160 6.38028
528.500 6.05999
528.840 5.85565
529.520 5.58219
530.200 5.39800
530.879 5.26744
531.559 5.19026
531.899 5.19130
532.069 5.21676
532.239 5.27916
532.409 5.42438
532.494 5.56498
532.579 5.80157
532.664 6.23492
532.706 6.59533
532.749 7.13123
532.791 7.97262
532.834 9.37171
532.876 11.8499
532.919 16.3751
532.959 23.2445
533.000 27.8085
533.041 23.2185
533.082 16.3582
533.115 12.5283
533.149 10.1629
533.183 8.68645
533.217 7.72877
533.285 6.62586
533.353 6.04751
533.421 5.70881
533.488 5.49333
533.624 5.24301
533.759 5.10562
533.895 5.01960
534.166 4.91612
534.437 4.85263
534.708 4.80655
535.251 4.73783
535.793 4.68513
536.335 4.64716
536.607 4.64057
536.878 4.66254
537.013 4.70640
537.149 4.82245
537.217 4.95243
537.284 5.20863
537.318 5.43520
537.352 5.78858
537.386 6.36123
537.420 7.29545
537.460 8.95746
537.500 10.0612
537.540 8.94652
537.580 7.28217
537.624 6.13535
537.668 5.52723
537.712 5.19009
537.756 4.98915
537.845 4.77317
537.933 4.66517
538.109 4.56079
538.285 4.50865
538.638 4.44892
538.990 4.40743
540.400 4.27215
541.810 4.14360
542.163 4.11737
542.515 4.10803
542.691 4.12492
542.868 4.19310
542.956 4.28231
543.044 4.47835
543.088 4.66898
543.132 4.99339
543.176 5.58677
543.220 6.71001
543.260 8.35131
543.300 9.44032
543.340 8.33801
543.380 6.69153
543.413 5.77998
543.446 5.21220
543.479 4.85473
543.512 4.62137
543.577 4.34812
543.643 4.20106
543.775 4.05253
543.906 3.97765
544.169 3.89458
544.432 3.83944
545.483 3.66168
546.535 3.47964
547.586 3.29375
548.112 3.21765
548.638 3.18513
549.163 3.26572
549.689 3.64744
549.952 4.10139
550.215 4.92794
550.478 6.48268
550.609 7.75865
550.741 9.60366
550.872 12.3556
551.004 16.6177
551.135 23.5795
551.266 35.7576
551.332 45.4598
551.398 59.3077
551.464 79.8778
551.529 111.939
551.595 165.021
551.661 259.806
551.694 336.159
551.726 444.630
551.759 602.136
551.792 828.641
551.846 1369.22
551.900 1766.74
551.954 1459.26
552.008 942.533
552.058 619.101
552.108 426.115
552.158 308.587
552.207 233.850
552.307 148.826
552.407 104.600
552.506 78.6842
552.606 62.1935
552.805 43.0323
553.005 32.6423
553.204 26.3121
553.403 22.1317
553.602 19.2033
554.001 15.4287
554.400 13.1411
554.798 11.6264
555.197 10.5585
555.994 9.16461
556.791 8.30288
557.589 7.72064
558.386 7.30214
559.980 6.74151
561.575 6.38303
563.169 6.13339
564.764 5.94886
567.953 5.69251
571.142 5.52118
574.331 5.40048
575.128 5.37886
575.925 5.36716
576.324 5.37275
576.723 5.40730
576.922 5.45997
577.022 5.51083
577.121 5.59727
577.221 5.75911
577.271 5.89704
577.321 6.10829
577.371 6.45300
577.420 7.05768
577.470 8.21938
577.495 9.19770
577.520 10.5968
577.560 13.7767
577.600 15.8880
577.640 13.7664
577.680 10.5930
577.707 9.08634
577.734 8.07090
577.762 7.38469
577.789 6.91104
577.843 6.33009
577.897 6.00688
577.951 5.81051
578.006 5.68328
578.114 5.53376
578.222 5.45224
578.331 5.40260
578.548 5.34653
578.981 5.29629
579.415 5.27119
580.283 5.24093
581.150 5.21986
582.017 5.20454
582.885 5.19986
583.319 5.20972
583.536 5.22348
583.752 5.25097
583.969 5.31041
584.078 5.36725
584.186 5.46401
584.295 5.64645
584.349 5.80352
584.403 6.04688
584.457 6.44970
584.511 7.17563
584.538 7.76808
584.566 8.62658
584.593 9.89679
584.620 11.7724
584.660 15.7561
584.700 18.4031
584.740 15.7456
584.780 11.7714
584.810 9.73882
584.840 8.42122
584.870 7.55887
584.900 6.98232
584.959 6.29471
585.019 5.92345
585.079 5.70274
585.139 5.56152
585.258 5.39821
585.377 5.31064
585.497 5.25801
585.735 5.19972
586.213 5.14957
586.690 5.12610
587.645 5.10000
588.600 5.08355
589.555 5.07382
590.510 5.07877
590.987 5.09917
591.226 5.12257
591.465 5.16675
591.704 5.25974
591.823 5.34810
591.942 5.49870
592.062 5.78496
592.121 6.03445
592.181 6.42525
592.241 7.08553
592.300 8.31112
592.330 9.34405
592.360 10.8795
592.390 13.2326
592.420 16.8480
592.460 23.9546
592.500 28.6749
592.540 23.9363
592.580 16.8478
592.620 12.3246
592.660 9.78269
592.700 8.30669
592.739 7.40376
592.779 6.81675
592.819 6.41843
592.898 5.92964
592.978 5.65371
593.057 5.48368
593.216 5.29340
593.375 5.19467
593.534 5.13651
593.852 5.07312
594.169 5.03990
594.487 5.01928
595.123 4.99384
596.394 4.96400
597.665 4.94223
600.208 4.90464
602.750 4.86895
605.293 4.83287
607.835 4.79550
609.106 4.77692
610.377 4.76178
611.013 4.76023
611.649 4.77664
611.966 4.80854
612.125 4.84183
612.284 4.90180
612.443 5.02203
612.523 5.13168
612.602 5.31082
612.682 5.63114
612.721 5.89290
612.761 6.27828
612.801 6.87516
612.840 7.84737
612.880 9.52720
612.920 12.5100
612.960 17.1969
613.000 20.3207
613.040 17.1967
613.080 12.5083
613.122 9.43526
613.163 7.74254
613.204 6.77915
613.245 6.19657
613.287 5.82089
613.328 5.56736
613.410 5.25745
613.493 5.08326
613.575 4.97571
613.740 4.85464
613.905 4.79059
614.070 4.75164
614.400 4.70620
615.060 4.65896
615.720 4.62708
617.041 4.56790
618.361 4.49752
619.021 4.45404
619.681 4.40264
620.341 4.34140
621.001 4.27026
621.331 4.23348
621.661 4.20161
621.991 4.18846
622.321 4.23396
622.486 4.31196
622.651 4.47182
622.816 4.79679
622.981 5.48783
623.063 6.11762
623.146 7.11596
623.228 8.78290
623.311 11.7742
623.393 17.7293
623.435 23.0828
623.476 31.6160
623.496 37.9078
623.517 46.2543
623.538 57.6348
623.558 73.5642
623.579 96.6467
623.600 130.763
623.620 182.625
623.641 261.591
623.670 430.905
623.700 555.643
623.715 531.630
623.730 459.871
623.759 298.532
623.783 207.977
623.807 149.965
623.831 112.633
623.855 87.8033
623.902 58.3851
623.950 42.4663
623.997 32.9247
624.045 26.7518
624.140 19.4891
624.235 15.4990
624.330 13.0522
624.426 11.4304
624.521 10.2929
624.711 8.82310
624.901 7.93196
625.092 7.34167
625.282 6.92588
625.663 6.38329
626.044 6.04755
626.424 5.82007
626.805 5.65560
627.566 5.43175
628.328 5.28537
628.708 5.23519
628.899 5.22080
629.089 5.22359
629.279 5.27128
629.375 5.33796
629.470 5.47466
629.565 5.77871
629.612 6.07330
629.660 6.57315
629.708 7.49984
629.755 9.43455
629.779 11.2471
629.803 14.2361
629.827 19.4390
629.850 28.6859
629.875 44.2157
629.900 55.7593
629.925 47.0701
629.950 32.2509
629.965 25.5693
629.980 20.7958
630.011 14.9921
630.042 11.8601
630.072 10.0309
630.103 8.87202
630.133 8.09747
630.194 7.15309
630.255 6.61705
630.316 6.28136
630.438 5.89474
630.561 5.68354
630.683 5.55244
630.927 5.39875
631.171 5.31061
631.416 5.25216
631.904 5.17643
632.393 5.12669
632.881 5.08968
633.858 5.03532
635.813 4.96289
637.767 4.91238
641.675 4.83959
645.584 4.78380
649.492 4.73474
653.401 4.68702
655.355 4.66254
657.309 4.63853
658.287 4.62943
658.775 4.62797
659.264 4.63216
659.752 4.65110
659.997 4.67425
660.241 4.71932
660.485 4.81631
660.607 4.90955
660.729 5.06937
660.852 5.37443
660.913 5.64090
660.974 6.05883
661.035 6.76568
661.096 8.07610
661.126 9.18249
661.157 10.8282
661.187 13.3522
661.218 17.2336
661.259 24.8623
661.300 29.9340
661.341 24.8432
661.382 17.2334
661.428 11.9385
661.474 9.16973
661.520 7.65134
661.565 6.75529
661.611 6.19022
661.657 5.81393
661.749 5.36348
661.840 5.11778
661.932 4.97357
662.115 4.83969
662.298 4.84570
662.390 4.91891
662.482 5.08798
662.573 5.47304
662.619 5.84396
662.665 6.46811
662.711 7.60388
662.757 9.91336
662.779 12.0193
662.802 15.3983
662.825 21.0695
662.848 30.7606
662.874 48.0038
662.900 60.7308
662.926 51.0437
662.952 34.6439
662.980 23.1940
663.007 16.8587
663.035 13.2206
663.062 10.9928
663.090 9.53918
663.117 8.54803
663.172 7.31645
663.227 6.60593
663.282 6.15800
663.392 5.63967
663.502 5.35758
663.612 5.18428
663.833 4.98624
664.053 4.87761
664.273 4.80925
664.713 4.72710
665.153 4.67801
665.594 4.64386
666.474 4.59564
668.235 4.52558
669.997 4.45770
670.877 4.41851
671.758 4.37266
672.638 4.31692
673.519 4.24704
673.959 4.20553
674.399 4.15992
674.840 4.11341
675.280 4.07914
675.500 4.07938
675.720 4.11023
675.941 4.20938
676.161 4.47278
676.271 4.73971
676.381 5.19012
676.491 5.98693
676.601 7.50041
676.711 10.7191
676.766 13.7704
676.821 18.9002
676.876 28.3151
676.904 36.1237
676.931 47.7162
676.959 65.7103
676.986 95.1061
677.000 116.940
677.014 145.664
677.027 184.192
677.041 234.711
677.071 386.406
677.100 498.251
677.115 476.938
677.130 412.857
677.159 268.458
677.179 196.712
677.199 147.828
677.220 114.320
677.240 91.1052
677.280 62.1993
677.321 45.8733
677.361 35.7746
677.402 29.1164
677.483 21.1479
677.564 16.7037
677.645 13.9587
677.726 12.1279
677.807 10.8408
677.968 9.17563
678.130 8.16549
678.292 7.49778
678.454 7.02834
678.778 6.41868
679.102 6.04436
679.426 5.79316
679.749 5.61373
680.397 5.37506
681.044 5.22372
681.692 5.11891
682.339 5.04171
683.635 4.93458
684.930 4.86282
686.225 4.81289
686.872 4.80309
687.196 4.83021
687.358 4.91326
687.439 5.05461
687.480 5.20938
687.520 5.48757
687.560 5.91997
687.600 6.20696
687.640 5.91682
687.680 5.48333
687.722 5.19416
687.764 5.03630
687.848 4.89261
688.017 4.80334
688.353 4.75898
689.026 4.73040
690.373 4.69661
693.065 4.64389
698.450 4.55551
701.143 4.51218
703.835 4.46588
705.181 4.44105
706.528 4.41599
707.201 4.40533
707.874 4.40215
708.210 4.41110
708.547 4.44811
708.715 4.50076
708.883 4.63276
708.968 4.78290
709.052 5.09281
709.094 5.38394
709.136 5.86741
709.178 6.72785
709.220 8.30541
709.260 10.6851
709.300 12.2653
709.340 10.6768
709.380 8.30124
709.414 6.94413
709.449 6.11961
709.483 5.60922
709.517 5.28201
709.586 4.90782
709.654 4.71351
709.791 4.52846
709.928 4.44532
710.202 4.37119
710.476 4.33622
711.023 4.29638
711.571 4.26693
712.666 4.20978
713.762 4.14248
714.857 4.05623
715.405 4.00406
715.953 3.94829
716.226 3.92296
716.500 3.90620
716.774 3.91288
717.048 3.98344
717.185 4.07511
717.322 4.24684
717.459 4.57548
717.596 5.24242
717.733 6.75152
717.801 8.25286
717.870 10.8791
717.938 15.9610
717.972 20.3936
718.006 27.2939
718.041 38.7401
718.058 47.3559
718.075 59.0773
718.092 75.3841
718.109 98.5598
718.126 132.001
718.143 180.067
718.158 233.346
718.172 295.637
718.200 380.560
718.214 364.237
718.228 315.118
718.257 204.956
718.277 147.630
718.298 109.493
718.319 83.9023
718.339 66.4714
718.381 45.1512
718.422 33.2942
718.463 26.0642
718.505 21.3333
718.587 15.7105
718.670 12.5934
718.752 10.6722
718.917 8.49613
719.083 7.33155
719.248 6.62203
719.413 6.14892
719.578 5.81270
719.908 5.36572
720.239 5.07850
720.899 4.71469
721.229 4.58525
721.560 4.47792
721.890 4.39610
722.220 4.36535
722.385 4.39355
722.550 4.48529
722.716 4.70577
722.881 5.21362
722.963 5.69278
723.046 6.46577
723.129 7.77469
723.211 10.1474
723.294 14.9239
723.335 19.2408
723.376 26.1521
723.397 31.2645
723.417 38.0629
723.438 47.4093
723.459 60.4768
723.479 79.4762
723.500 107.667
723.521 150.714
723.541 216.584
723.571 356.900
723.600 461.489
723.615 442.422
723.629 383.409
723.659 249.719
723.688 160.168
723.718 108.877
723.748 78.7489
723.777 60.0579
723.807 47.7129
723.836 39.2183
723.895 28.5594
723.954 22.3779
724.014 18.4592
724.132 13.9196
724.250 11.4564
724.368 9.95071
724.486 8.95172
724.605 8.24815
724.841 7.33341
725.077 6.77207
725.314 6.39543
725.550 6.12631
726.023 5.76818
726.496 5.54075
726.969 5.38298
727.442 5.26661
728.387 5.10505
729.333 4.99675
731.224 4.85702
733.116 4.76730
735.007 4.70216
738.789 4.60806
742.572 4.53684
746.355 4.47493
750.137 4.41543
751.083 4.40129
752.029 4.39046
752.502 4.39018
752.974 4.40450
753.211 4.43033
753.447 4.50251
753.565 4.59154
753.684 4.79302
753.743 5.00133
753.802 5.38790
753.831 5.71324
753.861 6.19593
753.890 6.93684
753.920 8.06862
753.960 10.3073
754.000 11.7940
754.040 10.2998
754.080 8.06515
754.121 6.62054
754.161 5.81640
754.201 5.35277
754.242 5.07041
754.322 4.76314
754.403 4.61045
754.564 4.46991
754.726 4.40810
755.048 4.35264
755.371 4.32524
756.017 4.29059
756.662 4.26137
757.308 4.23266
757.630 4.22089
757.953 4.21806
758.114 4.22573
758.276 4.24748
758.437 4.29841
758.598 4.41545
758.679 4.52622
758.760 4.70552
758.841 5.01036
758.921 5.56545
759.002 6.68906
759.042 7.71096
759.083 9.35496
759.123 12.2065
759.163 17.6018
759.183 22.2078
759.204 29.0863
759.224 39.7402
759.244 56.1289
759.272 90.4734
759.300 116.107
759.328 97.0631
759.356 64.3675
759.375 48.7196
759.393 37.8092
759.430 24.9095
759.467 18.1887
759.504 14.3384
759.541 11.9323
759.578 10.3345
759.652 8.40852
759.726 7.32628
759.800 6.65435
759.948 5.88713
760.096 5.47435
760.244 5.22252
760.391 5.05513
760.539 4.93683
760.835 4.78168
761.131 4.68506
761.722 4.57109
762.314 4.50516
762.905 4.46120
764.088 4.40407
765.271 4.36739
766.454 4.34549
767.045 4.34473
767.637 4.36752
767.933 4.40829
768.081 4.44979
768.228 4.52334
768.376 4.66876
768.450 4.79966
768.524 5.01152
768.598 5.38520
768.672 6.12425
768.709 6.78989
768.746 7.84825
768.783 9.62437
768.820 12.6459
768.860 17.6735
768.900 21.0139
768.940 17.6597
768.980 12.6441
769.006 10.3773
769.032 8.80938
769.083 6.97403
769.134 6.02817
769.186 5.49430
769.237 5.16642
769.288 4.95263
769.391 4.70034
769.494 4.56288
769.596 4.47978
769.802 4.38771
770.007 4.33955
770.212 4.31035
770.623 4.27621
771.444 4.24077
772.265 4.21789
773.908 4.18083
775.550 4.14600
777.193 4.11034
778.835 4.07313
779.656 4.05490
780.477 4.04104
780.888 4.04119
781.299 4.06140
781.504 4.09677
781.709 4.19342
781.812 4.30981
781.915 4.56445
781.966 4.81860
782.017 5.26918
782.069 6.14788
782.094 6.90014
782.120 7.98406
782.160 10.3935
782.200 12.0006
782.240 10.3915
782.280 7.97943
782.309 6.77010
782.339 5.97855
782.368 5.45585
782.397 5.10384
782.455 4.68049
782.513 4.44964
782.630 4.22171
782.747 4.11651
782.980 4.02206
783.213 3.97841
783.679 3.93145
784.146 3.89926
785.078 3.84044
786.011 3.77411
786.477 3.73570
786.944 3.69346
787.410 3.64918
787.876 3.61149
788.109 3.60396
788.343 3.61745
788.576 3.67903
788.809 3.85845
788.925 4.04634
789.042 4.36863
789.159 4.94659
789.275 6.05808
789.392 8.45233
789.450 10.7486
789.508 14.6485
789.567 21.8858
789.596 27.9863
789.625 37.1217
789.654 51.5796
789.683 75.6249
789.698 93.8226
789.712 118.158
789.727 151.379
789.741 195.772
789.771 321.884
789.800 415.187
789.815 397.380
789.829 344.032
789.859 223.457
789.893 134.308
789.926 87.3403
789.960 61.4350
789.994 46.0081
790.028 36.1663
790.062 29.5230
790.130 21.3972
790.198 16.7753
790.265 13.8892
790.401 10.5829
790.536 8.80774
790.672 7.72950
790.807 7.01708
790.943 6.51682
791.214 5.86839
791.485 5.47161
791.756 5.20589
792.027 5.01623
792.569 4.76388
793.111 4.60316
793.653 4.49088
794.195 4.40715
795.279 4.28800
796.363 4.20420
798.531 4.08538
802.868 3.91815
807.204 3.77326
811.540 3.62249
815.877 3.45041
818.045 3.35098
820.213 3.23768
821.297 3.17381
822.381 3.10535
822.923 3.07408
823.194 3.06433
823.465 3.06755
823.736 3.10905
823.872 3.16850
824.007 3.29416
824.143 3.58450
824.211 3.87673
824.278 4.39236
824.346 5.40240
824.380 6.29641
824.414 7.70288
824.448 10.0802
824.482 14.4435
824.515 23.3206
824.532 31.1616
824.549 42.8455
824.562 54.7362
824.575 68.5935
824.600 87.3084
824.625 72.2938
824.651 47.4675
824.669 34.7931
824.687 26.3482
824.706 20.6657
824.724 16.7915
824.760 12.0457
824.797 9.40571
824.833 7.79697
824.870 6.74547
824.943 5.49807
825.016 4.80794
825.089 4.38366
825.235 3.90236
825.380 3.64382
825.526 3.48466
825.818 3.29894
826.110 3.19143
826.402 3.11836
826.985 3.01783
828.153 2.88547
828.736 2.85062
828.882 2.85776
829.028 2.89361
829.174 3.04046
829.247 3.28142
829.284 3.53167
829.320 3.95743
829.360 4.67194
829.400 5.14678
829.440 4.66436
829.480 3.94214
829.527 3.41712
829.575 3.14977
829.670 2.91939
829.764 2.82641
829.859 2.77761
830.238 2.69186
830.997 2.60192
832.513 2.44304
834.030 2.27804
835.546 2.10780
837.063 1.95604
837.821 1.91521
838.580 1.95030
839.338 2.20455
839.717 2.55108
840.096 3.27336
840.475 4.94608
840.665 6.65242
840.855 9.73773
840.949 12.2800
841.044 16.0438
841.139 21.9131
841.234 31.7027
841.328 49.6847
841.376 64.7681
841.423 87.4870
841.471 123.587
841.518 184.761
841.565 295.950
841.613 505.978
841.656 819.710
841.700 1037.14
841.744 840.570
841.787 533.014
841.825 354.608
841.862 245.504
841.900 177.643
841.937 133.933
842.012 83.6934
842.087 57.4569
842.162 42.1151
842.237 32.4030
842.386 21.2599
842.536 15.3231
842.686 11.7756
842.985 7.89077
843.285 5.89559
843.584 4.72359
844.183 3.46311
844.782 2.85912
845.381 2.59237
845.980 2.58246
846.579 2.85607
847.178 3.53639
847.777 4.89925
848.076 6.00191
848.376 7.54213
848.675 9.72126
848.974 12.8598
849.274 17.5003
849.573 24.5939
849.873 35.9447
850.172 55.2224
850.472 90.7989
850.621 120.429
850.771 164.445
850.921 232.749
851.071 343.897
851.220 533.860
851.370 865.625
851.535 1448.20
851.700 1891.49
851.865 1579.60
852.030 1029.99
852.175 696.708
852.319 490.521
852.464 361.671
852.608 277.837
852.897 180.393
853.186 128.494
853.475 97.6142
853.764 77.6938
854.341 54.2301
854.919 41.2992
855.497 33.3169
856.075 27.9863
856.653 24.2156
857.808 19.2972
858.964 16.2717
860.119 14.2437
861.275 12.7987
863.586 10.8889
865.897 9.69178
868.209 8.88438
868.786 8.73177
869.364 8.61468
869.653 8.59016
869.798 8.60042
869.942 8.64402
870.086 8.76138
870.159 8.87932
870.231 9.07923
870.303 9.44196
870.375 10.1692
870.411 10.8244
870.448 11.8656
870.484 13.5952
870.520 16.5143
870.560 21.4552
870.600 24.7339
870.640 21.4254
870.680 16.4801
870.710 13.9414
870.740 12.2957
870.770 11.2208
870.800 10.4980
870.860 9.63235
870.920 9.16085
870.980 8.87562
871.039 8.68947
871.159 8.46463
871.279 8.33415
871.399 8.24725
871.638 8.13246
872.117 7.98856
872.595 7.88187
873.553 7.70520
874.511 7.55230
878.341 7.06654
882.171 6.70479
886.001 6.41551
889.831 6.16633
893.662 5.92635
895.577 5.79480
896.534 5.72129
897.492 5.64007
898.449 5.55214
898.928 5.51114
899.407 5.48699
899.646 5.49323
899.886 5.52863
900.125 5.62550
900.364 5.86361
900.484 6.09530
900.604 6.47592
900.723 7.13135
900.843 8.34155
900.963 10.8225
901.023 13.1041
901.083 16.8177
901.142 23.3477
901.202 35.9765
901.232 46.9554
901.262 63.7704
901.292 90.3503
901.322 132.662
901.361 216.722
901.400 279.356
901.439 232.548
901.478 152.445
901.518 98.5559
901.557 67.7951
901.597 49.7729
901.637 38.5825
901.676 31.2307
901.716 26.1616
901.795 19.8279
901.874 16.1531
901.953 13.8276
902.112 11.1317
902.270 9.66708
902.428 8.77107
902.587 8.17509
902.745 7.75393
903.062 7.20269
903.378 6.85984
904.011 6.45404
904.645 6.21512
905.278 6.04969
906.545 5.81188
907.811 5.61659
908.445 5.52187
909.078 5.43152
909.395 5.39422
909.711 5.37309
910.028 5.39120
910.344 5.50995
910.503 5.65531
910.661 5.91992
910.819 6.41324
910.978 7.38668
911.136 9.51096
911.215 11.5521
911.294 14.9980
911.374 21.3259
911.453 34.3101
911.492 46.2676
911.532 65.6003
911.572 98.3390
911.611 154.685
911.656 255.157
911.700 331.464
911.745 277.540
911.789 182.665
911.820 135.322
911.850 102.763
911.881 80.4756
911.911 64.9073
911.973 45.4967
912.034 34.4516
912.095 27.6048
912.156 23.0680
912.279 17.6004
912.401 14.5257
912.523 12.6102
912.768 10.4113
913.013 9.21987
913.257 8.48712
913.502 7.99632
913.747 7.64675
914.236 7.18438
914.726 6.89318
915.215 6.69286
915.704 6.54635
916.683 6.34665
917.662 6.22376
918.151 6.19002
918.641 6.19765
918.886 6.24702
919.008 6.30301
919.130 6.40528
919.253 6.60837
919.314 6.78920
919.375 7.07582
919.436 7.56525
919.497 8.48387
919.528 9.26370
919.559 10.4363
919.589 12.2525
919.620 15.0648
919.660 20.4923
919.700 24.1101
919.740 20.4879
919.780 15.0549
919.819 11.6615
919.858 9.72161
919.897 8.58471
919.936 7.88101
920.013 7.10652
920.091 6.71717
920.168 6.49499
920.246 6.35599
920.401 6.19682
920.556 6.11036
920.711 6.05644
921.022 5.99140
921.642 5.92190
922.263 5.87784
923.504 5.81288
924.746 5.76070
927.228 5.67344
929.711 5.59716
932.193 5.52329
933.435 5.48425
934.676 5.44107
935.917 5.38973
936.538 5.35885
937.158 5.32297
937.779 5.28246
938.089 5.26350
938.400 5.25380
938.555 5.25926
938.710 5.28123
938.865 5.33811
939.020 5.47491
939.175 5.82186
939.253 6.18919
939.331 6.85841
939.408 8.20650
939.447 9.42073
939.486 11.3592
939.525 14.6599
939.563 20.7644
939.602 33.2437
939.622 44.3226
939.641 60.7634
939.670 98.1309
939.700 126.529
939.730 106.497
939.759 71.2212
939.784 50.3619
939.809 37.2553
939.835 28.9594
939.860 23.5072
939.910 17.1154
939.960 13.6885
940.010 11.6347
940.060 10.3081
940.161 8.73931
940.261 7.87204
940.361 7.33656
940.462 6.97854
940.562 6.72500
940.763 6.39349
940.963 6.18893
941.364 5.95214
941.766 5.81971
942.167 5.73464
942.970 5.62969
943.772 5.56493
944.575 5.51883
946.180 5.45280
949.390 5.36018
952.601 5.28122
955.811 5.19638
957.416 5.14544
959.021 5.08257
960.627 4.99747
961.429 4.94023
962.232 4.86684
962.633 4.82181
963.034 4.77003
963.436 4.71178
963.837 4.65267
964.038 4.62971
964.238 4.62255
964.439 4.65500
964.640 4.78997
964.740 4.94523
964.840 5.22197
964.941 5.73143
965.041 6.72820
965.141 8.88663
965.191 10.9524
965.242 14.4226
965.292 20.7649
965.317 25.9971
965.342 33.6626
965.367 45.4489
965.392 64.3459
965.405 78.1369
965.417 95.9907
965.430 119.335
965.442 149.611
965.457 194.536
965.471 247.447
965.500 321.560
965.515 309.442
965.529 269.272
965.558 177.338
965.578 130.570
965.599 98.6308
965.619 76.9066
965.639 61.8093
965.680 43.0858
965.720 32.5056
965.761 25.9482
965.801 21.6127
965.883 16.3995
965.964 13.4712
966.045 11.6494
966.126 10.4257
966.207 9.55943
966.369 8.42826
966.532 7.73357
966.694 7.26908
966.856 6.93894
967.181 6.50376
967.506 6.23103
967.830 6.04415
968.155 5.90761
968.804 5.71933
969.453 5.59225
970.102 5.49680
970.751 5.41859
972.050 5.28308
972.699 5.21503
973.348 5.14005
973.673 5.09841
973.997 5.05372
974.322 5.00768
974.647 4.96848
974.809 4.95974
974.971 4.97080
975.134 5.02654
975.296 5.19031
975.377 5.36094
975.458 5.65071
975.539 6.16409
975.620 7.13139
975.702 9.14971
975.742 11.0199
975.783 14.0711
975.823 19.4427
975.864 29.7812
975.884 38.7341
975.904 52.3516
975.925 73.6687
975.935 88.5146
975.945 107.010
975.959 138.783
975.973 176.264
976.000 228.965
976.014 220.515
976.028 192.165
976.055 127.203
976.077 91.2668
976.098 67.7470
976.119 52.3348
976.141 41.9731
976.183 29.4524
976.226 22.5534
976.269 18.3612
976.311 15.6190
976.397 12.3487
976.482 10.5274
976.568 9.39638
976.653 8.63845
976.738 8.10116
976.909 7.39868
977.080 6.96616
977.251 6.67582
977.422 6.46861
977.763 6.19381
978.105 6.02039
978.447 5.90087
978.788 5.81325
979.472 5.69250
980.155 5.61217
981.521 5.50917
982.888 5.44332
984.254 5.39574
986.987 5.32821
989.720 5.27995
992.453 5.24341
993.820 5.23015
995.186 5.22557
995.870 5.23374
996.553 5.26972
996.895 5.32352
997.065 5.37654
997.236 5.46983
997.407 5.65472
997.492 5.82293
997.578 6.09899
997.663 6.59607
997.706 7.00680
997.749 7.61808
997.791 8.57621
997.834 10.1735
997.877 13.0181
997.919 18.2717
997.960 26.1248
998.000 31.3583
998.040 26.1250
998.081 18.2713
998.111 14.2606
998.141 11.6532
998.171 9.95359
998.201 8.81405
998.261 7.45887
998.321 6.72815
998.381 6.29445
998.441 6.01756
998.561 5.69863
998.681 5.52900
998.800 5.42828
999.040 5.31911
999.280 5.26376
999.520 5.23137
1000.00 5.19565
1000.73 5.16880
1001.47 5.15324
1002.93 5.13253
1005.86 5.10290
1008.79 5.08191
1009.52 5.08127
1010.26 5.09076
1010.62 5.10867
1010.99 5.16076
1011.17 5.22854
1011.35 5.39473
1011.45 5.58549
1011.54 5.98161
1011.58 6.36540
1011.63 7.02309
1011.68 8.24059
1011.72 10.5330
1011.76 13.8062
1011.80 15.9816
1011.84 13.8069
1011.88 10.5333
1011.91 8.71463
1011.95 7.61222
1011.98 6.91227
1012.01 6.45236
1012.07 5.91046
1012.14 5.62940
1012.27 5.35827
1012.40 5.23883
1012.65 5.13714
1012.91 5.09586
1013.43 5.06127
1013.94 5.04574
1014.97 5.02899
1016.00 5.01791
1018.06 5.00378
1019.09 5.01525
1019.35 5.03266
1019.61 5.08016
1019.73 5.13908
1019.86 5.27452
1019.93 5.41911
1019.99 5.69063
1020.06 6.28088
1020.09 6.84347
1020.12 7.73743
1020.16 9.38899
1020.20 10.4884
1020.24 9.38918
1020.28 7.73713
1020.31 6.86475
1020.34 6.32166
1020.40 5.72483
1020.46 5.44297
1020.52 5.29373
1020.65 5.14611
1020.77 5.08017
1021.01 5.02318
1021.25 4.99928
1021.74 4.97796
1022.22 4.96726
1024.16 4.94306
1028.05 4.90398
1031.93 4.86221
1035.81 4.81360
1039.69 4.75185
1041.64 4.71189
1043.58 4.66090
1045.52 4.58997
1046.49 4.54126
1047.46 4.47746
1047.95 4.43717
1048.43 4.38943
1048.92 4.33258
1049.40 4.26687
1049.64 4.23312
1049.89 4.20429
1050.13 4.19333
1050.37 4.23685
1050.49 4.30983
1050.62 4.45631
1050.74 4.74956
1050.86 5.36160
1050.98 6.78295
1051.04 8.20772
1051.10 10.6508
1051.16 15.3918
1051.19 19.4014
1051.22 25.5056
1051.25 35.6934
1051.27 42.9670
1051.28 52.6004
1051.30 65.5686
1051.31 83.2783
1051.33 107.662
1051.34 141.006
1051.36 184.801
1051.37 232.778
1051.40 302.461
1051.42 290.256
1051.43 253.716
1051.46 167.233
1051.48 116.863
1051.51 84.7762
1051.53 64.2397
1051.55 50.6308
1051.60 34.5473
1051.65 25.9846
1051.70 20.7080
1051.74 17.3469
1051.84 13.3064
1051.93 11.0657
1052.03 9.67789
1052.12 8.74949
1052.22 8.09215
1052.41 7.23426
1052.60 6.70645
1052.79 6.35262
1052.98 6.10040
1053.36 5.76655
1053.74 5.55620
1054.12 5.41141
1054.50 5.30526
1055.26 5.15852
1056.02 5.05968
1057.54 4.92784
1059.06 4.83439
1060.58 4.75501
1062.10 4.68176
1062.48 4.66808
1062.86 4.66697
1063.05 4.68267
1063.24 4.73778
1063.34 4.80853
1063.43 4.96521
1063.48 5.12202
1063.53 5.38960
1063.57 5.90594
1063.62 6.90996
1063.66 8.30321
1063.70 9.22891
1063.74 8.29777
1063.78 6.89878
1063.82 6.06725
1063.85 5.57216
1063.92 5.08554
1064.00 4.86692
1064.07 4.75408
1064.21 4.64187
1064.35 4.58673
1064.64 4.52572
1064.92 4.48432
1065.49 4.41085
1066.06 4.33131
1066.35 4.28743
1066.63 4.24279
1066.92 4.20363
1067.20 4.19101
1067.35 4.21343
1067.49 4.28069
1067.63 4.44324
1067.77 4.81849
1067.92 5.75685
1067.99 6.73187
1068.06 8.49064
1068.13 12.0493
1068.17 15.2407
1068.20 20.1353
1068.24 28.5838
1068.25 35.0674
1068.27 43.4282
1068.29 55.8039
1068.31 73.6589
1068.33 99.8465
1068.34 135.597
1068.36 177.942
1068.37 224.455
1068.40 292.313
1068.42 280.554
1068.43 245.143
1068.46 161.457
1068.48 109.671
1068.51 78.9199
1068.54 58.9274
1068.56 46.4235
1068.61 31.5483
1068.66 23.7446
1068.71 18.9870
1068.76 15.9210
1068.86 12.3377
1068.97 10.3391
1069.07 9.11599
1069.17 8.29645
1069.27 7.71511
1069.47 6.95121
1069.67 6.48186
1069.88 6.16427
1070.08 5.93797
1070.48 5.63537
1070.89 5.44257
1071.29 5.30821
1071.70 5.20838
1072.51 5.06740
1073.32 4.96939
1074.94 4.83250
1076.56 4.73074
1078.18 4.64600
1078.99 4.61279
1079.80 4.60329
1080.20 4.63064
1080.41 4.66856
1080.61 4.74411
1080.81 4.90830
1080.91 5.06426
1081.01 5.32819
1081.12 5.82681
1081.17 6.25398
1081.22 6.89541
1081.27 7.96175
1081.32 9.79998
1081.37 13.4140
1081.39 16.4086
1081.42 20.6844
1081.46 30.5958
1081.50 37.0003
1081.54 30.3347
1081.58 20.6762
1081.61 15.8408
1081.64 12.6468
1081.67 10.5347
1081.70 9.10194
1081.76 7.37651
1081.81 6.44602
1081.87 5.87608
1081.93 5.51450
1082.04 5.08717
1082.16 4.85357
1082.27 4.71259
1082.50 4.55218
1082.73 4.46245
1082.96 4.40324
1083.43 4.32216
1084.35 4.20849
1085.27 4.11985
1085.73 4.09169
1086.19 4.09203
1086.65 4.15819
1087.11 4.38666
1087.34 4.63761
1087.57 5.07270
1087.80 5.86136
1088.03 7.36929
1088.26 10.5857
1088.38 13.5984
1088.49 18.5896
1088.61 27.5018
1088.72 45.1124
1088.78 60.8545
1088.84 84.9037
1088.90 124.313
1088.95 187.260
1089.03 311.652
1089.10 406.862
1089.17 340.554
1089.25 223.336
1089.31 154.882
1089.37 112.152
1089.43 84.3951
1089.49 66.3288
1089.61 44.7817
1089.73 33.1315
1089.85 26.1344
1089.97 21.5921
1090.21 16.2110
1090.46 13.2301
1090.70 11.3841
1090.94 10.1485
1091.18 9.27600
1091.67 8.13000
1092.15 7.42286
1092.63 6.94701
1093.12 6.60690
1094.08 6.15208
1095.05 5.86181
1096.02 5.65846
1096.99 5.50612
1098.92 5.28686
1100.86 5.12799
1104.72 4.88032
1106.66 4.76372
1108.59 4.63816
1110.53 4.49142
1112.46 4.30502
1113.43 4.18738
1114.40 4.04570
1115.37 3.87127
1116.33 3.65476
1116.82 3.53016
1117.30 3.40069
1117.78 3.28640
1118.27 3.25322
1118.51 3.32539
1118.75 3.53897
1118.99 4.04929
1119.23 5.22927
1119.36 6.35244
1119.48 8.16976
1119.60 11.2486
1119.66 13.6210
1119.72 16.8186
1119.78 21.3889
1119.84 27.9044
1119.90 37.8844
1119.96 53.3879
1120.02 79.8527
1120.08 126.948
1120.11 165.037
1120.14 219.513
1120.17 298.642
1120.20 413.186
1120.25 692.628
1120.30 900.482
1120.35 752.502
1120.40 495.414
1120.43 368.340
1120.47 279.631
1120.53 174.682
1120.60 119.927
1120.66 88.4211
1120.73 68.7422
1120.80 55.6318
1120.93 39.8255
1121.06 30.8160
1121.19 25.2192
1121.45 18.7470
1121.72 15.2334
1121.98 13.0735
1122.24 11.6297
1122.50 10.6050
1123.03 9.25726
1123.56 8.42125
1124.08 7.85505
1124.61 7.44813
1125.66 6.90676
1126.71 6.57752
1127.24 6.47439
1127.50 6.44445
1127.77 6.44066
1128.03 6.49220
1128.16 6.56417
1128.29 6.70315
1128.43 6.99222
1128.49 7.25570
1128.56 7.67304
1128.62 8.40668
1128.69 9.81841
1128.72 11.0462
1128.75 12.9356
1128.79 15.9481
1128.82 20.6058
1128.86 29.4456
1128.90 35.1609
1128.94 29.2059
1128.98 20.5851
1129.02 15.4701
1129.05 12.4836
1129.09 10.6481
1129.12 9.47053
1129.19 8.12841
1129.26 7.43109
1129.33 7.02491
1129.40 6.76731
1129.54 6.46867
1129.68 6.30426
1129.82 6.20226
1130.10 6.07966
1130.66 5.95103
1131.22 5.87256
1132.35 5.76270
1133.47 5.68032
1135.71 5.55616
1137.95 5.46380
1140.19 5.39147
1142.44 5.33490
1143.56 5.31410
1144.68 5.30621
1145.24 5.31758
1145.80 5.36897
1146.08 5.44570
1146.22 5.52042
1146.36 5.65029
1146.50 5.90261
1146.57 6.12722
1146.64 6.48730
1146.71 7.11336
1146.78 8.33003
1146.81 9.40332
1146.85 11.0818
1146.88 13.8197
1146.92 18.3490
1146.96 26.3686
1147.00 31.5606
1147.04 26.1637
1147.08 18.3527
1147.13 12.8928
1147.17 10.0730
1147.22 8.47992
1147.26 7.55660
1147.30 6.95829
1147.35 6.56728
1147.44 6.09340
1147.53 5.82690
1147.61 5.66575
1147.79 5.48547
1147.97 5.39219
1148.14 5.33708
1148.50 5.27634
1149.21 5.22261
1149.92 5.19534
1151.33 5.16066
1152.75 5.13399
1155.58 5.08724
1158.42 5.04242
1161.25 4.99462
1162.67 4.96740
1164.08 4.93567
1165.50 4.89554
1166.21 4.86999
1166.92 4.83838
1167.62 4.79775
1167.98 4.77340
1168.33 4.74775
1168.69 4.72968
1168.86 4.73478
1169.04 4.77152
1169.22 4.90135
1169.31 5.06027
1169.39 5.37143
1169.48 6.05895
1169.53 6.71162
1169.57 7.80843
1169.62 9.86329
1169.66 13.9648
1169.68 17.6844
1169.70 23.6074
1169.73 33.4343
1169.75 49.9845
1169.76 64.0608
1169.77 80.6650
1169.80 104.170
1169.83 88.0404
1169.85 59.2087
1169.87 42.7350
1169.89 32.5273
1169.91 25.5278
1169.93 21.0458
1169.98 15.5064
1170.02 12.5226
1170.06 10.6581
1170.10 9.46621
1170.18 8.02004
1170.26 7.20461
1170.34 6.70432
1170.50 6.12851
1170.67 5.81255
1170.83 5.61765
1171.15 5.38973
1171.48 5.25938
1171.80 5.17312
1172.45 5.05864
1173.10 4.97452
1173.43 4.93665
1173.75 4.90219
1174.07 4.88121
1174.24 4.88906
1174.40 4.93437
1174.56 5.08720
1174.64 5.26724
1174.72 5.61732
1174.81 6.36612
1174.85 7.08332
1174.89 8.24415
1174.93 10.3730
1174.97 14.4715
1174.99 18.2877
1175.01 23.9555
1175.03 33.0002
1175.05 47.5563
1175.06 60.9154
1175.07 76.7119
1175.10 99.1710
1175.13 83.8683
1175.15 56.4904
1175.17 42.0883
1175.19 32.4086
1175.21 25.9164
1175.23 21.4535
1175.27 15.9781
1175.30 12.9702
1175.34 11.0608
1175.38 9.83118
1175.45 8.32476
1175.53 7.46843
1175.60 6.94154
1175.75 6.33346
1175.91 5.99951
1176.06 5.79411
1176.36 5.55584
1176.66 5.42243
1176.96 5.33733
1177.56 5.23416
1178.16 5.17243
1178.76 5.13038
1179.96 5.07447
1181.17 5.03697
1182.37 5.00860
1184.78 4.96569
1189.59 4.90329
1194.40 4.85256
1204.02 4.75931
1213.64 4.66040
1223.27 4.53982
1228.08 4.46384
1232.89 4.36961
1237.70 4.24473
1240.10 4.16303
1242.51 4.05992
1244.92 3.92108
1246.12 3.82941
1247.32 3.71361
1248.52 3.56046
1249.13 3.46445
1249.73 3.35556
1250.03 3.29989
1250.33 3.25150
1250.63 3.22932
1250.93 3.28672
1251.08 3.38984
1251.23 3.60013
1251.38 4.02423
1251.53 4.91353
1251.68 6.98269
1251.76 9.04459
1251.83 12.6542
1251.87 15.5592
1251.91 19.5781
1251.94 25.6582
1251.98 34.7567
1252.02 49.9219
1252.06 75.4433
1252.08 95.8252
1252.09 124.152
1252.11 163.923
1252.13 215.992
1252.17 360.298
1252.20 465.276
1252.22 445.440
1252.24 386.841
1252.27 254.571
1252.30 173.483
1252.33 123.106
1252.36 91.5298
1252.39 71.4961
1252.45 47.2517
1252.51 34.5184
1252.57 26.7964
1252.63 21.8955
1252.74 16.0978
1252.86 12.8699
1252.98 10.8797
1253.10 9.55148
1253.22 8.61882
1253.46 7.38949
1253.69 6.63352
1253.93 6.12295
1254.17 5.75541
1254.64 5.25881
1255.12 4.93548
1256.07 4.52099
1257.02 4.24306
1257.97 4.02072
1259.86 3.61982
1260.81 3.40971
1261.76 3.17969
1262.71 2.92425
1263.66 2.65458
1264.14 2.53420
1264.61 2.45949
1265.09 2.50851
1265.56 2.89068
1265.80 3.37492
1266.03 4.26640
1266.27 5.94516
1266.39 7.32201
1266.51 9.27915
1266.63 12.1831
1266.75 16.6082
1266.87 23.6533
1266.98 35.4068
1267.10 56.9635
1267.16 74.5137
1267.22 100.157
1267.28 139.879
1267.34 201.893
1267.40 303.910
1267.46 474.022
1267.53 799.504
1267.60 1046.71
1267.67 876.750
1267.74 576.368
1267.83 348.483
1267.91 227.298
1267.99 159.930
1268.07 119.899
1268.16 93.8044
1268.24 76.0822
1268.41 54.2945
1268.57 41.6892
1268.74 33.7654
1269.07 24.5314
1269.40 19.4829
1269.73 16.3677
1270.06 14.2808
1270.39 12.7975
1271.05 10.8468
1271.72 9.63195
1272.38 8.80761
1273.04 8.21401
1274.36 7.41512
1275.69 6.90293
1277.01 6.54473
1278.33 6.27898
1280.98 5.90592
1283.63 5.65056
1286.27 5.46073
1287.60 5.39217
1287.93 5.38598
1288.26 5.40153
1288.43 5.43533
1288.59 5.52847
1288.67 5.63848
1288.76 5.86483
1288.84 6.43729
1288.88 7.06023
1288.92 8.18895
1288.96 9.91563
1289.00 11.0638
1289.04 9.91200
1289.08 8.18111
1289.12 7.00784
1289.17 6.38698
1289.25 5.82212
1289.33 5.59160
1289.42 5.47655
1289.59 5.36815
1289.75 5.31746
1290.09 5.26602
1290.43 5.23566
1291.77 5.15422
1294.46 5.01974
1297.15 4.88742
1299.84 4.74413
1302.54 4.57351
1303.88 4.46918
1305.23 4.34385
1306.57 4.18639
1307.25 4.09129
1307.92 3.98532
1308.59 3.88162
1308.93 3.85119
1309.26 3.87798
1309.60 4.08693
1309.77 4.37912
1309.94 4.99228
1310.10 6.38765
1310.19 7.75945
1310.27 10.1122
1310.36 14.4873
1310.40 18.1497
1310.44 23.6064
1310.48 32.0897
1310.52 45.9333
1310.57 69.6417
1310.61 111.142
1310.65 185.643
1310.70 241.677
1310.75 202.523
1310.79 134.255
1310.82 102.395
1310.85 79.6299
1310.91 52.2335
1310.97 37.3545
1311.02 28.5586
1311.08 22.9607
1311.14 19.1799
1311.25 14.5318
1311.37 11.8508
1311.48 10.1728
1311.71 8.21437
1311.94 7.12526
1312.16 6.44250
1312.62 5.62424
1313.08 5.13318
1313.53 4.78569
1314.45 4.26657
1314.90 4.04256
1315.36 3.83129
1315.82 3.64442
1316.27 3.53873
1316.50 3.56985
1316.73 3.73329
1316.96 4.17394
1317.19 5.24607
1317.30 6.29014
1317.42 7.97628
1317.53 10.8370
1317.59 13.0181
1317.64 16.0008
1317.70 20.1787
1317.76 26.2047
1317.82 35.2146
1317.87 49.3015
1317.93 72.5887
1317.99 113.818
1318.02 147.261
1318.04 192.698
1318.07 259.793
1318.10 351.630
1318.15 589.344
1318.20 773.130
1318.25 651.434
1318.30 429.401
1318.35 269.704
1318.41 180.703
1318.46 129.508
1318.52 98.0804
1318.57 77.5664
1318.62 63.4679
1318.73 45.8547
1318.84 35.6305
1318.95 29.1246
1319.16 21.5308
1319.38 17.3600
1319.60 14.7794
1319.81 13.0474
1320.03 11.8145
1320.46 10.1900
1320.89 9.17587
1321.32 8.48597
1321.76 7.98720
1322.62 7.31441
1323.48 6.88032
1324.35 6.57534
1325.21 6.34779
1326.94 6.02674
1328.67 5.80596
1332.12 5.50646
1335.58 5.29158
1339.04 5.10225
1340.76 5.00219
1341.63 4.94650
1342.49 4.88359
1343.36 4.80849
1343.79 4.76398
1344.22 4.71370
1344.65 4.66070
1344.87 4.63959
1345.08 4.63712
1345.30 4.69935
1345.41 4.80081
1345.52 5.02689
1345.62 5.56671
1345.68 6.11496
1345.73 7.08042
1345.79 8.93483
1345.81 10.5328
1345.84 12.9769
1345.87 16.9050
1345.89 23.5988
1345.92 35.7326
1345.93 44.9358
1345.95 57.3391
1345.96 74.8419
1345.97 93.9777
1346.00 120.893
1346.03 101.780
1346.05 68.8612
1346.08 49.1429
1346.10 36.5554
1346.12 28.4855
1346.14 23.3309
1346.18 16.8880
1346.23 13.4609
1346.27 11.3413
1346.31 9.99099
1346.40 8.37375
1346.49 7.45886
1346.57 6.88930
1346.75 6.23539
1346.92 5.87363
1347.09 5.64815
1347.44 5.38042
1347.79 5.22392
1348.13 5.11843
1348.83 4.97735
1349.52 4.87786
1350.21 4.79632
1351.60 4.65151
1352.99 4.50501
1354.38 4.33510
1355.07 4.23369
1355.42 4.17798
1355.76 4.12117
1356.11 4.07350
1356.28 4.06590
1356.46 4.09319
1356.63 4.22188
1356.72 4.38614
1356.80 4.71044
1356.89 5.42633
1356.93 6.10245
1356.98 7.23215
1357.02 9.33309
1357.06 13.4774
1357.08 17.3018
1357.11 23.0497
1357.13 32.9140
1357.15 48.4747
1357.16 62.1040
1357.17 78.0787
1357.20 100.435
1357.23 84.8053
1357.25 56.9221
1357.28 36.4229
1357.31 25.2271
1357.34 18.8894
1357.37 15.1496
1357.40 12.6259
1357.42 10.9553
1357.48 8.82882
1357.54 7.57971
1357.60 6.80125
1357.71 5.88842
1357.83 5.37762
1357.94 5.05874
1358.17 4.67520
1358.40 4.44654
1358.63 4.28657
1359.08 4.05616
1360.00 3.70737
1360.92 3.37509
1361.37 3.20470
1361.83 3.04308
1362.29 2.92714
1362.75 2.97029
1362.98 3.14752
1363.21 3.55858
1363.43 4.44150
1363.55 5.21592
1363.66 6.36021
1363.78 8.11964
1363.89 10.8617
1364.01 15.4041
1364.12 23.2464
1364.18 29.5246
1364.24 38.2232
1364.29 50.8387
1364.35 69.8289
1364.41 99.7141
1364.46 149.222
1364.52 235.644
1364.58 390.467
1364.64 659.817
1364.70 870.954
1364.76 734.329
1364.82 483.466
1364.87 349.749
1364.91 259.962
1364.96 199.798
1365.00 159.228
1365.09 108.147
1365.18 79.7529
1365.27 62.0499
1365.36 50.4788
1365.54 36.4319
1365.72 28.5176
1365.90 23.5614
1366.08 20.2181
1366.25 17.8356
1366.61 14.7040
1366.97 12.7632
1367.33 11.4556
1367.69 10.5227
1368.40 9.28117
1369.12 8.50027
1369.83 7.96427
1370.55 7.57497
1371.98 7.04581
1373.41 6.70278
1374.84 6.46119
1376.27 6.28096
1379.14 6.02764
1382.00 5.85557
1384.86 5.72871
1387.72 5.62951
1393.45 5.47930
1399.17 5.36371
1404.90 5.26240
1407.76 5.21468
1409.19 5.20479
1409.55 5.21536
1409.91 5.25510
1410.08 5.31067
1410.26 5.45032
1410.35 5.61190
1410.44 5.94750
1410.49 6.27184
1410.53 6.80897
1410.58 7.81025
1410.62 9.66855
1410.66 12.3638
1410.70 14.1539
1410.74 12.3631
1410.78 9.66622
1410.81 8.16709
1410.85 7.23573
1410.91 6.28150
1410.98 5.83849
1411.04 5.60915
1411.17 5.38753
1411.30 5.28885
1411.57 5.20214
1411.83 5.16387
1412.35 5.12509
1412.87 5.10039
1413.92 5.05743
1414.96 5.00878
1416.01 4.94363
1416.53 4.90006
1417.05 4.84521
1417.58 4.77627
1417.84 4.73887
1418.10 4.70976
1418.36 4.72638
1418.49 4.79319
1418.62 4.97117
1418.75 5.45187
1418.82 5.96825
1418.88 6.91584
1418.95 8.86030
1418.98 10.6148
1419.02 13.3023
1419.05 17.9480
1419.08 26.0468
1419.10 33.0119
1419.11 42.3999
1419.13 55.8931
1419.15 75.2058
1419.16 97.8906
1419.17 124.742
1419.20 161.647
1419.21 156.230
1419.23 136.463
1419.26 92.1625
1419.28 65.3708
1419.30 48.8747
1419.32 38.1139
1419.34 30.8689
1419.39 22.0144
1419.43 17.2711
1419.48 14.3254
1419.52 12.4412
1419.61 10.1584
1419.70 8.88137
1419.79 8.08430
1419.88 7.54738
1419.97 7.16485
1420.15 6.66163
1420.32 6.34902
1420.68 5.98671
1421.03 5.78383
1421.39 5.65475
1422.10 5.49941
1422.81 5.40772
1423.52 5.34609
1424.95 5.26526
1426.37 5.21142
1427.79 5.17039
1430.64 5.10626
1436.33 5.00218
1439.18 4.95299
1440.60 4.93415
1441.31 4.94808
1441.67 5.02689
1441.84 5.23462
1441.93 5.59911
1441.98 6.01169
1442.02 6.79083
1442.06 7.92232
1442.10 8.67439
1442.14 7.92088
1442.18 6.78781
1442.22 6.10052
1442.25 5.69772
1442.33 5.30576
1442.48 5.05172
1442.77 4.93361
1443.36 4.88303
1444.54 4.84601
1446.90 4.78606
1449.26 4.71891
1451.61 4.63771
1453.97 4.53365
1455.15 4.46805
1456.33 4.38821
1457.51 4.28604
1458.10 4.22181
1458.69 4.14453
1459.28 4.04942
1459.57 3.99523
1459.87 3.94225
1460.16 3.91470
1460.31 3.93957
1460.46 4.04376
1460.60 4.37308
1460.68 4.75429
1460.75 5.47144
1460.83 6.99095
1460.86 8.39794
1460.90 10.6105
1460.94 14.5343
1460.97 21.9511
1460.99 28.4186
1461.01 37.5129
1461.02 43.6353
1461.03 51.1560
1461.04 60.3827
1461.05 71.6165
1461.06 93.4392
1461.07 119.285
1461.10 154.815
1461.11 149.570
1461.13 130.506
1461.16 87.8497
1461.18 58.6644
1461.21 41.4865
1461.24 31.1785
1461.26 24.6585
1461.29 20.3109
1461.32 17.2758
1461.37 13.4239
1461.43 11.1536
1461.48 9.69430
1461.59 7.98583
1461.69 7.02748
1461.80 6.43071
1462.02 5.74172
1462.23 5.35747
1462.45 5.11559
1462.88 4.82687
1463.31 4.66401
1463.74 4.56855
1464.60 4.53577
1465.03 4.62582
1465.46 4.84834
1465.90 5.32139
1466.33 6.32288
1466.76 8.60082
1466.97 10.8391
1467.19 14.6421
1467.40 21.6955
1467.51 27.5610
1467.62 36.1424
1467.73 49.4527
1467.83 70.6241
1467.94 106.436
1468.05 166.859
1468.18 279.523
1468.30 366.474
1468.43 309.017
1468.55 204.889
1468.64 153.391
1468.72 117.429
1468.89 74.8538
1469.06 52.6013
1469.22 39.7659
1469.39 31.7270
1469.56 26.3561
1469.90 19.8183
1470.23 16.1058
1470.57 13.7713
1471.24 11.0667
1471.91 9.58523
1472.58 8.66668
1473.26 8.04769
1473.93 7.60548
1475.27 7.01744
1476.61 6.64652
1477.96 6.39166
1479.30 6.20579
1481.99 5.95161
1484.68 5.78476
1487.36 5.66533
1490.05 5.57433
1495.43 5.44062
1500.80 5.33914
1503.49 5.29147
1506.17 5.23781
1507.52 5.20318
1508.86 5.15429
1509.53 5.11876
1510.21 5.07208
1510.54 5.05083
1510.71 5.04973
1510.88 5.07201
1511.05 5.16600
1511.13 5.28592
1511.21 5.52878
1511.30 6.06674
1511.34 6.58599
1511.38 7.46265
1511.42 9.05914
1511.47 12.2841
1511.49 15.1879
1511.51 19.7699
1511.53 27.2675
1511.55 38.9211
1511.56 49.6454
1511.57 62.3660
1511.60 80.7035
1511.63 68.8640
1511.65 47.0435
1511.67 36.4920
1511.69 29.0550
1511.72 20.3368
1511.75 15.5474
1511.79 12.8357
1511.82 11.0704
1511.85 9.91981
1511.92 8.50254
1511.99 7.67927
1512.05 7.16109
1512.19 6.56400
1512.32 6.23441
1512.45 6.03207
1512.72 5.79925
1513.25 5.59444
1513.79 5.51214
1514.32 5.48960
1514.85 5.54621
1515.12 5.65492
1515.25 5.76400
1515.39 5.95479
1515.52 6.32858
1515.59 6.66082
1515.65 7.18151
1515.72 8.09044
1515.79 9.79689
1515.82 11.3203
1515.85 13.5920
1515.89 17.1842
1515.92 22.9060
1515.96 33.4184
1516.00 40.4106
1516.04 33.4185
1516.08 22.9039
1516.11 18.0357
1516.14 14.8037
1516.19 10.9926
1516.24 8.99219
1516.29 7.88265
1516.35 7.18918
1516.40 6.74491
1516.50 6.21529
1516.61 5.92771
1516.71 5.75427
1516.92 5.56424
1517.13 5.46586
1517.34 5.40769
1517.76 5.34323
1518.60 5.28527
1519.44 5.25587
1521.12 5.22034
1522.79 5.19546
1526.15 5.15637
1529.50 5.12293
1536.21 5.06066
1539.57 5.02962
1541.24 5.01687
1542.08 5.02283
1542.50 5.06545
1542.71 5.18706
1542.82 5.42174
1542.87 5.71552
1542.92 6.33552
1542.96 7.13875
1543.00 7.67356
1543.04 7.13820
1543.08 6.33418
1543.13 5.75451
1543.17 5.45982
1543.27 5.20983
1543.46 5.06813
1543.83 5.00830
1544.58 4.98199
1546.09 4.95904
1549.09 4.91737
1552.10 4.86762
1555.10 4.80220
1556.61 4.75957
1558.11 4.70632
1559.61 4.63683
1561.12 4.54080
1561.87 4.47704
1562.62 4.39756
1563.37 4.29559
1564.12 4.16177
1564.50 4.07914
1564.87 3.98512
1565.25 3.88325
1565.62 3.79260
1565.81 3.77088
1566.00 3.79500
1566.19 3.92479
1566.38 4.30904
1566.56 5.39819
1566.66 6.60874
1566.75 8.87691
1566.80 10.7622
1566.85 13.5380
1566.89 17.7847
1566.94 24.6058
1566.99 36.2664
1567.01 45.5257
1567.03 57.8490
1567.06 76.1722
1567.08 101.779
1567.10 139.499
1567.13 194.962
1567.16 327.379
1567.20 431.026
1567.24 364.265
1567.27 241.071
1567.32 146.013
1567.36 95.9799
1567.41 68.3689
1567.45 52.1714
1567.49 41.4989
1567.54 34.4001
1567.62 25.4840
1567.71 20.3424
1567.80 17.0806
1567.97 13.2780
1568.15 11.1791
1568.32 9.88726
1568.49 9.01834
1568.67 8.39867
1569.02 7.57883
1569.37 7.06810
1569.71 6.72065
1570.06 6.46978
1570.76 6.13225
1571.45 5.91653
1572.15 5.76630
1572.85 5.65575
1574.24 5.50287
1575.63 5.40211
1577.03 5.33496
1577.72 5.32867
1578.07 5.38816
1578.25 5.55958
1578.33 5.86002
1578.38 6.20669
1578.42 6.84281
1578.46 7.78369
1578.50 8.40970
1578.54 7.78121
1578.58 6.83755
1578.63 6.15662
1578.67 5.81518
1578.77 5.52004
1578.95 5.34698
1579.32 5.26808
1580.06 5.22411
1581.54 5.17873
1584.49 5.11364
1587.45 5.06177
1590.40 5.01643
1596.31 4.93327
1599.27 4.89345
1600.74 4.88177
1601.48 4.90786
1601.67 4.93928
1601.85 5.01910
1601.94 5.11274
1602.04 5.30930
1602.13 5.82254
1602.17 6.42166
1602.22 7.58341
1602.26 9.21518
1602.30 10.2983
1602.34 9.21454
1602.38 7.58163
1602.42 6.53003
1602.46 5.93926
1602.54 5.38894
1602.62 5.16126
1602.70 5.04794
1602.86 4.94369
1603.02 4.89806
1603.66 4.83906
1604.94 4.80252
1607.50 4.74878
1610.06 4.68910
1612.61 4.61625
1615.17 4.52150
1617.73 4.38762
1619.01 4.29429
1619.65 4.23671
1620.29 4.16898
1620.93 4.08788
1621.57 3.99542
1621.89 3.95940
1622.05 3.95940
1622.21 3.99774
1622.37 4.14489
1622.45 4.32410
1622.53 4.67541
1622.61 5.42806
1622.65 6.13657
1622.69 7.30869
1622.73 9.39266
1622.77 13.4747
1622.79 17.0482
1622.81 22.5436
1622.83 31.2551
1622.85 44.2859
1622.86 57.7293
1622.87 72.4545
1622.90 93.1087
1622.93 78.0588
1622.95 52.6229
1622.97 38.0677
1623.00 28.6243
1623.02 22.4807
1623.04 18.3562
1623.08 13.4146
1623.12 10.7038
1623.16 9.05921
1623.21 7.98314
1623.29 6.70720
1623.37 5.98033
1623.46 5.52409
1623.62 4.99161
1623.79 4.68662
1623.96 4.48702
1624.29 4.22612
1624.63 4.04463
1624.96 3.89497
1625.63 3.62596
1625.97 3.49637
1626.30 3.37647
1626.64 3.29186
1626.97 3.32220
1627.14 3.44858
1627.31 3.73904
1627.47 4.35949
1627.64 5.69978
1627.72 6.92530
1627.81 8.84988
1627.89 12.0046
1627.97 17.4023
1628.02 21.6706
1628.06 27.6643
1628.10 36.3416
1628.14 48.9910
1628.18 69.1919
1628.23 102.427
1628.27 159.853
1628.31 258.096
1628.35 434.651
1628.40 573.010
1628.45 484.665
1628.49 320.671
1628.53 230.559
1628.56 172.048
1628.60 132.774
1628.63 105.743
1628.70 72.5047
1628.77 53.8028
1628.83 42.2675
1628.90 34.6359
1629.04 25.4229
1629.17 20.1945
1629.31 16.9442
1629.45 14.7477
1629.58 13.1799
1629.86 11.1088
1630.13 9.82723
1630.40 8.95843
1630.67 8.33779
1631.22 7.50912
1631.76 6.98350
1632.31 6.62004
1632.85 6.35273
1633.94 5.98198
1635.03 5.73102
1636.12 5.54292
1637.21 5.38956
1639.39 5.12579
1640.48 4.99268
1641.57 4.84162
1642.66 4.65118
1643.21 4.53022
1643.75 4.38434
1644.03 4.30131
1644.30 4.21498
1644.57 4.13554
1644.84 4.09932
1644.98 4.12937
1645.12 4.23570
1645.25 4.50127
1645.39 5.12598
1645.52 6.66789
1645.59 8.25802
1645.66 11.0783
1645.69 13.3237
1645.73 16.5151
1645.76 21.1995
1645.80 28.3491
1645.83 39.7894
1645.85 48.1359
1645.86 59.1443
1645.88 73.8811
1645.90 93.8649
1645.91 121.157
1645.93 158.190
1645.97 267.884
1646.00 351.465
1646.02 339.007
1646.04 296.373
1646.07 197.783
1646.10 139.917
1646.13 102.543
1646.15 78.3313
1646.18 62.1232
1646.24 42.7418
1646.29 32.2605
1646.35 25.7557
1646.40 21.4999
1646.52 16.4434
1646.63 13.5785
1646.74 11.8014
1646.85 10.5989
1646.96 9.73880
1647.18 8.59766
1647.41 7.88533
1647.63 7.40131
1647.85 7.05321
1648.30 6.58178
1648.74 6.27788
1649.19 6.06269
1649.63 5.90085
1650.52 5.66652
1651.42 5.49657
1653.20 5.23484
1654.98 4.98831
1655.87 4.84470
1656.76 4.66866
1657.21 4.56149
1657.65 4.43713
1658.10 4.29194
1658.54 4.12987
1658.77 4.05061
1658.99 3.98903
1659.21 3.98199
1659.43 4.12943
1659.55 4.34300
1659.66 4.75044
1659.77 5.53437
1659.88 7.10677
1659.99 10.5851
1660.05 13.9129
1660.10 19.3470
1660.13 23.5208
1660.16 29.2156
1660.19 37.1798
1660.21 48.1486
1660.24 64.9166
1660.27 90.6295
1660.30 131.196
1660.32 192.662
1660.36 324.800
1660.40 429.488
1660.42 416.451
1660.44 365.028
1660.48 243.001
1660.50 183.276
1660.53 142.538
1660.57 92.0562
1660.62 65.0880
1660.67 49.3028
1660.72 39.3133
1660.77 32.5874
1660.87 24.3954
1660.97 19.6450
1661.06 16.6424
1661.26 13.1586
1661.45 11.2281
1661.65 10.0327
1661.85 9.22067
1662.04 8.64180
1662.43 7.86997
1662.82 7.38282
1663.21 7.04832
1663.60 6.80461
1664.39 6.47289
1665.17 6.25684
1665.95 6.10409
1666.73 5.98971
1668.30 5.82828
1669.86 5.71818
1672.99 5.57402
1676.12 5.48054
1679.24 5.41286
1685.50 5.31729
1691.75 5.24901
1698.01 5.19444
1704.26 5.14786
1707.39 5.13157
1708.17 5.13282
1708.96 5.14646
1709.35 5.16949
1709.74 5.23509
1709.93 5.32062
1710.13 5.53062
1710.23 5.77373
1710.32 6.28563
1710.37 6.78898
1710.42 7.66681
1710.47 9.33581
1710.52 12.6058
1710.56 17.2039
1710.60 20.1841
1710.64 17.0850
1710.68 12.6066
1710.73 9.43156
1710.77 7.78939
1710.82 6.89757
1710.87 6.37459
1710.96 5.82769
1711.05 5.56601
1711.23 5.33406
1711.42 5.23723
1711.79 5.15830
1712.15 5.12646
1712.89 5.09865
1713.62 5.08468
1716.57 5.05128
1719.51 5.02063
1722.45 4.98417
1725.39 4.93467
1726.86 4.90049
1728.33 4.85474
1729.80 4.78863
1730.54 4.74279
1731.28 4.68411
1732.01 4.60997
1732.38 4.57030
1732.75 4.54121
1733.11 4.56680
1733.30 4.64800
1733.48 4.85794
1733.67 5.41213
1733.76 6.00487
1733.85 7.08449
1733.94 9.23013
1733.99 11.1278
1734.03 14.0927
1734.08 18.9793
1734.13 27.5758
1734.17 43.8319
1734.19 57.2112
1734.22 75.0422
1734.26 124.311
1734.30 163.220
1734.34 138.862
1734.38 93.2317
1734.43 58.3673
1734.48 39.7506
1734.53 29.3679
1734.58 23.2206
1734.63 19.1602
1734.68 16.4425
1734.77 13.0202
1734.87 11.0221
1734.97 9.76584
1735.16 8.29489
1735.36 7.47947
1735.55 6.97537
1735.75 6.63530
1735.94 6.39214
1736.33 6.06945
1736.72 5.86752
1737.11 5.72932
1737.49 5.62946
1738.27 5.49444
1739.05 5.40749
1739.82 5.34676
1740.60 5.30201
1742.16 5.24173
1743.71 5.21033
1744.49 5.21074
1745.26 5.24519
1745.65 5.30481
1745.85 5.36532
1746.04 5.47347
1746.24 5.69254
1746.33 5.89359
1746.43 6.22741
1746.53 6.83849
1746.58 7.35832
1746.62 8.12871
1746.67 9.39065
1746.72 11.5185
1746.77 15.5781
1746.82 23.4029
1746.86 34.5843
1746.90 41.8330
1746.94 34.3023
1746.98 23.4050
1747.01 18.6856
1747.03 15.3531
1747.08 11.4006
1747.13 9.25708
1747.18 8.04443
1747.23 7.27482
1747.28 6.77747
1747.38 6.18311
1747.48 5.85380
1747.58 5.65478
1747.77 5.43715
1747.97 5.32542
1748.17 5.26055
1748.56 5.19030
1749.35 5.13097
1750.14 5.10334
1751.72 5.07191
1753.30 5.05006
1759.62 4.97933
1762.77 4.94111
1765.93 4.89162
1767.51 4.85672
1769.09 4.80514
1769.88 4.76614
1770.67 4.71026
1771.06 4.67573
1771.46 4.65779
1771.66 4.69784
1771.76 4.76609
1771.85 4.91843
1771.95 5.28796
1772.00 5.65916
1772.05 6.30741
1772.10 7.56928
1772.15 10.2184
1772.17 12.7908
1772.20 16.8808
1772.22 24.3298
1772.25 37.4833
1772.26 48.2935
1772.27 60.6574
1772.30 78.5026
1772.33 67.3178
1772.35 45.8533
1772.38 30.0653
1772.41 21.5582
1772.44 16.5689
1772.47 13.6399
1772.50 11.6729
1772.53 10.3716
1772.59 8.71747
1772.65 7.75859
1772.71 7.14806
1772.82 6.43356
1772.94 6.03912
1773.06 5.79361
1773.30 5.50982
1773.77 5.25110
1774.24 5.13007
1775.18 5.00863
1776.12 4.94055
1778.01 4.84588
1779.89 4.75593
1780.83 4.70299
1781.78 4.63935
1782.72 4.55847
1783.66 4.44992
1784.13 4.37974
1784.60 4.29493
1785.08 4.19143
1785.55 4.06724
1785.78 3.99998
1786.02 3.93725
1786.25 3.89782
1786.49 3.93819
1786.61 4.03518
1786.72 4.24607
1786.84 4.68426
1786.96 5.60382
1787.08 7.72784
1787.14 9.82336
1787.20 13.4162
1787.23 16.2549
1787.25 20.0683
1787.28 25.7119
1787.31 33.7723
1787.34 46.5908
1787.37 66.4418
1787.40 99.2671
1787.43 154.258
1787.47 258.631
1787.50 340.831
1787.52 329.649
1787.54 289.933
1787.57 193.520
1787.61 119.120
1787.65 79.3175
1787.69 57.1064
1787.73 43.7368
1787.78 35.1194
1787.82 29.2449
1787.90 21.9543
1787.98 17.7403
1788.06 15.0615
1788.23 11.9440
1788.39 10.2121
1788.55 9.13624
1788.72 8.41142
1788.88 7.89641
1789.21 7.21046
1789.54 6.78181
1789.86 6.48942
1790.19 6.27786
1790.84 5.99255
1791.50 5.80982
1792.15 5.68240
1792.81 5.58858
1794.12 5.45880
1795.43 5.37282
1796.74 5.31108
1798.04 5.26417
1800.66 5.19692
1803.28 5.15211
1804.59 5.13810
1805.90 5.13772
1806.56 5.15379
1807.21 5.21292
1807.54 5.29809
1807.70 5.38115
1807.86 5.52526
1808.03 5.81043
1808.11 6.06854
1808.19 6.48345
1808.27 7.23132
1808.31 7.84409
1808.36 8.74850
1808.40 10.1500
1808.44 12.4492
1808.48 16.4503
1808.52 23.3865
1808.56 34.4559
1808.60 41.8700
1808.64 34.4597
1808.68 23.3906
1808.71 18.1419
1808.74 14.7141
1808.79 10.7541
1808.85 8.74620
1808.90 7.62063
1808.95 6.92497
1809.01 6.48247
1809.12 5.96292
1809.23 5.68011
1809.33 5.51224
1809.55 5.32892
1809.98 5.18099
1810.42 5.12216
1811.28 5.07150
1812.15 5.04636
1813.88 5.01353
1815.62 4.98453
1817.35 4.95078
1819.08 4.90154
1819.95 4.86302
1820.81 4.80437
1821.25 4.76423
1821.68 4.73072
1821.90 4.75160
1822.01 4.80258
1822.11 4.92899
1822.22 5.25569
1822.28 5.59665
1822.33 6.20853
1822.39 7.40284
1822.41 8.44216
1822.44 10.0418
1822.47 12.6277
1822.49 17.0598
1822.52 25.1480
1822.53 31.8825
1822.55 40.5327
1822.56 52.6460
1822.57 66.0983
1822.60 85.4980
1822.63 73.6066
1822.65 50.0196
1822.67 37.2505
1822.69 28.4391
1822.72 22.6790
1822.74 18.7994
1822.78 14.1347
1822.82 11.6119
1822.86 10.0302
1822.90 9.01434
1822.99 7.77486
1823.07 7.07703
1823.15 6.63945
1823.32 6.13222
1823.48 5.85320
1823.65 5.67924
1823.98 5.47649
1824.65 5.29050
1825.31 5.20343
1826.64 5.11797
1827.97 5.07364
1830.63 5.02342
1833.28 4.99162
1838.60 4.94846
1839.93 4.94330
1841.26 4.94897
1841.92 4.96618
1842.59 5.02244
1842.92 5.10076
1843.25 5.30745
1843.42 5.56358
1843.50 5.79357
1843.58 6.16619
1843.66 6.82477
1843.75 8.13930
1843.79 9.35062
1843.83 11.2549
1843.87 14.5681
1843.91 20.1754
1843.96 29.3896
1844.00 35.3209
1844.04 29.1694
1844.09 20.1780
1844.13 14.0713
1844.18 10.7518
1844.23 8.88301
1844.27 7.76000
1844.32 7.04247
1844.36 6.55970
1844.45 5.97892
1844.55 5.65086
1844.64 5.45204
1844.82 5.22989
1845.19 5.04879
1845.55 4.97741
1846.29 4.91894
1847.02 4.89306
1848.48 4.86455
1849.95 4.84390
1852.88 4.80410
1855.81 4.75606
1858.74 4.68822
1860.21 4.63981
1861.67 4.57333
1862.41 4.52917
1863.14 4.47382
1863.87 4.40218
1864.60 4.30616
1864.97 4.24500
1865.34 4.17290
1865.70 4.08884
1866.07 3.99769
1866.25 3.95676
1866.44 3.93250
1866.62 3.95297
1866.80 4.09362
1866.89 4.26921
1866.99 4.58684
1867.08 5.18550
1867.17 6.34473
1867.26 8.85317
1867.31 11.2129
1867.35 14.9941
1867.37 17.8736
1867.40 21.7644
1867.42 27.1450
1867.44 34.7830
1867.47 45.9431
1867.49 62.7384
1867.51 88.6286
1867.53 126.477
1867.57 211.962
1867.60 279.494
1867.62 270.271
1867.63 237.707
1867.67 158.717
1867.69 115.246
1867.72 87.1622
1867.74 67.5118
1867.76 54.5373
1867.81 38.1969
1867.86 29.0063
1867.91 23.3372
1867.96 19.5852
1868.06 15.0857
1868.16 12.5108
1868.25 10.8952
1868.35 9.80328
1868.45 9.03047
1868.64 8.00041
1868.84 7.36308
1869.04 6.93019
1869.23 6.62153
1869.62 6.20999
1870.01 5.95059
1870.40 5.77318
1870.79 5.64530
1871.58 5.47632
1872.36 5.38543
1872.75 5.37461
1873.14 5.42524
1873.33 5.52060
1873.53 5.77792
1873.63 6.08511
1873.72 6.73886
1873.77 7.38384
1873.82 8.50882
1873.87 10.6429
1873.92 14.7983
1873.96 20.5798
1874.00 24.2865
1874.04 20.4235
1874.08 14.7862
1874.11 11.7885
1874.14 9.85790
1874.17 8.61014
1874.21 7.77914
1874.27 6.79711
1874.33 6.27008
1874.45 5.75755
1874.58 5.52656
1874.82 5.32300
1875.07 5.23497
1875.57 5.15271
1876.06 5.10946
1877.05 5.05596
1878.04 5.01839
1880.02 4.96158
1882.00 4.91636
1885.96 4.84354
1886.95 4.83171
1887.94 4.83355
1888.43 4.85280
1888.93 4.92154
1889.18 5.01870
1889.42 5.27041
1889.55 5.57519
1889.67 6.25496
1889.73 6.96386
1889.80 8.28922
1889.83 9.41176
1889.86 11.0967
1889.89 13.7000
1889.92 17.5736
1889.96 25.2700
1890.00 30.4039
1890.04 25.2757
1890.08 17.5793
1890.12 12.9171
1890.16 10.2481
1890.19 8.63707
1890.23 7.61815
1890.31 6.46375
1890.38 5.88431
1890.53 5.34093
1890.68 5.10620
1890.97 4.90858
1891.27 4.82715
1891.87 4.75555
1892.46 4.71938
1893.65 4.67135
1894.84 4.62973
1897.22 4.53846
1899.59 4.41767
1900.78 4.33782
1901.97 4.23750
1903.16 4.10687
1904.35 3.92955
1904.94 3.81493
1905.54 3.67712
1906.13 3.51070
1906.73 3.31674
1907.02 3.21638
1907.32 3.13045
1907.62 3.09639
1907.92 3.22053
1908.06 3.42882
1908.21 3.84458
1908.36 4.67462
1908.51 6.36603
1908.58 7.87615
1908.66 10.1614
1908.73 13.8000
1908.81 19.9090
1908.84 24.7036
1908.88 31.1238
1908.92 40.1453
1908.96 53.2006
1908.99 72.7340
1909.03 103.024
1909.07 151.516
1909.10 229.802
1909.15 391.165
1909.20 516.110
1909.25 436.639
1909.30 290.845
1909.33 220.593
1909.36 171.896
1909.42 111.227
1909.48 78.4691
1909.54 59.4093
1909.60 47.0483
1909.66 38.8201
1909.78 28.5711
1909.90 22.6760
1910.02 18.9364
1910.27 14.5682
1910.51 12.1568
1910.75 10.6542
1910.99 9.63807
1911.23 8.90918
1911.72 7.93628
1912.20 7.31991
1912.69 6.89171
1913.17 6.57337
1914.14 6.11425
1915.11 5.75986
1915.59 5.58800
1915.83 5.50029
1916.08 5.41687
1916.32 5.36521
1916.44 5.38361
1916.56 5.49132
1916.68 5.84350
1916.74 6.25324
1916.80 7.01196
1916.86 8.58368
1916.89 9.97003
1916.92 12.1428
1916.95 15.8825
1916.98 22.3015
1917.00 27.3590
1917.01 34.4154
1917.03 44.3675
1917.04 58.7804
1917.06 75.7974
1917.07 96.7668
1917.10 128.035
1917.11 124.602
1917.13 109.846
1917.16 75.0552
1917.19 49.8806
1917.21 35.6934
1917.24 27.3374
1917.27 22.1122
1917.30 18.5534
1917.33 16.1736
1917.39 13.1524
1917.45 11.3416
1917.51 10.1951
1917.62 8.82997
1917.74 8.05660
1917.86 7.56914
1918.09 6.99614
1918.32 6.66852
1918.56 6.45690
1919.02 6.19407
1919.49 6.03326
1919.96 5.92151
1920.89 5.77071
1921.83 5.66926
1922.76 5.59379
1924.63 5.48542
1926.49 5.40880
1928.36 5.35050
1932.10 5.26557
1935.83 5.20503
1939.57 5.15854
1947.04 5.08911
1954.51 5.03667
1961.98 4.99292
1969.45 4.95534
1971.32 4.94853
1973.18 4.94753
1974.12 4.95488
1975.05 4.98412
1975.52 5.02760
1975.99 5.14802
1976.22 5.30514
1976.34 5.45213
1976.45 5.69814
1976.57 6.16489
1976.63 6.56520
1976.69 7.18786
1976.74 8.24948
1976.80 10.1650
1976.83 11.7515
1976.86 14.0838
1976.89 17.5973
1976.92 22.8935
1976.96 33.7356
1977.00 40.9863
1977.04 33.7385
1977.08 22.8968
1977.12 16.7480
1977.15 13.0065
1977.19 10.7001
1977.22 9.21901
1977.29 7.53232
1977.36 6.66923
1977.43 6.16164
1977.50 5.84389
1977.64 5.48643
1977.78 5.29832
1977.92 5.18870
1978.20 5.07128
1978.76 4.97863
1979.31 4.94234
1980.43 4.91133
1981.54 4.89594
1983.77 4.87604
1986.00 4.85986
1990.46 4.83251
1991.57 4.83100
1992.69 4.84380
1993.25 4.86986
1993.80 4.94938
1994.08 5.05763
1994.36 5.33702
1994.50 5.67980
1994.57 5.98412
1994.64 6.46236
1994.71 7.30079
1994.78 8.89063
1994.81 10.2982
1994.85 12.4848
1994.88 16.0175
1994.92 21.5800
1994.96 31.8344
1995.00 38.4732
1995.04 31.5803
1995.08 21.5874
1995.12 15.4055
1995.16 11.8959
1995.20 9.74983
1995.24 8.44175
1995.31 6.96548
1995.39 6.21965
1995.47 5.79494
1995.55 5.53126
1995.70 5.23643
1996.01 4.99134
1996.31 4.89388
1996.93 4.81380
1997.54 4.77835
1998.77 4.73849
2000.00 4.70727
2002.08 4.64754
2003.12 4.60774
2004.16 4.55546
2005.20 4.48254
2005.72 4.43480
2006.24 4.37887
2006.76 4.32312
2007.02 4.30959
2007.28 4.33655
2007.54 4.49396
2007.67 4.70821
2007.80 5.15320
2007.93 6.15399
2007.99 7.12525
2008.06 8.76602
2008.12 11.7450
2008.19 17.7107
2008.22 23.1239
2008.25 31.3043
2008.28 44.3788
2008.32 65.4300
2008.36 108.210
2008.40 142.156
2008.44 121.581
2008.48 82.1910
2008.53 53.1927
2008.58 37.0263
2008.62 27.7242
2008.67 22.1061
2008.71 18.3347
2008.76 15.7869
2008.85 12.5418
2008.94 10.6270
2009.03 9.41630
2009.21 7.99029
2009.40 7.19554
2009.58 6.70302
2009.76 6.37023
2009.94 6.13214
2010.31 5.81636
2010.67 5.61967
2011.04 5.48651
2011.40 5.39251
2012.13 5.27669
2012.86 5.24205
2013.23 5.27924
2013.59 5.43569
2013.77 5.65625
2013.86 5.86189
2013.95 6.20462
2014.05 6.83067
2014.09 7.36069
2014.14 8.13962
2014.18 9.40375
2014.23 11.4986
2014.27 15.4054
2014.32 22.6791
2014.36 33.3184
2014.40 40.4349
2014.44 33.3221
2014.48 22.6803
2014.51 17.4804
2014.54 14.0298
2014.57 11.7385
2014.60 10.1791
2014.66 8.29498
2014.71 7.26246
2014.77 6.64262
2014.83 6.24336
2014.95 5.77850
2015.06 5.52826
2015.18 5.37762
2015.41 5.21155
2015.87 5.07055
2016.34 5.00800
2017.26 4.94441
2018.19 4.90675
2020.04 4.85495
2021.90 4.81491
2025.61 4.74527
2029.31 4.67439
2033.02 4.58907
2034.88 4.53540
2036.73 4.46894
2038.58 4.38111
2039.51 4.32405
2040.44 4.25280
2041.36 4.15929
2041.83 4.09988
2042.29 4.02919
2042.75 3.94703
2042.99 3.90642
2043.22 3.87959
2043.45 3.91014
2043.57 3.99233
2043.68 4.19450
2043.80 4.71029
2043.85 5.24890
2043.91 6.21192
2043.97 8.08553
2044.00 9.71332
2044.03 12.2172
2044.06 16.2654
2044.09 23.2116
2044.10 28.7860
2044.12 35.9165
2044.13 45.6662
2044.14 59.6921
2044.16 77.7342
2044.17 98.6853
2044.20 128.816
2044.21 124.710
2044.23 109.451
2044.26 73.1827
2044.29 46.4320
2044.32 32.1174
2044.35 23.9332
2044.38 18.9234
2044.41 15.6567
2044.44 13.4114
2044.51 10.6025
2044.57 8.94564
2044.63 7.90625
2044.75 6.68039
2044.88 5.99063
2045.00 5.55859
2045.25 5.04602
2045.50 4.77181
2045.62 4.71053
2045.75 4.73501
2045.87 4.96088
2045.94 5.25127
2046.00 5.81501
2046.06 6.98017
2046.09 8.03146
2046.12 9.69433
2046.15 12.4695
2046.18 17.4229
2046.21 26.9727
2046.23 35.2887
2046.25 46.9305
2046.26 60.3330
2046.27 77.0178
2046.30 100.418
2046.33 85.9668
2046.35 58.1525
2046.38 38.0672
2046.41 27.0444
2046.44 20.6345
2046.47 16.6624
2046.50 14.0486
2046.53 12.2390
2046.59 9.95669
2046.65 8.59669
2046.70 7.73797
2046.82 6.71550
2046.94 6.13301
2047.05 5.76438
2047.29 5.31784
2047.75 4.86699
2048.22 4.61606
2049.15 4.27899
2050.08 3.98598
2050.54 3.82953
2051.01 3.65922
2051.48 3.47360
2051.94 3.28913
2052.17 3.21717
2052.41 3.19201
2052.64 3.28193
2052.87 3.66104
2053.10 4.85810
2053.22 6.24583
2053.34 8.86165
2053.40 11.0897
2053.45 14.3250
2053.51 19.2631
2053.57 27.1484
2053.63 40.4834
2053.66 50.6943
2053.69 64.7196
2053.72 84.4078
2053.74 112.629
2053.77 153.696
2053.80 213.309
2053.85 363.177
2053.90 483.647
2053.95 411.630
2054.00 273.752
2054.05 179.473
2054.10 124.371
2054.15 91.4607
2054.19 70.6919
2054.24 56.8534
2054.29 47.1903
2054.39 34.9100
2054.49 27.6525
2054.59 22.9730
2054.78 17.4554
2054.98 14.3614
2055.17 12.4278
2055.37 11.1200
2055.56 10.1875
2055.96 8.94376
2056.35 8.16417
2056.74 7.63137
2057.13 7.24516
2057.91 6.72305
2058.69 6.38720
2059.48 6.15200
2060.26 5.97788
2061.83 5.73485
2063.39 5.57110
2064.96 5.45052
2066.52 5.35538
2069.65 5.20406
2072.78 5.06302
2074.35 4.97620
2075.13 4.92086
2075.91 4.85052
2076.69 4.75398
2077.09 4.69029
2077.48 4.61278
2077.87 4.52477
2078.06 4.48785
2078.26 4.48289
2078.46 4.59465
2078.55 4.77937
2078.65 5.18581
2078.75 6.15555
2078.80 7.12703
2078.85 8.80660
2078.90 11.9363
2078.94 18.4126
2078.97 24.5067
2078.99 33.8805
2079.01 40.6235
2079.02 49.3458
2079.03 60.6513
2079.04 75.1943
2079.06 98.5545
2079.07 126.456
2079.10 165.925
2079.12 161.097
2079.13 141.240
2079.16 95.8560
2079.19 65.3781
2079.21 47.5296
2079.24 36.1174
2079.27 29.0218
2079.32 20.6431
2079.38 16.1866
2079.43 13.5255
2079.49 11.7987
2079.60 9.74402
2079.71 8.59440
2079.82 7.87412
2080.04 7.03944
2080.26 6.57441
2080.48 6.28221
2080.92 5.93836
2081.36 5.74230
2081.80 5.61574
2082.68 5.45994
2083.55 5.36592
2084.43 5.30141
2086.19 5.21529
2087.95 5.15719
2089.71 5.11383
2091.46 5.08588
2092.34 5.10462
2092.56 5.13396
2092.78 5.21274
2092.89 5.30819
2093.00 5.52021
2093.11 6.12600
2093.17 6.91486
2093.22 8.59949
2093.26 10.7203
2093.30 12.1280
2093.34 10.7197
2093.38 8.59768
2093.43 6.95278
2093.48 6.18069
2093.59 5.55469
2093.69 5.32368
2093.79 5.21518
2093.99 5.11885
2094.20 5.07776
2095.02 5.02286
2096.65 4.98514
2098.29 4.96749
2099.10 5.00167
2099.31 5.04384
2099.51 5.15297
2099.61 5.28175
2099.72 5.56129
2099.77 5.83827
2099.82 6.32835
2099.87 7.27977
2099.92 9.25429
2099.96 11.8343
2100.00 13.5458
2100.04 11.8354
2100.08 9.25446
2100.11 7.88668
2100.14 7.03340
2100.20 6.10419
2100.26 5.65480
2100.32 5.41697
2100.44 5.18286
2100.56 5.07749
2100.81 4.98508
2101.05 4.94543
2102.01 4.88757
2103.94 4.83051
2105.87 4.77064
2107.80 4.69258
2108.77 4.64145
2109.73 4.57748
2110.70 4.49400
2111.67 4.37975
2112.15 4.30499
2112.63 4.21350
2113.11 4.10016
2113.60 3.96080
2114.08 3.80361
2114.32 3.74142
2114.56 3.74543
2114.68 3.81499
2114.80 3.98762
2114.92 4.36915
2115.04 5.19870
2115.17 7.15716
2115.23 9.08877
2115.29 12.4004
2115.32 15.0608
2115.35 18.6496
2115.38 23.7634
2115.41 31.2841
2115.44 42.7554
2115.47 60.9697
2115.50 90.9992
2115.53 141.168
2115.56 239.281
2115.60 318.261
2115.62 308.464
2115.64 271.393
2115.67 181.245
2115.70 139.163
2115.72 109.966
2115.76 72.7503
2115.81 52.3115
2115.85 40.1240
2115.90 32.3113
2115.94 27.0019
2116.03 20.4252
2116.12 16.6253
2116.21 14.2069
2116.39 11.3725
2116.57 9.80278
2116.75 8.82285
2116.93 8.15965
2117.11 7.68401
2117.47 7.05161
2117.83 6.65290
2118.19 6.37976
2118.55 6.18185
2119.27 5.91318
2119.99 5.73982
2120.71 5.61850
2121.43 5.52870
2122.87 5.40362
2124.31 5.31995
2125.75 5.25922
2127.19 5.21254
2130.07 5.14388
2132.95 5.09402
2138.70 5.02077
2144.46 4.96177
2150.22 4.90166
2153.10 4.86427
2154.54 4.84077
2155.98 4.81108
2157.42 4.76997
2158.85 4.70505
2159.57 4.65500
2160.29 4.58881
2160.65 4.56095
2160.83 4.56323
2161.01 4.60351
2161.19 4.75663
2161.28 4.94498
2161.37 5.31659
2161.46 6.11367
2161.51 6.86015
2161.55 8.08312
2161.60 10.2189
2161.64 14.2720
2161.69 22.7903
2161.71 30.3044
2161.73 41.7285
2161.77 67.9951
2161.80 89.1913
2161.83 76.5059
2161.87 52.3482
2161.91 34.5323
2161.94 24.6655
2161.98 18.9800
2162.02 15.4801
2162.05 13.1376
2162.09 11.5715
2162.17 9.60201
2162.24 8.43651
2162.31 7.70085
2162.46 6.82846
2162.61 6.34445
2162.76 6.04224
2163.06 5.69202
2163.36 5.49675
2163.65 5.37354
2164.25 5.22739
2164.85 5.14305
2165.44 5.08777
2166.63 5.01803
2167.82 4.97399
2169.01 4.94212
2171.39 4.89545
2176.16 4.82705
2178.54 4.80209
2179.73 4.81583
2180.03 4.84112
2180.32 4.91287
2180.47 5.00417
2180.62 5.22029
2180.70 5.45827
2180.77 5.92409
2180.85 7.00739
2180.88 8.11763
2180.92 10.0055
2180.96 13.2016
2181.00 15.2657
2181.04 13.1195
2181.08 10.0058
2181.13 7.78945
2181.17 6.65811
2181.22 6.03541
2181.26 5.66662
2181.35 5.27715
2181.44 5.08882
2181.62 4.91981
2181.80 4.84779
2182.16 4.78649
2182.52 4.75937
2183.96 4.71211
2186.85 4.64725
2188.29 4.61288
2189.73 4.58135
2190.45 4.57570
2191.17 4.60497
2191.53 4.66771
2191.89 4.85641
2192.07 5.10281
2192.16 5.32843
2192.25 5.69865
2192.34 6.36195
2192.43 7.70898
2192.48 8.95259
2192.52 10.9903
2192.57 14.5308
2192.61 20.8646
2192.66 30.7704
2192.70 37.3913
2192.75 30.7715
2192.79 20.8619
2192.82 16.1199
2192.85 13.0211
2192.91 9.45773
2192.97 7.63726
2193.03 6.63994
2193.09 6.02379
2193.15 5.63006
2193.27 5.16510
2193.52 4.75237
2193.76 4.57505
2194.24 4.40983
2194.72 4.31744
2195.69 4.17024
2196.65 4.00520
2197.14 3.90334
2197.62 3.78250
2198.10 3.63855
2198.58 3.47337
2198.83 3.38968
2199.07 3.32098
2199.31 3.30167
2199.55 3.42839
2199.67 3.62446
2199.79 4.01001
2199.91 4.76323
2200.03 6.27226
2200.09 7.60878
2200.15 9.60692
2200.21 12.7521
2200.27 17.9554
2200.30 22.0131
2200.33 27.3549
2200.36 34.7555
2200.39 45.2777
2200.42 60.6734
2200.45 83.8741
2200.48 119.700
2200.51 175.162
2200.56 296.281
2200.60 393.081
2200.64 335.939
2200.69 224.896
2200.73 152.367
2200.77 108.103
2200.81 80.7751
2200.85 63.1224
2200.93 42.7151
2201.01 31.8515
2201.09 25.3627
2201.17 21.1519
2201.33 16.1658
2201.49 13.3559
2201.64 11.6069
2201.80 10.4155
2201.96 9.56770
2202.28 8.44057
2202.60 7.73425
2202.92 7.25338
2203.24 6.90620
2203.88 6.44007
2204.52 6.14229
2205.15 5.93577
2205.79 5.78400
2207.07 5.57525
2208.34 5.43745
2209.62 5.33864
2210.90 5.26345
2213.45 5.15397
2216.00 5.07453
2221.10 4.95359
2226.21 4.84174
2228.76 4.77634
2231.31 4.69362
2232.59 4.64071
2233.86 4.57513
2235.14 4.49004
2236.42 4.37303
2237.05 4.29572
2237.69 4.19962
2238.33 4.07726
2238.97 3.91812
2239.29 3.82128
2239.61 3.71287
2239.93 3.59900
2240.24 3.50626
2240.40 3.49388
2240.56 3.54243
2240.72 3.72711
2240.88 4.22830
2241.04 5.57772
2241.12 7.02666
2241.20 9.61526
2241.24 11.7269
2241.28 14.7592
2241.32 19.2556
2241.36 26.1896
2241.40 37.4057
2241.44 56.6032
2241.46 71.3499
2241.48 91.4748
2241.50 119.128
2241.52 154.679
2241.56 261.864
2241.60 347.951
2241.64 297.750
2241.68 199.650
2241.71 141.343
2241.75 104.571
2241.78 79.8546
2241.81 63.7450
2241.88 44.0240
2241.94 33.2784
2242.00 26.5987
2242.07 22.2097
2242.20 16.9632
2242.33 13.9770
2242.46 12.1133
2242.59 10.8394
2242.72 9.93364
2242.98 8.72843
2243.23 7.97394
2243.49 7.46100
2243.75 7.09244
2244.27 6.59644
2244.79 6.28035
2245.31 6.06149
2245.82 5.90105
2246.86 5.67980
2247.89 5.53324
2248.93 5.42705
2249.96 5.34459
2252.03 5.21673
2254.10 5.10252
2255.14 5.03506
2256.18 4.94229
2256.69 4.87616
2257.21 4.79354
2257.47 4.76256
2257.60 4.76977
2257.73 4.82720
2257.86 5.03148
2257.92 5.27640
2257.99 5.74149
2258.05 6.72969
2258.08 7.62120
2258.12 9.04515
2258.15 11.5493
2258.18 15.9926
2258.21 24.7504
2258.23 32.2342
2258.25 43.4796
2258.26 55.9871
2258.27 71.5230
2258.30 93.7148
2258.33 81.0342
2258.35 55.4386
2258.38 41.4670
2258.40 32.2626
2258.42 26.0373
2258.44 21.7252
2258.48 16.2857
2258.52 13.2913
2258.56 11.3894
2258.60 10.1573
2258.68 8.65269
2258.76 7.78381
2258.84 7.23544
2259.00 6.59798
2259.16 6.24163
2259.32 6.01911
2259.65 5.75629
2260.29 5.51127
2260.94 5.39366
2262.23 5.27488
2263.52 5.21124
2264.81 5.16905
2266.10 5.13774
2268.69 5.09206
2271.27 5.05879
2273.85 5.03388
2276.44 5.02564
2277.08 5.03585
2277.73 5.07336
2278.05 5.12721
2278.37 5.27124
2278.54 5.45221
2278.70 5.87979
2278.78 6.35544
2278.86 7.30398
2278.90 8.20018
2278.94 9.63194
2278.98 12.0999
2279.02 16.4675
2279.06 23.4115
2279.10 27.8764
2279.14 23.2339
2279.18 16.4703
2279.22 12.0213
2279.26 9.54186
2279.30 8.11878
2279.35 7.25175
2279.43 6.31313
2279.51 5.84998
2279.67 5.43030
2279.84 5.25323
2280.16 5.10765
2280.49 5.05029
2281.15 5.00386
2281.80 4.98440
2283.11 4.97029
2283.77 4.98742
2284.09 5.05795
2284.26 5.23215
2284.34 5.52213
2284.42 6.39644
2284.46 7.26370
2284.50 7.84128
2284.54 7.26460
2284.58 6.39701
2284.62 5.80919
2284.67 5.49307
2284.75 5.21263
2284.92 5.04425
2285.26 4.97162
2285.94 4.94297
2287.30 4.92545
2290.02 4.90235
2295.46 4.85439
2298.18 4.82254
2300.90 4.77472
2302.27 4.73605
2303.63 4.67209
2304.31 4.61980
2304.99 4.54193
2305.33 4.49478
2305.67 4.48043
2305.84 4.55824
2305.92 4.67701
2306.01 4.93434
2306.09 5.52944
2306.13 6.12414
2306.18 7.11332
2306.22 8.96787
2306.26 12.6173
2306.28 16.0528
2306.30 21.2122
2306.32 29.5218
2306.34 35.7989
2306.35 43.2772
2306.36 55.9378
2306.37 71.4226
2306.40 93.4252
2306.43 80.6890
2306.45 54.9462
2306.48 38.9917
2306.50 29.1505
2306.53 22.7301
2306.55 18.7121
2306.60 13.9068
2306.65 11.3280
2306.70 9.78006
2306.75 8.77229
2306.85 7.57873
2306.94 6.90089
2307.04 6.47966
2307.24 5.98619
2307.63 5.54022
2308.02 5.33843
2308.80 5.15028
2309.58 5.06037
2311.14 4.96999
2312.70 4.92108
2315.83 4.86050
2318.95 4.81387
2322.07 4.76504
2323.64 4.73545
2325.20 4.69835
2326.76 4.64673
2327.54 4.61088
2328.32 4.56302
2329.10 4.49475
2329.49 4.44830
2329.88 4.39053
2330.27 4.32184
2330.47 4.28975
2330.66 4.27610
2330.86 4.33593
2330.96 4.45022
2331.05 4.71291
2331.15 5.35863
2331.20 6.01706
2331.25 7.13905
2331.30 9.28920
2331.35 13.8095
2331.37 18.1255
2331.40 24.8555
2331.41 29.7535
2331.42 36.1493
2331.43 44.5251
2331.44 55.5165
2331.46 73.0829
2331.47 92.7886
2331.50 121.689
2331.51 118.573
2331.53 104.961
2331.56 70.8731
2331.59 47.4033
2331.62 33.4920
2331.65 25.3623
2331.68 20.4477
2331.71 17.0764
2331.74 14.7447
2331.79 11.8455
2331.85 10.1111
2331.91 9.01484
2332.03 7.71458
2332.15 6.98291
2332.27 6.52854
2332.51 5.99664
2332.74 5.69977
2332.98 5.51313
2333.45 5.29110
2333.93 5.16275
2334.40 5.07840
2335.35 4.97086
2336.30 4.90115
2337.25 4.84811
2339.15 4.75972
2341.05 4.66652
2341.99 4.60788
2342.94 4.53205
2343.89 4.42454
2344.37 4.35062
2344.84 4.25642
2345.32 4.13742
2345.55 4.07357
2345.79 4.02526
2346.03 4.05926
2346.15 4.17923
2346.26 4.49036
2346.38 5.30928
2346.44 6.16709
2346.50 7.70112
2346.56 10.7370
2346.59 13.3738
2346.62 17.2494
2346.65 23.6285
2346.66 28.2791
2346.68 33.9378
2346.69 41.9510
2346.71 52.7590
2346.72 67.4162
2346.74 85.6425
2346.75 112.737
2346.77 145.159
2346.80 191.427
2346.82 186.083
2346.83 163.249
2346.86 110.627
2346.88 85.0775
2346.90 66.7622
2346.94 44.3872
2346.98 32.3004
2347.02 25.3078
2347.06 20.7171
2347.10 17.6144
2347.18 13.8247
2347.26 11.6089
2347.34 10.2166
2347.50 8.57040
2347.66 7.65642
2347.82 7.08410
2348.14 6.41576
2348.45 6.04181
2348.77 5.80402
2349.41 5.51894
2350.04 5.35174
2350.68 5.23975
2351.95 5.09068
2353.22 4.98157
2354.49 4.87415
2355.13 4.81007
2355.76 4.73810
2356.08 4.71620
2356.40 4.78676
2356.56 4.97924
2356.64 5.20490
2356.72 5.62962
2356.80 6.52098
2356.84 7.33574
2356.87 8.60112
2356.91 10.7909
2356.95 14.6501
2356.99 22.4278
2357.01 29.0932
2357.03 38.4115
2357.07 62.2389
2357.10 81.6777
2357.13 70.1585
2357.17 48.2753
2357.20 35.4395
2357.22 26.9571
2357.25 21.4862
2357.28 17.9444
2357.33 13.5409
2357.39 11.1688
2357.45 9.69881
2357.50 8.75130
2357.61 7.60810
2357.72 6.95638
2357.83 6.54681
2358.05 6.07124
2358.28 5.80587
2358.50 5.63947
2358.94 5.44197
2359.38 5.32883
2359.83 5.25498
2360.71 5.16293
2361.60 5.10631
2362.48 5.06684
2364.26 5.01336
2366.03 4.97702
2367.80 4.94953
2371.34 4.90856
2374.89 4.87768
2378.43 4.85281
2381.98 4.83615
2383.75 4.84963
2384.19 4.87083
2384.63 4.93170
2384.86 5.01179
2385.08 5.21169
2385.19 5.44755
2385.30 5.95847
2385.35 6.48212
2385.41 7.41106
2385.46 9.26373
2385.49 10.9190
2385.52 13.2730
2385.56 18.3875
2385.60 21.8123
2385.64 18.3901
2385.68 13.2759
2385.72 10.5083
2385.75 8.77618
2385.81 6.98556
2385.88 6.14746
2385.94 5.71215
2386.08 5.29211
2386.21 5.10630
2386.47 4.95053
2386.73 4.88826
2387.25 4.83814
2387.78 4.81763
2389.87 4.78822
2394.05 4.76117
2398.24 4.74226
2400.33 4.75162
2400.85 4.76998
2401.37 4.82466
2401.64 4.89822
2401.90 5.08645
2402.03 5.31461
2402.16 5.83470
2402.22 6.38808
2402.29 7.42662
2402.32 8.33745
2402.35 9.68476
2402.39 11.8804
2402.42 15.2633
2402.46 21.6500
2402.50 25.7590
2402.54 21.4876
2402.58 15.2672
2402.62 11.4798
2402.65 9.29300
2402.69 7.96349
2402.73 7.11826
2402.80 6.15591
2402.87 5.67129
2403.02 5.21615
2403.16 5.01919
2403.45 4.85650
2403.74 4.79209
2404.32 4.74029
2404.90 4.71887
2407.22 4.68603
2411.85 4.64923
2416.49 4.61212
2418.80 4.59339
2419.96 4.59049
2420.54 4.61307
2420.83 4.69338
2420.98 4.87895
2421.05 5.16252
2421.12 5.93533
2421.20 7.29425
2421.28 5.93447
2421.34 5.25492
2421.40 4.95992
2421.51 4.73478
2421.74 4.61981
2422.20 4.57328
2423.12 4.55016
2424.96 4.52430
2428.63 4.47060
2432.31 4.40166
2435.98 4.30575
2437.82 4.24100
2439.66 4.15836
2441.50 4.04848
2443.34 3.89428
2444.25 3.79102
2445.17 3.66156
2446.09 3.49517
2447.01 3.27632
2447.47 3.14141
2447.93 2.98869
2448.39 2.82388
2448.85 2.67937
2449.08 2.64680
2449.31 2.68949
2449.54 2.90289
2449.77 3.52080
2449.88 4.15883
2450.00 5.22945
2450.11 7.08637
2450.17 8.50300
2450.23 10.4435
2450.29 13.2150
2450.34 17.1379
2450.40 23.0776
2450.46 32.1072
2450.52 47.0331
2450.57 72.2431
2450.63 118.054
2450.66 155.170
2450.69 204.127
2450.74 347.879
2450.80 463.955
2450.86 397.188
2450.91 265.875
2450.98 170.367
2451.04 116.235
2451.10 84.6846
2451.16 65.3656
2451.22 52.3888
2451.28 43.5303
2451.40 32.2219
2451.52 25.5659
2451.64 21.2817
2451.88 16.2135
2452.13 13.3776
2452.37 11.6101
2452.61 10.4119
2452.85 9.55194
2453.34 8.40696
2453.82 7.68767
2454.31 7.19484
2454.79 6.83840
2455.76 6.35697
2456.73 6.04773
2457.70 5.83229
2458.67 5.67352
2460.60 5.45392
2462.54 5.30820
2464.48 5.20325
2466.42 5.12306
2470.29 5.00539
2474.17 4.91899
2478.04 4.85098
2479.98 4.84008
2480.47 4.85629
2480.95 4.91551
2481.19 4.99934
2481.43 5.21715
2481.56 5.47883
2481.68 6.06483
2481.74 6.67453
2481.80 7.78480
2481.83 8.74980
2481.86 10.1435
2481.89 12.2667
2481.92 15.5057
2481.96 21.9271
2482.00 26.1995
2482.04 21.9306
2482.08 15.5087
2482.11 12.4448
2482.14 10.3766
2482.19 8.02369
2482.25 6.85064
2482.31 6.20043
2482.42 5.55278
2482.53 5.25530
2482.75 4.99788
2482.98 4.89075
2483.43 4.79955
2483.87 4.75716
2484.77 4.70592
2485.66 4.66127
2486.56 4.60685
2487.46 4.52634
2487.90 4.46818
2488.35 4.40264
2488.57 4.39409
2488.69 4.42311
2488.80 4.51901
2488.91 4.79633
2488.97 5.10347
2489.02 5.67123
2489.08 6.80768
2489.11 7.81265
2489.13 9.37647
2489.16 11.9324
2489.19 16.3628
2489.22 24.5440
2489.23 31.1266
2489.25 39.7590
2489.26 51.2946
2489.27 65.5319
2489.30 85.9073
2489.33 74.3953
2489.35 50.9120
2489.38 34.3926
2489.41 24.9887
2489.44 19.2506
2489.47 15.7927
2489.50 13.4210
2489.53 11.8301
2489.58 9.77425
2489.64 8.56287
2489.70 7.78248
2489.81 6.85832
2489.92 6.34208
2490.04 6.01820
2490.27 5.64134
2490.72 5.29654
2491.18 5.13703
2492.09 4.98417
2493.00 4.90773
2494.82 4.82572
2496.64 4.77788
2498.46 4.74467
2500.28 4.72449
2501.19 4.72532
2502.10 4.75363
2502.55 4.80340
2503.01 4.94746
2503.24 5.13761
2503.35 5.31567
2503.46 5.61302
2503.58 6.17470
2503.63 6.65881
2503.69 7.41053
2503.75 8.66014
2503.80 10.9283
2503.83 12.8325
2503.86 15.5146
2503.89 19.4883
2503.92 25.3681
2503.96 38.0608
2504.00 46.2972
2504.04 37.7437
2504.08 25.3745
2504.13 16.6278
2504.18 12.0962
2504.22 9.63220
2504.27 8.18605
2504.32 7.27712
2504.37 6.67279
2504.46 5.95402
2504.55 5.55255
2504.65 5.31085
2504.83 5.04232
2505.21 4.82449
2505.58 4.73785
2506.33 4.66533
2507.08 4.63164
2508.57 4.59198
2510.07 4.56178
2513.07 4.50353
2516.06 4.43605
2519.05 4.34670
2520.55 4.28670
2522.05 4.20829
2523.54 4.09756
2524.29 4.02114
2525.04 3.92126
2525.79 3.78408
2526.16 3.69573
2526.54 3.59303
2526.91 3.49070
2527.10 3.46364
2527.29 3.50404
2527.47 3.75961
2527.57 4.11127
2527.66 4.82997
2527.75 6.44766
2527.80 8.00493
2527.85 10.5399
2527.89 15.1479
2527.92 18.9475
2527.94 24.1631
2527.97 32.2063
2527.99 43.9439
2528.01 62.1282
2528.03 90.7093
2528.05 119.750
2528.07 152.763
2528.10 203.152
2528.12 197.002
2528.13 173.596
2528.17 116.701
2528.19 83.8649
2528.22 62.4868
2528.24 48.4335
2528.27 38.9154
2528.32 27.3912
2528.37 20.9903
2528.43 17.0671
2528.48 14.4782
2528.58 11.3524
2528.69 9.58202
2528.79 8.46499
2529.00 7.15810
2529.21 6.42579
2529.42 5.96374
2529.83 5.40734
2530.25 5.07465
2530.66 4.84297
2531.50 4.50304
2532.33 4.20313
2532.75 4.04108
2533.16 3.86144
2533.58 3.67423
2533.79 3.60433
2533.99 3.61138
2534.10 3.68959
2534.20 3.87851
2534.31 4.28708
2534.41 5.16594
2534.51 7.17282
2534.57 9.12265
2534.62 12.3987
2534.64 14.8847
2534.67 18.2738
2534.70 23.0016
2534.72 29.7723
2534.75 39.7564
2534.77 54.9357
2534.80 78.6213
2534.83 116.283
2534.86 197.675
2534.90 264.975
2534.92 257.734
2534.94 227.473
2534.97 153.428
2535.01 104.738
2535.04 74.5252
2535.08 56.0099
2535.11 44.1095
2535.15 36.0730
2535.18 30.4040
2535.25 23.1216
2535.32 18.7699
2535.39 15.9414
2535.53 12.5657
2535.67 10.6680
2535.81 9.47323
2535.95 8.66031
2536.09 8.07869
2536.37 7.29602
2536.65 6.80185
2536.93 6.46045
2537.21 6.21219
2537.77 5.87309
2538.33 5.65198
2538.89 5.49566
2539.45 5.37879
2540.57 5.21519
2541.68 5.10966
2542.80 5.06767
2543.08 5.09023
2543.36 5.17658
2543.50 5.29421
2543.64 5.57637
2543.71 5.88284
2543.78 6.48255
2543.85 7.84596
2543.89 9.20563
2543.92 11.3734
2543.96 15.2968
2544.00 17.8339
2544.04 15.1925
2544.08 11.3676
2544.12 9.14680
2544.15 7.83249
2544.22 6.47364
2544.29 5.86593
2544.36 5.54984
2544.50 5.24927
2544.63 5.11468
2544.91 4.99622
2545.18 4.94271
2546.29 4.85477
2548.49 4.77020
2550.70 4.70881
2552.90 4.65740
2557.31 4.57468
2558.41 4.56171
2559.51 4.56366
2560.07 4.58413
2560.62 4.65704
2560.89 4.76045
2561.17 5.03101
2561.31 5.36298
2561.44 6.12796
2561.51 6.94254
2561.58 8.51488
2561.62 9.91620
2561.65 12.0275
2561.68 15.4085
2561.72 20.8759
2561.76 30.7034
2561.80 37.2538
2561.84 30.7146
2561.88 20.8888
2561.92 14.4694
2561.97 10.9840
2562.01 8.97122
2562.05 7.73870
2562.13 6.39728
2562.21 5.73168
2562.38 5.12304
2562.54 4.86555
2562.87 4.65263
2563.20 4.56688
2563.85 4.49375
2564.51 4.45896
2565.83 4.41734
2567.14 4.38589
2572.40 4.27107
2577.66 4.14369
2582.91 3.99080
2585.54 3.90234
2588.17 3.80685
2590.80 3.71134
2593.43 3.64216
2594.74 3.64183
2596.06 3.69907
2597.37 3.87956
2598.69 4.34113
2600.00 5.52340
2600.66 6.75267
2601.32 8.92730
2601.97 13.0699
2602.30 16.5889
2602.63 21.8485
2602.96 30.0792
2603.29 43.4675
2603.62 66.3658
2603.94 106.019
2604.32 180.120
2604.70 240.332
2605.08 206.318
2605.46 139.031
2605.75 100.963
2606.04 75.6513
2606.34 58.8509
2606.63 47.4189
2607.21 33.4306
2607.80 25.5940
2608.38 20.7618
2608.97 17.5586
2610.14 13.6728
2611.31 11.4615
2612.48 10.0651
2613.06 9.55291
2613.65 9.13910
2613.94 8.97647
2614.23 8.87722
2614.38 8.88976
2614.53 9.03325
2614.60 9.23557
2614.67 9.67081
2614.75 10.7227
2614.78 11.8284
2614.82 13.7125
2614.86 16.8399
2614.90 18.9810
2614.94 16.8017
2614.98 13.6349
2615.03 11.3784
2615.07 10.2114
2615.16 9.15785
2615.25 8.72256
2615.35 8.49270
2615.53 8.24551
2615.71 8.09986
2616.44 7.74344
2617.16 7.48571
2617.89 7.26910
2619.34 6.91333
2620.80 6.62975
2623.70 6.19684
2626.61 5.86835
2629.52 5.58931
2632.42 5.31343
2633.88 5.15375
2634.60 5.05963
2635.33 4.94856
2636.06 4.80968
2636.42 4.72527
2636.78 4.63068
2637.15 4.53821
2637.33 4.51308
2637.51 4.54459
2637.69 4.75572
2637.78 5.04584
2637.87 5.63764
2637.97 6.96766
2638.01 8.26443
2638.06 10.3862
2638.10 14.2751
2638.15 21.7350
2638.17 28.3796
2638.19 38.0384
2638.22 53.8213
2638.24 77.4796
2638.25 101.535
2638.27 130.253
2638.30 170.926
2638.32 165.908
2638.33 145.429
2638.36 98.5540
2638.39 71.2688
2638.41 53.3864
2638.44 41.6609
2638.46 34.0009
2638.51 24.4443
2638.56 19.1093
2638.61 15.7757
2638.66 13.6236
2638.76 11.0174
2638.86 9.52540
2638.95 8.59384
2639.15 7.49725
2639.35 6.88497
2639.55 6.49639
2639.94 6.02914
2640.33 5.75247
2640.73 5.56326
2641.52 5.30460
2642.30 5.11622
2643.09 4.95471
2644.67 4.64182
2645.45 4.46854
2646.24 4.27088
2647.03 4.03756
2647.82 3.75819
2648.21 3.60195
2648.61 3.44349
2649.00 3.30934
2649.39 3.28225
2649.59 3.37946
2649.79 3.64612
2649.99 4.25593
2650.18 5.61447
2650.28 6.86611
2650.38 8.80534
2650.48 11.9866
2650.58 17.3610
2650.68 27.2919
2650.72 35.3442
2650.77 47.0270
2650.82 64.5308
2650.87 91.6700
2650.92 135.045
2650.97 204.891
2651.04 352.170
2651.10 470.278
2651.17 402.736
2651.23 270.941
2651.28 202.865
2651.32 155.357
2651.37 122.443
2651.41 99.6469
2651.50 70.1006
2651.59 53.1739
2651.68 42.3903
2651.77 35.2247
2651.95 26.3700
2652.13 21.2844
2652.31 18.0524
2652.48 15.8462
2652.66 14.2658
2653.02 12.1501
2653.38 10.8209
2653.74 9.91499
2654.09 9.26230
2654.81 8.38300
2655.52 7.82166
2656.24 7.43131
2656.96 7.14440
2658.39 6.74841
2659.82 6.48620
2661.25 6.29801
2662.68 6.15521
2665.54 5.94974
2668.40 5.80628
2674.12 5.61251
2679.85 5.48206
2685.57 5.38475
2691.29 5.31052
2694.16 5.29499
2694.87 5.30602
2695.59 5.35071
2695.95 5.41669
2696.30 5.59516
2696.48 5.82154
2696.66 6.36798
2696.75 6.98766
2696.84 8.25713
2696.88 9.47032
2696.93 11.4588
2696.97 15.1168
2697.02 21.9682
2697.06 32.0302
2697.10 38.6959
2697.14 32.0400
2697.18 21.9798
2697.23 15.1262
2697.27 11.5248
2697.32 9.47451
2697.36 8.28032
2697.45 6.99556
2697.54 6.37834
2697.71 5.82100
2697.89 5.58686
2698.25 5.39660
2698.60 5.32135
2699.31 5.25979
2700.02 5.23272
2701.43 5.20421
2702.85 5.18605
2705.68 5.16552
2707.10 5.19216
2707.45 5.22814
2707.81 5.32732
2707.98 5.45295
2708.16 5.75398
2708.25 6.09166
2708.34 6.77291
2708.38 7.42226
2708.43 8.47419
2708.47 10.3186
2708.51 13.6565
2708.56 18.7767
2708.60 22.1902
2708.64 18.7760
2708.69 13.6550
2708.74 10.0475
2708.78 8.18006
2708.83 7.16595
2708.88 6.58083
2708.98 5.95812
2709.08 5.65893
2709.27 5.39281
2709.46 5.28133
2709.85 5.18996
2710.24 5.15296
2711.79 5.10404
2714.90 5.06667
2718.01 5.03947
2719.56 5.03665
2720.34 5.07166
2720.73 5.20086
2720.92 5.53298
2721.02 6.12832
2721.07 6.84378
2721.12 8.26043
2721.16 10.2212
2721.20 11.5227
2721.24 10.2273
2721.28 8.26743
2721.33 6.91090
2721.37 6.19601
2721.47 5.57717
2721.65 5.21570
2722.01 5.06450
2722.74 5.00954
2724.20 4.98174
2727.12 4.94936
2732.95 4.88676
2738.78 4.81559
2741.70 4.77996
2743.16 4.78664
2743.53 4.81075
2743.89 4.88429
2744.07 4.98208
2744.25 5.22156
2744.35 5.49372
2744.44 6.06189
2744.48 6.61030
2744.53 7.51894
2744.57 9.21345
2744.62 12.3969
2744.66 16.9854
2744.70 20.0746
2744.74 16.9876
2744.78 12.3984
2744.82 9.52680
2744.86 7.86056
2744.90 6.89149
2744.94 6.30735
2745.02 5.64979
2745.10 5.32583
2745.26 5.02630
2745.42 4.89717
2745.74 4.78824
2746.05 4.74177
2747.32 4.66957
2749.86 4.57758
2751.13 4.51772
2752.40 4.43045
2753.04 4.36578
2753.67 4.27699
2753.99 4.22826
2754.31 4.22614
2754.47 4.32883
2754.55 4.47489
2754.63 4.77667
2754.71 5.46398
2754.75 6.13014
2754.79 7.21469
2754.83 9.20256
2754.87 12.9794
2754.89 16.3323
2754.91 21.4539
2754.93 29.4898
2754.94 41.6032
2754.96 53.5864
2754.97 68.2488
2755.00 90.1010
2755.03 77.4126
2755.06 53.0160
2755.07 41.5206
2755.09 32.9393
2755.13 22.7539
2755.16 17.2237
2755.20 13.9484
2755.23 11.8090
2755.27 10.4057
2755.34 8.66715
2755.41 7.64986
2755.48 7.01178
2755.62 6.25986
2755.90 5.57232
2756.18 5.26076
2756.74 4.96720
2757.31 4.82207
2758.43 4.66284
2759.56 4.56023
2761.81 4.39048
2764.06 4.20281
2765.19 4.08628
2766.31 3.94401
2767.44 3.76356
2768.57 3.52615
2769.13 3.37777
2769.69 3.20533
2770.25 3.00965
2770.82 2.80945
2771.10 2.73054
2771.38 2.70334
2771.66 2.80429
2771.94 3.22851
2772.08 3.71189
2772.23 4.56069
2772.37 6.08592
2772.51 8.93359
2772.58 11.3249
2772.65 14.7699
2772.72 19.9576
2772.79 28.0928
2772.86 41.7579
2772.93 65.4799
2772.96 84.1076
2773.00 110.007
2773.03 146.369
2773.07 197.146
2773.13 337.342
2773.20 451.651
2773.27 387.987
2773.33 260.551
2773.37 200.421
2773.41 156.856
2773.50 103.434
2773.58 74.0116
2773.66 56.4179
2773.74 44.9955
2773.82 37.3237
2773.98 27.7808
2774.15 22.2109
2774.31 18.6756
2774.63 14.4972
2774.96 12.1692
2775.28 10.7080
2775.61 9.71421
2775.93 8.99816
2776.58 8.04006
2777.23 7.43067
2777.88 7.00934
2778.53 6.70060
2779.83 6.27457
2781.13 5.99072
2782.43 5.78236
2783.73 5.61727
2786.33 5.34708
2787.63 5.21742
2788.93 5.07351
2790.23 4.89120
2790.88 4.77147
2791.53 4.61839
2792.18 4.41279
2792.50 4.28435
2792.83 4.14348
2793.15 4.03112
2793.31 4.03974
2793.48 4.19670
2793.64 4.78967
2793.72 5.50350
2793.80 6.88336
2793.88 9.75302
2793.92 12.3968
2793.96 16.4874
2794.00 23.4969
2794.02 28.6707
2794.04 35.6601
2794.07 45.8412
2794.09 59.5135
2794.11 78.8542
2794.13 107.229
2794.16 183.176
2794.20 245.313
2794.22 239.314
2794.24 212.160
2794.27 143.558
2794.31 99.4613
2794.34 71.9003
2794.38 54.7062
2794.41 43.7760
2794.48 30.5728
2794.54 23.5624
2794.61 19.2690
2794.68 16.5026
2794.81 13.1702
2794.95 11.2696
2795.08 10.0774
2795.22 9.25800
2795.35 8.67162
2795.62 7.88231
2795.89 7.38431
2796.16 7.04167
2796.43 6.79180
2796.97 6.45111
2797.51 6.22973
2798.04 6.07318
2798.58 5.95589
2799.66 5.78982
2800.74 5.67591
2802.89 5.52454
2805.04 5.42326
2807.20 5.34664
2811.50 5.22766
2815.81 5.12242
2817.96 5.06517
2820.12 4.99687
2822.27 4.90409
2823.35 4.83949
2824.42 4.75207
2825.50 4.62320
2826.04 4.53180
2826.58 4.41164
2827.12 4.25084
2827.39 4.15531
2827.65 4.06258
2827.92 4.03090
2828.06 4.10539
2828.19 4.36060
2828.33 5.11333
2828.39 5.94186
2828.46 7.46455
2828.53 10.5438
2828.56 13.2596
2828.60 17.3154
2828.63 24.0495
2828.65 29.0060
2828.66 35.1385
2828.68 43.8295
2828.70 55.6613
2828.71 71.8751
2828.73 92.8982
2828.75 122.913
2828.77 157.543
2828.80 211.415
2828.82 205.936
2828.84 182.150
2828.87 123.570
2828.89 96.1748
2828.91 76.4501
2828.95 51.7101
2829.00 37.7200
2829.04 29.5444
2829.08 24.1562
2829.12 20.5685
2829.21 16.0422
2829.29 13.4120
2829.38 11.7293
2829.55 9.74420
2829.72 8.63576
2829.89 7.93894
2830.23 7.12240
2830.57 6.66453
2830.91 6.37354
2831.59 6.02649
2832.27 5.82622
2832.95 5.69565
2834.31 5.53446
2835.67 5.43718
2837.03 5.37096
2839.74 5.28406
2842.46 5.22730
2845.18 5.18627
2847.90 5.15876
2849.26 5.16673
2849.94 5.23844
2850.11 5.30739
2850.28 5.47423
2850.36 5.66115
2850.45 6.04499
2850.53 7.00068
2850.58 8.04195
2850.62 9.99388
2850.66 12.8808
2850.70 14.8631
2850.74 12.8822
2850.78 9.99502
2850.84 7.62390
2850.89 6.57110
2851.01 5.75557
2851.12 5.46884
2851.23 5.33787
2851.46 5.22513
2851.68 5.17875
2852.59 5.12288
2854.39 5.09451
2858.00 5.06413
2861.61 5.04169
2863.42 5.04079
2864.32 5.07400
2864.77 5.19756
2864.88 5.30311
2864.99 5.53669
2865.11 6.20733
2865.16 7.07932
2865.22 9.03056
2865.26 11.4619
2865.30 13.0527
2865.34 11.4639
2865.38 9.03270
2865.42 7.51250
2865.46 6.64050
2865.54 5.83416
2865.70 5.33068
2866.01 5.11166
2866.65 5.03532
2867.91 5.00675
2870.45 4.98651
2875.52 4.95705
2885.65 4.90215
2895.78 4.84426
2900.85 4.81449
2903.38 4.81374
2904.02 4.82753
2904.65 4.87399
2904.97 4.93947
2905.28 5.11234
2905.44 5.32839
2905.60 5.83407
2905.68 6.38590
2905.76 7.48535
2905.80 8.49747
2905.84 10.0844
2905.88 12.8459
2905.92 17.6571
2905.96 25.3016
2906.00 30.5483
2906.04 25.3093
2906.08 17.6661
2906.12 13.6181
2906.15 11.0158
2906.18 9.34175
2906.21 8.23098
2906.28 6.92405
2906.34 6.23479
2906.47 5.56074
2906.59 5.25914
2906.85 5.00416
2907.10 4.90118
2907.61 4.81793
2908.12 4.78330
2910.15 4.72937
2912.18 4.69412
2914.21 4.65449
2916.25 4.60175
2918.28 4.51991
2919.30 4.45484
2920.31 4.35331
2920.82 4.27747
2921.33 4.18231
2921.58 4.14873
2921.71 4.15986
2921.84 4.23189
2921.96 4.47693
2922.03 4.76807
2922.09 5.31558
2922.15 6.46582
2922.19 7.51272
2922.22 9.11608
2922.25 11.8780
2922.28 16.8401
2922.30 20.8203
2922.31 26.4547
2922.33 34.5247
2922.34 45.1818
2922.36 59.4659
2922.37 75.4216
2922.40 99.0199
2922.42 96.1628
2922.43 84.9537
2922.46 58.4225
2922.49 39.5036
2922.51 28.7654
2922.54 22.2629
2922.57 18.1142
2922.60 15.3258
2922.63 13.3650
2922.68 10.8531
2922.74 9.35538
2922.79 8.38282
2922.91 7.22228
2923.02 6.56902
2923.13 6.15670
2923.35 5.67133
2923.80 5.21851
2924.25 4.99861
2925.15 4.75723
2926.04 4.58938
2926.94 4.41697
2927.39 4.31280
2927.84 4.18737
2928.29 4.03635
2928.51 3.95917
2928.74 3.90659
2928.96 3.96727
2929.07 4.13220
2929.18 4.54390
2929.30 5.58064
2929.35 6.64758
2929.41 8.51723
2929.46 12.0340
2929.49 14.9802
2929.52 19.3476
2929.55 26.0626
2929.58 36.8140
2929.60 54.7046
2929.62 67.8782
2929.63 85.8947
2929.65 113.437
2929.67 145.941
2929.70 194.790
2929.72 190.284
2929.73 168.279
2929.77 113.899
2929.79 85.8247
2929.82 66.0732
2929.84 52.4811
2929.86 43.2768
2929.91 31.1408
2929.96 24.2847
2930.01 19.8818
2930.05 16.9886
2930.15 13.4226
2930.24 11.3479
2930.34 10.0300
2930.53 8.48827
2930.72 7.62353
2930.91 7.08212
2931.28 6.44460
2931.66 6.08372
2932.04 5.85291
2932.80 5.57505
2933.56 5.41269
2934.31 5.30570
2935.83 5.17136
2937.34 5.08875
2938.86 5.03147
2941.89 4.95439
2944.92 4.90189
2947.95 4.86135
2954.01 4.79643
2960.07 4.73791
2966.12 4.67202
2969.15 4.62847
2972.18 4.56452
2973.70 4.51399
2975.21 4.43151
2975.97 4.36384
2976.73 4.25946
2977.11 4.18854
2977.49 4.13203
2977.68 4.17345
2977.77 4.26763
2977.86 4.49230
2977.96 5.05465
2978.01 5.62342
2978.05 6.61326
2978.10 8.51720
2978.15 12.3995
2978.17 16.0458
2978.20 21.6219
2978.22 31.2830
2978.23 38.4316
2978.24 47.0950
2978.26 61.5710
2978.27 78.1001
2978.30 103.826
2978.32 101.001
2978.33 89.5049
2978.36 61.3016
2978.38 47.0895
2978.40 37.2016
2978.43 25.2862
2978.47 18.9321
2978.51 15.2094
2978.55 12.7979
2978.59 11.2182
2978.66 9.26712
2978.74 8.12855
2978.82 7.41367
2978.97 6.56700
2979.28 5.79871
2979.58 5.45007
2980.19 5.12623
2980.80 4.97129
2982.03 4.81110
2983.25 4.71499
2984.47 4.63183
2985.70 4.53146
2986.31 4.46024
2986.92 4.36152
2987.23 4.30497
2987.53 4.29370
2987.69 4.39536
2987.76 4.54536
2987.84 4.85859
2987.92 5.57525
2987.95 6.25773
2987.99 7.39315
2988.03 9.40424
2988.07 13.2738
2988.09 16.5801
2988.11 21.5332
2988.12 29.1262
2988.14 41.3336
2988.16 53.7902
2988.17 68.4248
2988.20 90.3574
2988.23 78.3599
2988.26 53.7964
2988.29 34.4324
2988.32 24.0645
2988.36 18.3207
2988.39 14.9543
2988.43 12.7066
2988.46 11.1748
2988.53 9.29140
2988.59 8.17798
2988.66 7.47565
2988.80 6.64346
2989.07 5.87915
2989.33 5.53388
2989.87 5.21436
2990.41 5.06394
2991.49 4.91654
2992.57 4.84076
2994.72 4.75665
2996.88 4.70524
3001.19 4.63344
3005.50 4.57414
3009.81 4.51383
3014.12 4.43991
3016.28 4.38868
3018.43 4.31145
3019.51 4.24983
3020.59 4.15125
3021.13 4.07517
3021.66 3.97584
3021.93 3.93694
3022.07 3.94443
3022.20 4.01213
3022.34 4.25633
3022.41 4.54685
3022.47 5.10690
3022.54 6.29838
3022.57 7.39434
3022.61 9.09197
3022.64 12.0450
3022.67 17.2172
3022.69 21.5073
3022.71 27.6459
3022.73 36.5528
3022.74 49.1615
3022.76 63.7051
3022.77 82.0181
3022.80 108.476
3022.82 105.558
3022.83 93.7001
3022.86 63.8139
3022.88 48.7835
3022.90 38.5423
3022.94 26.1422
3022.97 19.3654
3023.01 15.5079
3023.05 12.9990
3023.09 11.3510
3023.17 9.29032
3023.24 8.10430
3023.32 7.34991
3023.47 6.46817
3023.78 5.66453
3024.09 5.30048
3024.70 4.96368
3025.32 4.80480
3026.55 4.64727
3027.77 4.56400
3030.23 4.46545
3032.69 4.39760
3037.60 4.28800
3038.83 4.26730
3040.06 4.26290
3040.67 4.28357
3041.29 4.36752
3041.60 4.49099
3041.90 4.82227
3042.06 5.23580
3042.13 5.60723
3042.21 6.19824
3042.29 7.24900
3042.36 9.33047
3042.40 11.2341
3042.44 14.1936
3042.48 19.1182
3042.52 27.5793
3042.56 41.5761
3042.60 51.0333
3042.64 41.5893
3042.68 27.5939
3042.71 21.5143
3042.73 17.2832
3042.79 12.0940
3042.84 9.36752
3042.89 7.82815
3042.94 6.85303
3042.99 6.22316
3043.09 5.46545
3043.19 5.04767
3043.29 4.79755
3043.49 4.52139
3043.90 4.29364
3044.30 4.19856
3045.11 4.10787
3045.92 4.05363
3047.54 3.96382
3049.16 3.86546
3050.77 3.73677
3051.58 3.65118
3052.39 3.54125
3053.20 3.39262
3053.61 3.29742
3054.01 3.18748
3054.42 3.07825
3054.62 3.04995
3054.82 3.09422
3055.02 3.36911
3055.12 3.74304
3055.22 4.51371
3055.32 6.22266
3055.38 7.87674
3055.43 10.5723
3055.48 15.4577
3055.50 19.2888
3055.53 24.7268
3055.55 33.0546
3055.58 45.1956
3055.60 63.9254
3055.63 93.9329
3055.66 159.226
3055.70 211.412
3055.72 205.769
3055.74 181.210
3055.77 121.487
3055.80 86.3459
3055.83 63.4411
3055.86 48.6576
3055.89 38.7869
3055.95 27.0048
3056.01 20.6283
3056.07 16.6710
3056.13 14.0755
3056.25 10.9775
3056.37 9.21217
3056.49 8.10923
3056.73 6.81725
3056.97 6.09294
3057.20 5.63580
3057.68 5.08664
3058.16 4.76289
3058.64 4.54289
3059.59 4.23938
3060.55 4.00399
3061.50 3.77342
3061.98 3.65688
3062.45 3.60001
3062.69 3.70683
3062.81 3.88174
3062.93 4.26121
3063.05 5.13333
3063.11 5.97599
3063.17 7.35012
3063.23 9.81144
3063.29 14.4141
3063.32 18.3620
3063.35 24.2272
3063.38 33.1194
3063.41 46.4985
3063.45 78.1636
3063.50 104.263
3063.55 90.4284
3063.59 61.8440
3063.63 43.4316
3063.68 31.9524
3063.72 24.7735
3063.76 20.1791
3063.84 14.6996
3063.93 11.7300
3064.01 9.93145
3064.09 8.75057
3064.26 7.32530
3064.42 6.50918
3064.59 5.99237
3064.92 5.37526
3065.26 5.01804
3065.59 4.78344
3066.25 4.48358
3066.92 4.28880
3067.58 4.14150
3068.91 3.90551
3070.24 3.68532
3070.91 3.56544
3071.57 3.43011
3072.24 3.27136
3072.57 3.18370
3072.90 3.10086
3073.23 3.06529
3073.40 3.11423
3073.57 3.29712
3073.73 3.84623
3073.81 4.46493
3073.90 5.62458
3073.98 7.99058
3074.02 10.1555
3074.06 13.5080
3074.11 19.2812
3074.13 23.7009
3074.15 29.4345
3074.17 37.8138
3074.19 49.8053
3074.21 67.2119
3074.23 90.9597
3074.27 153.759
3074.30 201.878
3074.32 195.534
3074.34 170.866
3074.37 114.575
3074.40 77.6652
3074.44 55.7912
3074.47 42.1520
3074.50 33.2720
3074.56 22.9275
3074.63 17.3833
3074.69 14.0589
3074.76 11.8964
3074.88 9.31814
3075.01 7.87225
3075.14 6.96394
3075.40 5.90178
3075.65 5.30381
3075.91 4.92228
3076.42 4.45399
3076.93 4.16586
3077.45 3.96062
3078.47 3.66077
3080.52 3.20433
3082.57 2.76225
3083.59 2.52329
3084.62 2.27326
3085.64 2.03276
3086.67 1.87939
3087.18 1.90595
3087.69 2.10031
3088.21 2.64623
3088.46 3.16867
3088.72 3.97993
3088.97 5.25727
3089.23 7.29424
3089.49 10.6619
3089.74 16.5030
3090.00 27.3422
3090.13 36.3079
3090.25 49.4420
3090.38 69.3319
3090.51 100.553
3090.64 151.177
3090.77 234.043
3090.93 405.214
3091.10 547.393
3091.27 472.277
3091.43 317.834
3091.62 200.377
3091.81 135.654
3092.00 98.3315
3092.18 75.5237
3092.37 60.5034
3092.56 50.1855
3092.93 37.1466
3093.31 29.4814
3093.68 24.5417
3094.43 18.6828
3095.18 15.3884
3095.93 13.3114
3096.68 11.8945
3097.43 10.8727
3098.93 9.50134
3100.43 8.62918
3101.93 8.02658
3103.43 7.58618
3106.43 6.98477
3109.43 6.59254
3112.43 6.31541
3115.43 6.10825
3121.42 5.81671
3127.42 5.61844
3130.42 5.54056
3133.42 5.47337
3136.42 5.41976
3137.92 5.41897
3138.29 5.43870
3138.67 5.50175
3138.86 5.58646
3139.04 5.79540
3139.14 6.03603
3139.23 6.53655
3139.28 7.02171
3139.33 7.85342
3139.37 9.39416
3139.42 12.3195
3139.46 16.4886
3139.50 19.2876
3139.54 16.4914
3139.58 12.3220
3139.62 9.98203
3139.65 8.51484
3139.72 7.04424
3139.79 6.37725
3139.86 6.03664
3140.00 5.71233
3140.14 5.57049
3140.41 5.44957
3140.69 5.39953
3141.80 5.33331
3144.02 5.28545
3148.46 5.21817
3152.90 5.15954
3157.34 5.10557
3166.22 5.00565
3175.10 4.90877
3183.98 4.80466
3188.42 4.74466
3192.86 4.67366
3197.30 4.58149
3199.52 4.52043
3201.74 4.44067
3203.96 4.32617
3205.07 4.24490
3206.18 4.13458
3207.29 3.97346
3207.85 3.86098
3208.40 3.71566
3208.96 3.52905
3209.23 3.42509
3209.51 3.33891
3209.79 3.36182
3209.93 3.51391
3210.07 3.92989
3210.21 5.04386
3210.27 6.21530
3210.34 8.30398
3210.38 9.99117
3210.41 12.3878
3210.45 15.8909
3210.48 21.0048
3210.52 29.2428
3210.55 42.3212
3210.59 65.3418
3210.62 104.693
3210.66 178.561
3210.70 240.104
3210.72 234.465
3210.74 206.823
3210.78 139.932
3210.81 101.373
3210.84 75.3766
3210.88 58.3306
3210.91 46.8097
3210.97 32.8831
3211.04 25.1513
3211.10 20.4081
3211.16 17.2733
3211.29 13.4787
3211.42 11.3217
3211.55 9.95683
3211.68 9.02631
3211.80 8.36077
3212.06 7.46578
3212.31 6.90114
3212.57 6.51446
3212.83 6.23466
3213.34 5.85423
3213.85 5.60850
3214.36 5.43541
3214.87 5.30587
3215.89 5.12170
3216.92 4.99309
3218.96 4.81064
3221.01 4.66483
3223.05 4.51015
3224.07 4.40974
3225.10 4.26746
3225.61 4.16554
3226.12 4.03864
3226.37 3.99046
3226.50 3.99968
3226.63 4.08141
3226.76 4.37217
3226.82 4.71755
3226.89 5.37957
3226.95 6.74673
3226.98 7.98163
3227.01 9.93421
3227.05 13.1833
3227.08 18.9380
3227.09 23.4910
3227.11 29.8590
3227.13 38.8546
3227.14 50.8471
3227.16 66.1414
3227.17 84.9186
3227.20 113.361
3227.22 110.714
3227.23 97.8907
3227.26 67.0066
3227.29 45.7660
3227.32 32.8846
3227.35 25.1630
3227.38 20.4086
3227.41 17.1025
3227.44 14.7911
3227.50 11.8842
3227.56 10.1242
3227.62 9.00172
3227.74 7.64912
3227.85 6.88753
3227.97 6.40652
3228.21 5.83998
3228.69 5.31346
3229.16 5.06104
3230.12 4.80126
3231.07 4.65162
3232.97 4.44124
3234.88 4.24498
3235.83 4.13281
3236.78 4.00096
3237.73 3.83798
3238.68 3.62615
3239.16 3.49376
3239.64 3.33832
3240.11 3.15720
3240.59 2.95800
3241.06 2.79961
3241.30 2.81331
3241.54 3.04075
3241.78 3.88976
3241.90 4.91582
3242.02 6.90074
3242.08 8.58696
3242.13 11.0323
3242.19 14.8225
3242.25 20.7362
3242.31 30.7889
3242.37 48.3669
3242.40 62.5474
3242.43 81.7093
3242.46 109.721
3242.49 147.762
3242.55 253.787
3242.60 341.422
3242.66 295.032
3242.71 199.411
3242.77 124.644
3242.84 84.4645
3242.90 61.2986
3242.96 47.3965
3243.03 38.1908
3243.09 31.9564
3243.22 24.1041
3243.34 19.4585
3243.47 16.4727
3243.72 12.9458
3243.98 10.9597
3244.23 9.71262
3244.49 8.85823
3244.74 8.24347
3245.25 7.41651
3245.75 6.88873
3246.26 6.52284
3246.77 6.25383
3247.78 5.88284
3248.79 5.63624
3249.81 5.45756
3250.82 5.31969
3252.85 5.11373
3254.88 4.95765
3258.93 4.70145
3262.99 4.43828
3265.02 4.27488
3267.04 4.06402
3268.06 3.92900
3269.07 3.76366
3270.09 3.55495
3271.10 3.28360
3271.61 3.11700
3272.11 2.92724
3272.62 2.71968
3273.13 2.52590
3273.38 2.46743
3273.64 2.48529
3273.89 2.67904
3274.14 3.29221
3274.27 3.93857
3274.40 5.02857
3274.52 6.91659
3274.65 10.3064
3274.71 13.0708
3274.78 16.9461
3274.84 22.6048
3274.90 31.1463
3274.97 44.8251
3275.03 67.0229
3275.09 105.136
3275.16 171.842
3275.23 298.216
3275.30 401.869
3275.37 346.955
3275.45 234.959
3275.51 159.137
3275.58 113.083
3275.65 84.7428
3275.72 66.6717
3275.79 54.2122
3275.86 45.3995
3276.00 34.1018
3276.13 27.2610
3276.27 22.8267
3276.54 17.4972
3276.82 14.4698
3277.09 12.5617
3277.37 11.2539
3277.64 10.3134
3278.19 9.05030
3278.74 8.25044
3279.29 7.69975
3279.84 7.29813
3280.94 6.75136
3282.04 6.39643
3283.13 6.14624
3284.23 5.95944
3286.43 5.69643
3288.63 5.51738
3290.82 5.38749
3291.92 5.34549
3292.47 5.36550
3292.75 5.48441
3292.88 5.76262
3292.95 6.18326
3293.02 7.27607
3293.10 9.27129
3293.18 7.27036
3293.24 6.29480
3293.29 5.85850
3293.41 5.51970
3293.63 5.34112
3294.08 5.25955
3294.98 5.20523
3296.79 5.13600
3300.40 5.02303
3307.61 4.82339
3311.22 4.71434
3313.02 4.65017
3314.83 4.57343
3316.63 4.47381
3317.53 4.40894
3318.43 4.32687
3319.33 4.21573
3320.24 4.05109
3320.69 3.93597
3321.14 3.80916
3321.36 3.79045
3321.48 3.84031
3321.59 4.00471
3321.70 4.47937
3321.76 4.99364
3321.81 5.92782
3321.87 7.79867
3321.93 11.8326
3321.96 15.7037
3321.98 22.1666
3322.00 27.0172
3322.01 33.5088
3322.03 42.2401
3322.04 53.9044
3322.06 71.4487
3322.07 91.1867
3322.10 120.644
3322.12 117.376
3322.13 103.716
3322.16 71.0891
3322.18 54.6919
3322.20 43.0327
3322.24 28.9375
3322.28 21.3983
3322.32 17.0587
3322.36 14.2160
3322.40 12.3356
3322.48 9.96869
3322.56 8.59483
3322.64 7.71427
3322.79 6.66874
3322.95 6.07332
3323.11 5.69363
3323.43 5.22808
3324.06 4.73431
3324.69 4.41336
3325.33 4.11336
3325.64 3.95094
3325.96 3.78156
3326.28 3.64249
3326.43 3.63717
3326.59 3.77747
3326.75 4.33899
3326.83 5.02506
3326.91 6.35240
3326.99 9.10101
3327.03 11.6173
3327.07 15.4785
3327.11 22.0245
3327.13 26.9415
3327.14 33.1883
3327.16 42.1289
3327.18 54.5551
3327.20 71.9772
3327.22 94.8479
3327.26 163.708
3327.30 219.562
3327.32 214.477
3327.34 189.794
3327.38 129.684
3327.41 90.1051
3327.45 66.0388
3327.48 50.7547
3327.51 40.6563
3327.58 28.5729
3327.65 22.0968
3327.72 18.1058
3327.79 15.5211
3327.93 12.3742
3328.06 10.5851
3328.20 9.44980
3328.34 8.67271
3328.47 8.11060
3328.75 7.35608
3329.02 6.87521
3329.30 6.54270
3329.57 6.29908
3330.12 5.96533
3330.67 5.74626
3331.21 5.59028
3331.76 5.47287
3332.86 5.30507
3333.95 5.18879
3336.14 5.03158
3338.33 4.92359
3340.52 4.83920
3344.91 4.70148
3349.29 4.57378
3351.48 4.50492
3353.67 4.42626
3355.86 4.32777
3356.96 4.26447
3358.05 4.18406
3359.15 4.07286
3359.70 3.99713
3360.24 3.89922
3360.79 3.76737
3361.34 3.59603
3361.61 3.52658
3361.75 3.53440
3361.89 3.63865
3362.03 4.02093
3362.09 4.48415
3362.16 5.36256
3362.23 7.20952
3362.27 8.85644
3362.30 11.4507
3362.33 15.7437
3362.37 23.2860
3362.38 29.2079
3362.40 37.4363
3362.42 48.9781
3362.44 65.0841
3362.45 86.7179
3362.47 111.211
3362.50 148.065
3362.52 144.311
3362.53 127.596
3362.57 87.3344
3362.60 60.5471
3362.62 44.4780
3362.65 34.0525
3362.68 27.4667
3362.74 19.5916
3362.80 15.3390
3362.86 12.7708
3362.92 11.0889
3363.04 9.06658
3363.16 7.92104
3363.27 7.19594
3363.51 6.34240
3363.75 5.86202
3363.98 5.55553
3364.45 5.18626
3364.93 4.96898
3365.40 4.82268
3366.34 4.62955
3367.29 4.49730
3368.23 4.39123
3370.12 4.20475
3372.00 4.01079
3372.95 3.90263
3373.89 3.79046
3374.84 3.70598
3375.31 3.71472
3375.78 3.83529
3376.25 4.27305
3376.49 4.79368
3376.72 5.78792
3376.96 7.82490
3377.08 9.64833
3377.20 12.5045
3377.31 17.1955
3377.43 25.3528
3377.55 40.4357
3377.67 69.0078
3377.78 117.540
3377.90 157.541
3378.02 136.409
3378.13 93.1187
3378.26 61.1187
3378.38 42.8913
3378.51 32.2214
3378.63 25.5728
3378.76 21.1756
3378.88 18.1172
3379.13 14.2375
3379.38 11.9412
3379.63 10.4546
3380.13 8.68123
3380.63 7.68017
3381.13 7.04555
3381.63 6.61009
3382.13 6.29417
3383.13 5.86508
3384.13 5.58709
3385.13 5.39049
3386.13 5.24295
3388.13 5.03193
3390.13 4.88349
3394.13 4.67464
3398.13 4.51927
3402.12 4.38604
3406.12 4.26153
3408.12 4.20286
3409.12 4.18495
3409.62 4.21411
3409.87 4.33168
3410.00 4.58877
3410.06 4.94815
3410.12 5.82788
3410.20 7.52081
3410.28 5.82424
3410.34 5.00412
3410.39 4.63083
3410.50 4.34512
3410.73 4.19301
3411.17 4.12421
3412.06 4.07850
3413.84 4.01487
3417.40 3.89050
3420.96 3.76802
3421.85 3.74768
3422.74 3.75589
3423.18 3.79842
3423.63 3.94337
3423.85 4.14368
3424.07 4.65014
3424.18 5.24365
3424.29 6.53116
3424.35 7.82467
3424.40 10.0808
3424.46 14.5775
3424.49 18.4495
3424.51 23.8441
3424.56 35.9910
3424.60 44.0844
3424.64 35.9774
3424.69 23.8241
3424.72 17.7792
3424.75 13.8993
3424.78 11.3063
3424.81 9.53196
3424.87 7.34943
3424.93 6.17120
3425.05 4.99428
3425.17 4.46028
3425.41 3.99608
3425.65 3.80252
3426.13 3.63664
3426.62 3.55903
3427.58 3.46909
3428.54 3.40241
3430.47 3.28032
3432.40 3.15483
3434.33 3.02027
3436.26 2.87767
3437.22 2.80817
3438.19 2.75640
3438.67 2.75794
3439.15 2.83606
3439.39 2.97201
3439.63 3.34621
3439.75 3.80538
3439.87 4.82362
3439.93 5.88294
3439.99 7.79394
3440.02 9.37381
3440.05 11.6910
3440.08 15.1718
3440.11 20.5513
3440.16 31.2886
3440.20 38.6140
3440.24 31.3118
3440.29 20.5737
3440.32 14.7687
3440.35 11.0676
3440.39 8.71763
3440.42 7.17393
3440.49 5.37461
3440.56 4.42139
3440.69 3.50339
3440.83 3.08974
3441.10 2.72744
3441.37 2.56611
3441.92 2.40377
3442.46 2.30380
3443.55 2.14713
3444.64 2.00392
3446.81 1.72984
3448.99 1.52546
3450.07 1.51379
3451.16 1.65584
3452.25 2.12714
3452.79 2.59939
3453.34 3.34600
3453.88 4.53527
3454.43 6.45956
3454.97 9.66970
3455.51 15.2641
3456.06 25.7180
3456.33 34.3923
3456.60 47.1221
3456.87 66.4264
3457.14 96.7559
3457.42 145.954
3457.69 226.107
3458.04 393.516
3458.40 533.342
3458.76 461.850
3459.11 312.143
3459.54 192.384
3459.96 128.315
3460.39 92.4130
3460.81 70.6792
3461.24 56.5792
3461.66 46.9011
3462.51 34.7713
3463.37 27.6587
3464.22 23.0857
3465.92 17.6506
3467.62 14.5877
3469.32 12.6507
3470.17 11.9332
3471.02 11.3436
3471.44 11.1011
3471.87 10.9252
3472.08 10.9020
3472.29 11.0228
3472.40 11.2422
3472.51 11.7779
3472.56 12.3350
3472.61 13.3428
3472.66 15.3312
3472.69 17.0779
3472.72 19.5508
3472.76 25.1233
3472.80 28.7567
3472.84 25.0990
3472.88 19.4898
3472.91 16.9905
3472.94 15.2703
3472.99 13.1996
3473.04 12.1254
3473.09 11.5178
3473.20 10.8659
3473.30 10.5410
3473.52 10.2060
3473.73 10.0169
3474.15 9.76562
3474.57 9.57282
3475.41 9.24937
3476.26 8.97072
3477.94 8.49612
3479.63 8.09939
3483.00 7.45466
3486.38 6.91954
3489.75 6.40698
3491.44 6.12508
3493.13 5.79299
3494.81 5.35698
3495.66 5.06643
3496.50 4.69360
3496.92 4.46282
3497.34 4.19409
3497.77 3.88387
3498.19 3.54703
3498.40 3.39032
3498.61 3.28063
3498.82 3.29962
3499.03 3.65444
3499.14 4.11850
3499.24 4.95633
3499.35 6.49840
3499.45 9.36351
3499.50 11.7237
3499.56 15.1158
3499.61 20.1144
3499.66 27.5312
3499.72 39.3823
3499.77 58.3315
3499.82 91.0480
3499.87 146.143
3499.94 256.889
3500.00 353.287
3500.06 311.563
3500.13 214.590
3500.20 138.780
3500.27 96.0851
3500.34 71.3106
3500.42 55.9408
3500.49 45.7893
3500.56 38.7254
3500.70 29.7879
3500.85 24.4253
3500.99 20.9351
3501.28 16.7505
3501.57 14.3552
3501.85 12.8297
3502.14 11.7756
3502.43 11.0058
3503.00 9.95677
3503.58 9.27610
3504.15 8.79712
3504.73 8.44063
3505.88 7.93904
3507.03 7.59836
3509.32 7.15024
3511.62 6.85365
3513.92 6.63087
3518.52 6.28848
3523.12 5.99222
3525.42 5.83592
3527.71 5.65519
3530.01 5.41986
3531.16 5.26214
3532.31 5.05478
3532.89 4.92164
3533.46 4.75898
3534.04 4.55444
3534.61 4.28972
3535.18 3.93909
3535.47 3.72948
3535.76 3.51774
3536.05 3.40330
3536.19 3.49862
3536.33 3.89953
3536.48 5.12597
3536.55 6.48368
3536.62 8.90271
3536.66 10.8548
3536.69 13.6128
3536.73 17.6044
3536.76 23.5492
3536.80 32.7020
3536.84 47.3178
3536.87 71.4543
3536.91 111.311
3536.95 194.603
3537.00 265.925
3537.02 262.209
3537.05 233.717
3537.09 160.304
3537.12 125.024
3537.15 99.7573
3537.21 67.8318
3537.26 49.9349
3537.32 39.0798
3537.37 32.0180
3537.43 27.1553
3537.54 21.0308
3537.65 17.3918
3537.77 15.0567
3537.99 12.2510
3538.22 10.6397
3538.44 9.60714
3538.89 8.35486
3539.34 7.64249
3539.56 7.43268
3539.78 7.36094
3540.01 7.58472
3540.12 7.94978
3540.23 8.69446
3540.35 10.2498
3540.46 13.7904
3540.51 17.2683
3540.57 23.1702
3540.63 33.7137
3540.68 53.0532
3540.74 87.6644
3540.80 115.923
3540.86 100.799
3540.92 70.1663
3540.96 54.8197
3541.00 43.8746
3541.08 30.5940
3541.15 23.4557
3541.23 19.2441
3541.31 16.5539
3541.39 14.7239
3541.54 12.4425
3541.70 11.1044
3541.86 10.2362
3542.17 9.18760
3542.48 8.57428
3542.79 8.17054
3543.41 7.66490
3544.04 7.35283
3544.66 7.13662
3545.91 6.84753
3547.15 6.65653
3548.40 6.51664
3550.89 6.31770
3553.39 6.17562
3555.88 6.06335
3560.87 5.88251
3565.86 5.72015
3568.35 5.63328
3570.84 5.53209
3573.34 5.39873
3574.59 5.30779
3575.83 5.18577
3577.08 5.00621
3577.70 4.87754
3578.33 4.70468
3578.95 4.46129
3579.26 4.30288
3579.57 4.12099
3579.89 3.95010
3580.04 3.92116
3580.20 4.03399
3580.35 4.57433
3580.43 5.26154
3580.51 6.61134
3580.59 9.42654
3580.63 11.9649
3580.66 15.9483
3580.70 22.4822
3580.72 27.4694
3580.74 33.7813
3580.76 42.7673
3580.78 54.4445
3580.80 70.4008
3580.82 93.0111
3580.84 124.089
3580.86 161.289
3580.90 219.321
3580.92 216.011
3580.94 192.464
3580.98 132.078
3581.01 101.450
3581.03 79.3904
3581.09 53.1302
3581.14 38.9605
3581.19 30.5753
3581.25 25.2093
3581.30 21.5565
3581.41 17.0069
3581.51 14.3509
3581.62 12.6414
3581.83 10.6058
3582.04 9.45489
3582.25 8.72318
3582.47 8.21995
3582.68 7.85383
3583.10 7.35820
3583.53 7.03877
3583.95 6.81569
3584.37 6.65080
3585.22 6.42236
3586.07 6.27029
3586.92 6.16056
3587.77 6.07674
3589.46 5.95480
3591.16 5.86781
3594.55 5.74534
3597.94 5.65680
3601.33 5.58563
3604.73 5.53105
3606.42 5.53885
3606.85 5.56891
3607.27 5.66112
3607.48 5.78408
3607.69 6.09226
3607.80 6.45156
3607.91 7.22866
3607.96 7.99874
3608.01 9.36424
3608.06 12.0290
3608.09 14.3620
3608.12 17.7398
3608.16 25.1321
3608.20 30.0318
3608.24 25.1391
3608.28 17.7475
3608.31 14.3684
3608.34 12.0336
3608.39 9.36537
3608.44 7.99672
3608.50 7.22381
3608.60 6.43692
3608.71 6.07540
3608.92 5.75949
3609.13 5.62906
3609.56 5.52189
3609.99 5.47688
3611.69 5.40856
3615.09 5.33823
3618.50 5.28459
3619.35 5.28521
3620.20 5.32250
3620.62 5.39026
3621.05 5.58616
3621.26 5.84031
3621.47 6.45776
3621.58 7.15677
3621.69 8.58493
3621.74 9.92308
3621.79 12.1519
3621.85 16.1170
3621.90 23.5853
3621.95 34.6742
3622.00 42.0335
3622.05 34.6854
3622.10 23.5967
3622.15 16.7454
3622.20 12.7924
3622.24 10.4700
3622.29 9.03058
3622.39 7.44613
3622.48 6.65126
3622.68 5.91931
3622.87 5.60238
3623.25 5.33326
3623.64 5.21614
3624.40 5.09384
3625.17 5.00280
3625.94 4.89790
3626.71 4.74334
3627.09 4.63030
3627.47 4.49806
3627.67 4.47049
3627.76 4.51256
3627.86 4.66652
3627.95 5.11806
3628.00 5.61258
3628.05 6.50772
3628.10 8.23554
3628.15 11.9031
3628.17 15.3087
3628.19 20.7942
3628.22 29.9560
3628.24 44.8692
3628.26 58.5070
3628.27 75.4132
3628.30 101.842
3628.32 100.182
3628.33 89.2768
3628.36 62.1404
3628.39 43.6730
3628.42 32.1523
3628.45 25.0957
3628.47 20.6846
3628.50 17.5748
3628.53 15.3787
3628.59 12.5870
3628.65 10.8750
3628.70 9.77358
3628.82 8.44114
3629.05 7.18832
3629.28 6.61422
3629.74 6.07917
3630.19 5.82764
3631.11 5.58225
3632.03 5.45770
3633.86 5.32111
3635.70 5.23758
3639.37 5.11815
3643.04 5.01609
3646.71 4.91297
3650.38 4.79980
3654.05 4.67037
3655.88 4.60564
3656.80 4.60660
3657.26 4.72351
3657.49 5.08460
3657.60 5.81683
3657.66 6.77715
3657.72 8.95812
3657.76 11.6044
3657.80 13.4099
3657.84 11.6049
3657.88 8.95576
3657.94 6.69661
3658.00 5.73514
3658.12 5.01672
3658.36 4.65410
3658.85 4.50043
3659.81 4.40775
3661.74 4.27718
3663.67 4.13402
3665.60 3.96351
3667.53 3.75245
3668.50 3.62459
3669.46 3.47396
3670.43 3.28697
3670.91 3.17119
3671.39 3.03312
3671.87 2.86842
3672.12 2.78402
3672.36 2.72562
3672.60 2.79177
3672.72 2.97655
3672.84 3.43775
3672.96 4.61694
3673.02 5.82347
3673.08 7.92995
3673.14 11.9506
3673.17 15.2510
3673.20 20.0973
3673.23 27.4501
3673.26 39.0060
3673.29 57.7538
3673.32 88.4480
3673.34 117.945
3673.36 153.679
3673.40 207.207
3673.42 203.271
3673.44 179.862
3673.48 123.261
3673.51 87.4178
3673.55 64.4848
3673.58 49.7654
3673.61 40.2090
3673.68 28.5505
3673.75 22.1276
3673.82 18.1625
3673.88 15.6026
3674.02 12.5382
3674.15 10.8349
3674.29 9.81989
3674.56 8.78684
3674.82 8.45014
3675.09 8.52731
3675.63 9.69722
3676.17 12.6469
3676.71 19.1522
3676.98 25.1156
3677.24 34.5070
3677.51 49.7068
3677.78 74.3424
3678.14 126.821
3678.50 171.013
3678.86 149.006
3679.22 102.147
3679.59 68.1497
3679.97 48.3378
3680.34 36.5174
3680.72 29.0320
3681.09 24.0043
3681.46 20.4485
3682.21 15.7990
3682.96 12.8430
3683.33 11.6968
3683.71 10.6900
3684.08 9.83102
3684.27 9.51619
3684.45 9.41092
3684.64 9.88189
3684.74 10.6694
3684.83 12.3013
3684.92 15.8438
3685.02 24.0345
3685.06 32.3143
3685.11 46.2103
3685.16 71.8882
3685.18 91.7101
3685.20 119.513
3685.25 204.743
3685.30 277.431
3685.35 243.934
3685.40 168.531
3685.46 107.711
3685.52 75.1044
3685.57 56.6067
3685.63 45.2934
3685.69 37.7827
3685.75 32.6865
3685.86 26.2190
3685.98 22.3377
3686.10 19.8200
3686.33 16.7361
3686.56 14.9302
3686.80 13.7374
3687.26 12.2345
3687.73 11.3012
3688.19 10.6475
3689.13 9.76334
3690.06 9.17239
3690.99 8.73881
3692.85 8.13181
3694.72 7.71948
3696.58 7.41769
3700.31 7.00155
3704.04 6.72538
3707.76 6.52751
3711.49 6.38055
3713.36 6.33231
3714.29 6.35630
3714.75 6.51589
3714.87 6.65994
3714.99 6.98098
3715.10 7.91455
3715.16 9.15941
3715.22 11.9793
3715.26 15.4560
3715.30 17.6984
3715.34 15.3666
3715.38 11.9788
3715.44 9.25076
3715.49 8.01163
3715.60 7.03467
3715.71 6.68181
3715.81 6.51772
3716.25 6.31135
3717.11 6.22770
3718.84 6.16767
3722.30 6.08704
3725.76 6.02212
3727.49 6.00022
3728.36 6.01571
3728.79 6.10506
3729.00 6.35616
3729.11 6.84266
3729.17 7.46567
3729.22 8.82858
3729.26 10.5607
3729.30 11.6969
3729.34 10.5619
3729.38 8.82913
3729.44 7.40008
3729.50 6.77152
3729.62 6.30703
3729.85 6.07153
3730.32 5.97919
3731.26 5.93896
3733.14 5.90444
3736.90 5.85201
3740.66 5.80647
3742.54 5.79014
3743.48 5.80090
3743.95 5.86677
3744.19 6.05875
3744.30 6.44648
3744.36 6.97416
3744.42 8.18024
3744.46 9.63931
3744.50 10.5995
3744.54 9.64058
3744.58 8.18114
3744.64 6.96035
3744.70 6.43209
3744.82 6.04417
3745.06 5.85137
3745.54 5.77677
3746.50 5.74489
3748.42 5.71768
3752.25 5.67351
3756.09 5.63012
3758.00 5.61268
3758.96 5.62459
3759.44 5.69937
3759.68 5.92003
3759.80 6.37398
3759.86 6.99418
3759.92 8.40751
3759.96 10.1278
3760.00 11.2425
3760.04 10.1295
3760.08 8.40883
3760.14 7.00862
3760.20 6.39172
3760.31 5.92494
3760.55 5.68989
3761.01 5.59728
3761.95 5.55621
3763.81 5.51552
3765.67 5.47324
3767.54 5.41910
3769.40 5.34121
3770.33 5.28579
3771.27 5.21093
3772.20 5.10381
3773.13 4.94422
3773.60 4.84744
3774.06 4.81288
3774.29 4.95276
3774.41 5.16640
3774.53 5.61418
3774.64 6.61492
3774.70 7.54735
3774.76 9.05487
3774.82 11.6728
3774.88 16.3446
3774.94 25.3982
3774.96 32.9790
3774.99 43.7719
3775.05 73.9827
3775.10 99.4152
3775.15 87.4010
3775.21 61.2468
3775.25 44.6226
3775.30 33.9311
3775.35 27.0394
3775.39 22.4356
3775.48 16.9224
3775.58 13.8782
3775.67 12.0111
3775.76 10.7744
3775.94 9.27550
3776.13 8.41034
3776.31 7.85838
3776.68 7.20529
3777.05 6.83465
3777.41 6.59870
3778.15 6.31598
3778.88 6.15259
3779.62 6.04599
3781.09 5.91426
3782.56 5.83461
3784.02 5.78018
3786.96 5.70816
3789.90 5.66045
3792.84 5.62547
3795.78 5.60282
3797.25 5.61556
3797.98 5.70028
3798.17 5.78155
3798.35 5.97870
3798.44 6.20357
3798.54 6.67481
3798.63 7.89419
3798.67 9.30670
3798.72 12.0107
3798.76 15.8370
3798.80 18.4572
3798.84 15.8402
3798.88 12.0142
3798.91 10.0099
3798.94 8.74477
3799.00 7.36078
3799.12 6.33242
3799.24 5.98216
3799.37 5.82472
3799.85 5.63673
3800.82 5.57319
3802.75 5.54362
3806.62 5.51351
3814.35 5.46543
3822.08 5.42227
3825.95 5.41018
3826.92 5.41620
3827.88 5.44399
3828.37 5.48690
3828.85 5.60710
3829.09 5.76471
3829.33 6.16000
3829.45 6.63005
3829.58 7.67518
3829.64 8.75679
3829.70 10.7163
3829.73 12.3451
3829.76 14.7479
3829.79 18.3836
3829.82 23.9815
3829.86 35.1027
3829.90 42.6200
3829.94 35.1217
3829.98 24.0049
3830.02 17.8271
3830.05 14.0278
3830.09 11.6355
3830.12 10.0739
3830.19 8.26626
3830.26 7.31659
3830.39 6.40845
3830.53 6.01195
3830.80 5.67955
3831.08 5.54727
3831.62 5.44248
3832.17 5.40070
3834.35 5.34340
3838.71 5.28063
3840.89 5.23717
3843.08 5.16461
3844.17 5.10135
3845.26 4.99190
3845.80 4.90024
3846.35 4.76306
3846.62 4.68009
3846.90 4.65473
3847.03 4.78679
3847.10 4.98303
3847.17 5.39675
3847.24 6.31448
3847.30 8.58928
3847.34 11.0077
3847.37 15.4416
3847.39 19.0509
3847.41 24.2191
3847.42 31.7189
3847.44 42.8022
3847.46 55.6481
3847.47 71.5611
3847.50 96.3808
3847.52 94.7691
3847.53 84.4603
3847.56 58.8724
3847.59 39.6351
3847.62 28.7387
3847.66 22.1700
3847.69 18.2083
3847.75 13.6822
3847.82 11.3249
3847.88 9.92740
3847.95 9.02102
3848.08 7.94353
3848.34 6.94111
3848.60 6.48116
3849.11 6.05503
3849.63 5.85581
3850.67 5.66532
3851.70 5.57214
3853.78 5.47723
3855.85 5.42613
3859.99 5.36567
3864.14 5.32492
3872.43 5.25975
3876.57 5.23025
3878.65 5.22258
3879.68 5.24622
3880.20 5.34891
3880.46 5.64673
3880.59 6.27935
3880.65 7.18083
3880.72 9.39153
3880.76 11.8873
3880.80 13.5907
3880.84 11.8910
3880.88 9.39569
3880.95 7.10213
3881.02 6.21915
3881.15 5.61238
3881.43 5.32746
3881.97 5.22366
3883.06 5.18452
3885.25 5.15627
3889.61 5.10879
3893.98 5.05293
3898.34 4.98027
3902.71 4.87591
3904.89 4.80174
3907.08 4.70061
3908.17 4.63384
3909.26 4.55038
3910.35 4.44189
3911.44 4.29394
3912.53 4.07788
3913.08 3.92798
3913.63 3.73662
3914.17 3.49542
3914.44 3.36593
3914.72 3.26719
3914.99 3.32612
3915.13 3.54951
3915.26 4.12521
3915.40 5.60503
3915.47 7.11632
3915.54 9.74151
3915.60 14.6002
3915.64 18.5991
3915.67 24.4225
3915.71 33.1666
3915.74 46.7306
3915.77 68.3810
3915.81 103.168
3915.85 179.111
3915.90 241.607
3915.92 236.552
3915.95 209.632
3915.99 143.356
3916.04 97.4628
3916.08 70.2040
3916.13 53.3310
3916.17 42.3881
3916.22 34.7997
3916.26 29.5483
3916.35 22.7385
3916.44 18.5869
3916.52 15.8998
3916.70 12.6560
3916.88 10.8001
3917.05 9.62166
3917.23 8.81367
3917.41 8.23065
3917.76 7.43946
3918.11 6.93214
3918.47 6.57605
3918.82 6.31168
3919.53 5.93675
3920.24 5.67337
3921.65 5.28558
3923.06 4.93695
3923.77 4.73784
3924.48 4.49568
3925.18 4.17927
3925.54 3.98180
3925.89 3.76204
3926.25 3.56819
3926.42 3.54939
3926.60 3.71537
3926.78 4.42430
3926.86 5.29334
3926.95 6.96708
3927.04 10.4445
3927.08 13.5092
3927.13 18.2563
3927.17 25.9191
3927.22 38.9025
3927.24 48.7486
3927.26 62.0237
3927.28 80.0190
3927.30 104.646
3927.35 181.880
3927.40 248.886
3927.42 245.121
3927.45 218.025
3927.50 149.731
3927.54 102.424
3927.59 73.3629
3927.64 55.6056
3927.68 44.1987
3927.73 36.4862
3927.78 31.0329
3927.87 24.0527
3927.96 19.7963
3928.06 17.0109
3928.25 13.6679
3928.43 11.7520
3928.62 10.5382
3928.81 9.70313
3928.99 9.09620
3929.37 8.27501
3929.74 7.74975
3930.12 7.38375
3930.49 7.11529
3931.24 6.74518
3931.99 6.50192
3932.74 6.32861
3933.49 6.19810
3934.99 6.01272
3936.49 5.88566
3939.48 5.71807
3942.48 5.60799
3945.48 5.52647
3951.47 5.40424
3957.46 5.30308
3963.46 5.19849
3966.45 5.13515
3969.45 5.05103
3970.95 4.99096
3972.45 4.90062
3973.20 4.82997
3973.95 4.72060
3974.32 4.64043
3974.69 4.54724
3974.88 4.52748
3975.07 4.66349
3975.16 4.97997
3975.26 5.94398
3975.30 7.15755
3975.35 9.75454
3975.37 12.2512
3975.40 16.1344
3975.42 22.6147
3975.44 33.5732
3975.47 55.9608
3975.50 74.1757
3975.52 72.6663
3975.53 64.8334
3975.56 45.6348
3975.58 35.7130
3975.60 28.6552
3975.63 20.2866
3975.67 15.7437
3975.71 13.0453
3975.78 10.1349
3975.85 8.66414
3976.00 7.24586
3976.15 6.58984
3976.45 5.97934
3976.75 5.69512
3977.34 5.42220
3977.93 5.28469
3979.12 5.13208
3980.31 5.03349
3982.68 4.87080
3985.06 4.69039
3986.25 4.57721
3987.43 4.43722
3988.62 4.25611
3989.81 4.01010
3990.40 3.85044
3991.00 3.65678
3991.59 3.42028
3992.18 3.13684
3992.78 2.83682
3993.08 2.73838
3993.37 2.80060
3993.67 3.38252
3993.82 4.20568
3993.97 5.88662
3994.04 7.36596
3994.12 9.55862
3994.19 12.9412
3994.26 18.3597
3994.34 27.4654
3994.41 43.6981
3994.45 56.5735
3994.49 74.5942
3994.52 100.062
3994.56 135.886
3994.63 238.556
3994.70 325.258
3994.77 284.220
3994.84 194.784
3994.88 152.181
3994.93 120.858
3995.01 81.7598
3995.10 59.8133
3995.18 46.4953
3995.27 37.7483
3995.35 31.8093
3995.52 24.3323
3995.69 19.9069
3995.86 17.0639
3996.21 13.6584
3996.55 11.7315
3996.89 10.5076
3997.23 9.66726
3997.57 9.05720
3998.25 8.23430
3998.93 7.70702
3999.62 7.34118
4000.30 7.07274
4001.66 6.70524
4003.03 6.46520
4004.39 6.29573
4005.75 6.16936
4008.48 5.99256
4011.21 5.87374
4013.94 5.78750
4016.67 5.72140
4022.12 5.62508
4027.58 5.55640
4038.49 5.45952
4049.40 5.38746
4060.31 5.32267
4065.77 5.28794
4071.22 5.24579
4073.95 5.21764
4076.68 5.17688
4078.04 5.14530
4079.41 5.09463
4080.09 5.05362
4080.77 4.99101
4081.11 4.94903
4081.45 4.91615
4081.63 4.94041
4081.80 5.11959
4081.88 5.42213
4081.97 6.22953
4082.01 7.15416
4082.05 8.90456
4082.09 12.7426
4082.11 16.1827
4082.14 21.4192
4082.17 34.1358
4082.20 44.5601
4082.23 39.2964
4082.27 28.3546
4082.29 21.7864
4082.32 17.5729
4082.37 12.7981
4082.42 10.3582
4082.47 9.00711
4082.57 7.58921
4082.67 6.89461
4082.87 6.23968
4083.07 5.93816
4083.48 5.65746
4083.88 5.52685
4084.69 5.40128
4085.49 5.33929
4087.11 5.28646
4087.91 5.33213
4088.32 5.54703
4088.42 5.72990
4088.52 6.12494
4088.62 7.19848
4088.67 8.49610
4088.72 11.1944
4088.76 14.7487
4088.80 17.1832
4088.84 14.7519
4088.88 11.1967
4088.92 8.84247
4088.97 7.54079
4089.05 6.35411
4089.22 5.63518
4089.55 5.32561
4090.23 5.20784
4091.57 5.13961
4092.91 5.08680
4094.26 5.02260
4095.60 4.92955
4096.27 4.86206
4096.95 4.76911
4097.62 4.63244
4098.29 4.41767
4098.63 4.27229
4098.96 4.16231
4099.13 4.25665
4099.21 4.45380
4099.30 4.91389
4099.38 6.00812
4099.42 7.08416
4099.47 8.89084
4099.51 12.0978
4099.55 18.2234
4099.57 23.3903
4099.59 31.0142
4099.61 42.4604
4099.63 58.9353
4099.65 77.5787
4099.67 100.676
4099.70 136.980
4099.72 134.907
4099.73 120.186
4099.77 83.2516
4099.80 59.1617
4099.83 43.6939
4099.86 33.9776
4099.89 27.7811
4099.95 20.3054
4100.01 16.2237
4100.07 13.7369
4100.13 12.0964
4100.26 10.1072
4100.38 8.96270
4100.50 8.24034
4100.75 7.38410
4100.99 6.89836
4101.23 6.59006
4101.72 6.22151
4102.21 6.00932
4102.70 5.87198
4103.68 5.70379
4104.65 5.60398
4105.63 5.53731
4107.59 5.45209
4109.54 5.39807
4111.49 5.35922
4115.40 5.30301
4123.22 5.21391
4125.17 5.18605
4127.13 5.14593
4128.11 5.11451
4129.08 5.06434
4129.57 5.02543
4130.06 4.97371
4130.30 4.95108
4130.55 4.97800
4130.67 5.08121
4130.79 5.44508
4130.85 5.93462
4130.91 7.04975
4130.98 10.0462
4131.01 13.5483
4131.04 20.0415
4131.07 31.3011
4131.10 41.0828
4131.13 36.2986
4131.16 26.2532
4131.18 21.4259
4131.20 17.9932
4131.24 13.5674
4131.28 11.1166
4131.32 9.64391
4131.40 8.04192
4131.47 7.23548
4131.63 6.45081
4131.78 6.08443
4132.09 5.74612
4132.40 5.59027
4133.03 5.44400
4133.65 5.37408
4134.89 5.30410
4136.13 5.26699
4138.61 5.22383
4141.09 5.19562
4146.05 5.15585
4148.54 5.15337
4149.78 5.20883
4150.09 5.26904
4150.40 5.42825
4150.55 5.62545
4150.71 6.08831
4150.79 6.59692
4150.86 7.59473
4150.90 8.50787
4150.94 9.97749
4150.98 12.4683
4151.02 16.7258
4151.06 23.7375
4151.10 28.3569
4151.14 23.7494
4151.18 16.7403
4151.23 12.1576
4151.27 9.66588
4151.31 8.24050
4151.35 7.37370
4151.44 6.42913
4151.52 5.97061
4151.69 5.55304
4151.86 5.37646
4152.20 5.23236
4152.53 5.17516
4153.89 5.10740
4156.59 5.06892
4161.99 5.01315
4167.40 4.94873
4172.80 4.86396
4175.50 4.80884
4178.21 4.74058
4180.91 4.65315
4183.61 4.53684
4184.96 4.46331
4186.31 4.37669
4187.66 4.27568
4189.02 4.16495
4190.37 4.07817
4191.04 4.08691
4191.72 4.21261
4192.39 4.67027
4192.73 5.21157
4193.07 6.23089
4193.41 8.28613
4193.74 12.8569
4193.91 17.2748
4194.08 24.6588
4194.25 37.5796
4194.42 60.4953
4194.61 103.762
4194.80 140.686
4194.99 123.445
4195.18 85.3859
4195.40 55.7978
4195.61 39.2716
4195.83 29.7376
4196.04 23.8705
4196.26 19.9874
4196.47 17.3045
4196.90 13.8930
4197.33 11.8709
4197.76 10.5584
4198.61 8.98637
4199.47 8.09367
4200.33 7.52646
4201.19 7.13640
4202.05 6.85270
4203.76 6.46848
4205.48 6.22061
4207.20 6.04658
4208.91 5.91678
4212.35 5.73141
4215.78 5.59427
4217.50 5.52907
4219.21 5.45222
4220.07 5.39959
4220.93 5.32146
4221.36 5.26250
4221.79 5.18181
4222.00 5.14008
4222.22 5.15025
4222.32 5.26039
4222.43 5.68556
4222.49 6.28637
4222.54 7.65804
4222.57 9.06182
4222.59 11.5110
4222.62 16.0409
4222.65 24.4829
4222.67 39.4449
4222.70 52.0101
4222.73 46.2291
4222.75 33.0065
4222.78 24.2008
4222.81 18.6850
4222.83 15.2772
4222.86 13.0712
4222.91 10.5072
4222.96 9.12883
4223.07 7.75050
4223.17 7.09115
4223.38 6.47530
4223.59 6.19147
4224.00 5.92435
4224.42 5.79741
4225.25 5.67134
4226.08 5.60553
4227.74 5.53116
4229.40 5.48516
4232.72 5.42267
4236.04 5.37645
4242.69 5.30283
4249.33 5.23813
4255.98 5.17147
4259.30 5.13365
4262.62 5.08923
4265.94 5.03220
4269.27 4.94696
4270.93 4.87968
4272.59 4.77137
4273.42 4.68444
4274.25 4.55516
4274.66 4.47301
4275.08 4.42455
4275.29 4.50204
4275.49 4.93249
4275.60 5.61252
4275.70 7.33707
4275.75 9.19540
4275.81 12.6347
4275.86 19.5077
4275.88 25.4163
4275.91 33.6044
4275.96 56.3254
4276.00 75.4114
4276.05 66.4114
4276.09 46.8304
4276.14 33.1432
4276.18 24.8204
4276.22 19.6955
4276.27 16.3839
4276.36 12.5394
4276.44 10.4910
4276.53 9.23628
4276.62 8.41310
4276.79 7.42268
4276.97 6.85302
4277.14 6.49110
4277.49 6.05893
4277.85 5.81047
4278.20 5.64914
4278.90 5.44959
4280.30 5.23830
4281.70 5.10614
4283.11 4.98713
4284.51 4.84000
4285.21 4.73493
4285.91 4.58817
4286.26 4.50089
4286.61 4.46330
4286.79 4.56980
4286.96 5.08446
4287.05 5.85844
4287.14 7.70602
4287.18 9.62997
4287.23 13.0429
4287.27 19.4727
4287.31 31.6330
4287.36 53.1803
4287.40 71.5340
4287.44 63.3879
4287.49 45.0026
4287.53 31.8296
4287.57 23.8748
4287.62 19.0041
4287.66 15.8679
4287.75 12.2359
4287.83 10.2856
4288.00 8.33136
4288.17 7.39552
4288.35 6.85461
4288.52 6.50782
4288.86 6.09320
4289.21 5.85335
4289.55 5.69721
4290.24 5.50268
4291.61 5.29878
4292.98 5.17999
4298.48 4.85364
4299.85 4.76094
4301.23 4.64936
4302.60 4.50698
4303.98 4.31319
4304.66 4.18593
4305.35 4.02858
4306.04 3.82970
4306.72 3.57425
4307.41 3.25289
4307.75 3.08178
4308.10 2.95615
4308.44 3.05415
4308.61 3.37142
4308.78 4.16866
4308.87 4.93836
4308.96 6.16956
4309.04 8.19436
4309.13 11.6653
4309.17 14.3266
4309.21 17.9725
4309.26 23.0726
4309.30 30.3785
4309.34 41.1230
4309.39 57.3538
4309.43 82.4117
4309.47 120.058
4309.54 210.482
4309.60 286.760
4309.63 281.949
4309.67 250.652
4309.73 172.018
4309.79 121.057
4309.84 88.7125
4309.90 68.0902
4309.96 54.4261
4310.07 38.1910
4310.18 29.3503
4310.30 23.8938
4310.41 20.3178
4310.64 15.9503
4310.87 13.4497
4311.09 11.8551
4311.32 10.7597
4311.55 9.96558
4312.00 8.89787
4312.45 8.21739
4312.91 7.74784
4313.36 7.40507
4314.27 6.93897
4315.18 6.63707
4316.09 6.42547
4316.99 6.26872
4318.81 6.05129
4320.63 5.90675
4322.44 5.80290
4324.26 5.72407
4327.89 5.61075
4331.52 5.53139
4338.79 5.42212
4346.05 5.34307
4353.32 5.27281
4356.95 5.23428
4360.58 5.18435
4362.40 5.14767
4364.21 5.08886
4365.12 5.03935
4366.03 4.95609
4366.48 4.88835
4366.94 4.79083
4367.16 4.73720
4367.39 4.74021
4367.50 4.86314
4367.62 5.35786
4367.67 6.06737
4367.73 7.75037
4367.76 9.50834
4367.79 12.4938
4367.82 18.0158
4367.84 28.9583
4367.87 47.6329
4367.90 63.4943
4367.93 56.2652
4367.96 39.7871
4367.98 31.4362
4367.99 25.3908
4368.03 18.1043
4368.07 14.2153
4368.11 11.9305
4368.18 9.48777
4368.26 8.27332
4368.41 7.09758
4368.56 6.54886
4368.86 6.04044
4369.17 5.80502
4369.77 5.58338
4370.37 5.47715
4371.58 5.37154
4372.79 5.31649
4375.21 5.25402
4377.62 5.21398
4387.29 5.09346
4392.12 5.02152
4394.54 4.97409
4396.96 4.91150
4399.37 4.81991
4400.58 4.75369
4401.79 4.66211
4403.00 4.52428
4403.60 4.42466
4404.21 4.29003
4404.81 4.10039
4405.11 3.97698
4405.41 3.83501
4405.72 3.70272
4405.87 3.68113
4406.02 3.77170
4406.17 4.19734
4406.24 4.74083
4406.32 5.79045
4406.40 8.00280
4406.43 9.99994
4406.47 13.0341
4406.51 18.1165
4406.55 26.9044
4406.57 33.6890
4406.58 42.9714
4406.60 55.7571
4406.62 72.9414
4406.64 96.4323
4406.66 126.051
4406.70 171.197
4406.72 168.325
4406.74 150.338
4406.78 103.378
4406.81 76.7916
4406.84 58.6055
4406.87 46.3785
4406.90 37.9472
4406.96 27.5335
4407.02 21.6980
4407.08 17.9859
4407.14 15.5392
4407.26 12.5018
4407.37 10.7476
4407.49 9.62441
4407.73 8.29078
4407.97 7.53433
4408.21 7.05476
4408.68 6.48194
4409.16 6.15170
4409.64 5.93686
4410.59 5.66967
4411.54 5.50495
4412.50 5.38744
4414.40 5.21170
4416.31 5.05068
4417.26 4.95665
4418.21 4.83852
4419.17 4.67261
4419.64 4.55748
4420.12 4.40736
4420.60 4.20628
4421.07 3.96216
4421.31 3.89680
4421.43 3.95436
4421.55 4.19577
4421.67 4.92859
4421.73 5.74747
4421.79 7.20685
4421.85 10.0677
4421.88 12.5019
4421.90 15.9919
4421.93 21.5304
4421.96 30.4041
4421.99 45.1170
4422.02 69.4706
4422.04 92.5368
4422.06 120.185
4422.10 163.608
4422.12 161.411
4422.14 144.147
4422.18 99.5016
4422.21 73.5982
4422.24 56.0376
4422.27 44.3257
4422.30 36.5229
4422.36 26.5624
4422.41 21.0186
4422.47 17.5059
4422.53 15.1961
4422.65 12.3335
4422.77 10.6816
4422.89 9.62390
4423.13 8.37097
4423.37 7.65808
4423.60 7.20358
4424.08 6.66158
4424.55 6.34936
4425.03 6.14703
4425.98 5.89853
4426.93 5.75043
4427.88 5.65085
4429.78 5.52269
4431.69 5.44109
4433.59 5.38251
4437.39 5.29963
4441.20 5.23909
4445.00 5.18889
4452.61 5.09925
4460.21 5.00451
4464.02 4.94803
4467.82 4.87932
4471.63 4.78895
4473.53 4.72990
4475.43 4.65528
4477.33 4.55446
4479.23 4.40154
4480.18 4.28382
4481.13 4.10498
4481.61 3.97390
4482.09 3.81128
4482.32 3.75191
4482.56 3.87440
4482.68 4.24592
4482.74 4.68271
4482.80 5.48920
4482.86 7.13780
4482.92 10.7525
4482.95 14.3255
4482.98 20.1136
4483.01 30.6658
4483.02 38.8589
4483.04 49.0270
4483.05 65.2239
4483.07 83.6540
4483.10 111.830
4483.12 109.424
4483.13 97.1945
4483.17 67.2724
4483.20 44.2128
4483.24 31.2561
4483.27 23.7483
4483.31 19.0995
4483.38 13.9100
4483.45 11.2154
4483.53 9.61984
4483.60 8.58498
4483.74 7.34561
4484.03 6.19049
4484.32 5.64982
4484.89 5.11779
4485.47 4.83338
4486.62 4.46770
4487.77 4.15144
4488.92 3.77701
4489.49 3.54108
4490.07 3.25964
4490.64 2.94832
4490.93 2.82197
4491.22 2.81147
4491.51 3.19991
4491.65 3.81243
4491.79 5.11070
4491.94 8.02021
4492.01 10.7621
4492.08 15.2120
4492.15 22.7967
4492.22 36.5422
4492.26 47.5960
4492.30 63.2404
4492.33 85.6202
4492.37 116.448
4492.43 204.879
4492.50 280.027
4492.53 275.735
4492.57 245.445
4492.63 168.809
4492.71 109.336
4492.78 76.1072
4492.85 56.6607
4492.93 44.5252
4493.00 36.4786
4493.07 30.8650
4493.22 23.7103
4493.36 19.4481
4493.51 16.6719
4493.80 13.3360
4494.10 11.4326
4494.39 10.2243
4494.68 9.39237
4494.97 8.78706
4495.56 7.96695
4496.14 7.44011
4496.73 7.07206
4497.31 6.80078
4498.48 6.42468
4499.65 6.17350
4500.82 5.99036
4501.98 5.84733
4506.66 5.41557
4507.83 5.28808
4509.00 5.10228
4509.58 4.95825
4510.17 4.74427
4510.46 4.60533
4510.75 4.50814
4510.90 4.60713
4510.97 4.79960
4511.04 5.23705
4511.12 6.25134
4511.19 8.83697
4511.23 11.6724
4511.26 16.7588
4511.28 21.1583
4511.30 27.1597
4511.32 35.8269
4511.34 48.3002
4511.35 64.4555
4511.37 83.0052
4511.40 112.168
4511.42 110.503
4511.43 98.8267
4511.47 69.3906
4511.49 55.0507
4511.50 44.9570
4511.54 31.7266
4511.58 24.2634
4511.62 19.8111
4511.70 14.7952
4511.77 12.1985
4511.85 10.6438
4511.93 9.64866
4512.08 8.45195
4512.39 7.32978
4512.70 6.80695
4513.01 6.50664
4513.32 6.31164
4513.94 6.07207
4514.56 5.92853
4515.17 5.83124
4516.41 5.70424
4517.65 5.62168
4518.88 5.56135
4521.35 5.47469
4523.82 5.41154
4526.30 5.36084
4531.24 5.27898
4551.01 5.01366
4555.95 4.93672
4560.90 4.84473
4565.84 4.72752
4570.78 4.56633
4573.25 4.45828
4575.73 4.32111
4578.20 4.13973
4580.67 3.88750
4581.90 3.72016
4583.14 3.51238
4584.38 3.24918
4585.61 2.91139
4586.23 2.70919
4586.85 2.48758
4587.47 2.26401
4588.08 2.10292
4588.70 2.24249
4589.01 2.66724
4589.32 3.72901
4589.47 4.74558
4589.63 6.35000
4589.78 8.98495
4589.94 13.4270
4590.09 21.4437
4590.17 27.8057
4590.25 36.8060
4590.32 49.8409
4590.40 69.1666
4590.48 98.3472
4590.55 142.411
4590.68 251.274
4590.80 345.937
4590.92 304.023
4591.05 208.297
4591.18 136.513
4591.31 95.1602
4591.44 70.7413
4591.57 55.4125
4591.71 45.2078
4591.84 38.0688
4592.10 28.9455
4592.37 23.4975
4592.63 19.9442
4593.16 15.6699
4593.69 13.2361
4594.21 11.6847
4594.74 10.6171
4595.27 9.84055
4596.33 8.79036
4597.38 8.11417
4598.44 7.64145
4599.49 7.29031
4601.61 6.79283
4603.72 6.42814
4604.77 6.25545
4605.83 6.05306
4606.36 5.91797
4606.89 5.72987
4607.15 5.60589
4607.41 5.48922
4607.55 5.50673
4607.68 5.83099
4607.74 6.41350
4607.81 7.96439
4607.84 9.67319
4607.88 12.8725
4607.91 19.3205
4607.93 24.6887
4607.94 32.8329
4607.97 54.7850
4608.00 74.0937
4608.03 66.5058
4608.06 47.5317
4608.08 38.0510
4608.10 31.3644
4608.13 22.9178
4608.17 18.0793
4608.20 15.2353
4608.28 12.0610
4608.35 10.4279
4608.50 8.83136
4608.64 8.07126
4608.93 7.35076
4609.23 7.00602
4609.81 6.66481
4610.39 6.48749
4611.56 6.28909
4612.73 6.16811
4615.07 6.00631
4617.40 5.88677
4619.74 5.78001
4622.07 5.66174
4623.24 5.58207
4624.41 5.46117
4624.99 5.36450
4625.57 5.21419
4625.87 5.10762
4626.16 5.00064
4626.30 5.01097
4626.45 5.29926
4626.52 5.83846
4626.60 7.32374
4626.63 9.04391
4626.67 12.2802
4626.71 19.0429
4626.72 25.0861
4626.74 34.1408
4626.77 57.5343
4626.80 77.3013
4626.82 76.4797
4626.83 68.5601
4626.86 48.8944
4626.88 36.3157
4626.91 28.3896
4626.93 22.9689
4626.96 19.4463
4627.01 15.0616
4627.06 12.6065
4627.15 10.0717
4627.25 8.82785
4627.45 7.64698
4627.64 7.09742
4628.03 6.57914
4628.43 6.33461
4629.21 6.09666
4629.99 5.97723
4631.56 5.85040
4633.12 5.77823
4636.25 5.68885
4639.38 5.62847
4645.64 5.54050
4651.90 5.47104
4658.16 5.40748
4664.42 5.33938
4667.55 5.29726
4670.68 5.23910
4672.25 5.19530
4673.81 5.12545
4674.60 5.06773
4675.38 4.97336
4675.77 4.89896
4676.16 4.79822
4676.36 4.75104
4676.55 4.78709
4676.65 4.95892
4676.75 5.57418
4676.80 6.39547
4676.85 8.23006
4676.87 10.0496
4676.90 12.9611
4676.92 17.9761
4676.94 27.1174
4676.97 44.5956
4677.00 59.6195
4677.03 53.1035
4677.06 37.7898
4677.08 29.2943
4677.10 23.3680
4677.14 16.5256
4677.18 13.0209
4677.22 11.0481
4677.31 8.91665
4677.39 7.87102
4677.56 6.86604
4677.72 6.39696
4678.06 5.95912
4678.39 5.75301
4679.06 5.55261
4679.73 5.45000
4681.06 5.33131
4682.40 5.24458
4683.73 5.15195
4685.07 5.01607
4685.74 4.90585
4686.40 4.73103
4686.74 4.60375
4687.07 4.46879
4687.24 4.46876
4687.40 4.78350
4687.49 5.40731
4687.57 7.15435
4687.61 9.21327
4687.65 13.1791
4687.68 16.6962
4687.70 22.0350
4687.72 30.3146
4687.74 42.4236
4687.75 55.9935
4687.77 72.5842
4687.80 97.9404
4687.82 96.7324
4687.83 86.4021
4687.86 60.8733
4687.89 46.4847
4687.91 36.8916
4687.93 29.9524
4687.95 25.2729
4688.00 19.1969
4688.04 15.7287
4688.13 11.9787
4688.22 10.0960
4688.40 8.28235
4688.58 7.43912
4688.93 6.65128
4689.29 6.28490
4690.00 5.93657
4690.72 5.76885
4692.14 5.60174
4693.57 5.51516
4696.43 5.41954
4699.28 5.36163
4704.99 5.28088
4710.69 5.21206
4716.40 5.13638
4719.26 5.08961
4722.11 5.03028
4724.96 4.94636
4726.39 4.88676
4727.82 4.80501
4729.24 4.68188
4729.96 4.59184
4730.67 4.46813
4731.38 4.28677
4731.74 4.16167
4732.10 4.00480
4732.45 3.81636
4732.81 3.68061
4732.99 3.81292
4733.08 4.07496
4733.17 4.67463
4733.26 6.07349
4733.30 7.44612
4733.34 9.66463
4733.39 13.6155
4733.43 20.7859
4733.46 26.9632
4733.48 35.5120
4733.50 47.9509
4733.52 66.2959
4733.54 88.5608
4733.56 114.752
4733.60 157.382
4733.62 155.121
4733.64 138.690
4733.68 96.1416
4733.71 71.8486
4733.74 54.9574
4733.77 43.6077
4733.80 36.0042
4733.86 26.3624
4733.91 20.8523
4733.97 17.3530
4734.03 15.0484
4734.15 12.2056
4734.27 10.5456
4734.39 9.48966
4734.63 8.22624
4734.86 7.50984
4735.10 7.05235
4735.57 6.50575
4736.05 6.18995
4736.52 5.98413
4737.47 5.72959
4738.42 5.57425
4739.36 5.46579
4741.26 5.31156
4743.15 5.18513
4745.05 5.03988
4746.00 4.93545
4746.94 4.77208
4747.42 4.64354
4747.89 4.46080
4748.13 4.35958
4748.36 4.35619
4748.48 4.56575
4748.60 5.41877
4748.66 6.62105
4748.72 9.41517
4748.75 12.2658
4748.78 16.9961
4748.81 25.8572
4748.82 32.8894
4748.84 41.7547
4748.85 55.1490
4748.87 71.5310
4748.90 96.5955
4748.92 95.4274
4748.93 85.2488
4748.96 60.0633
4748.99 44.3570
4749.02 34.0282
4749.04 27.2456
4749.07 22.6499
4749.12 17.0666
4749.17 13.9868
4749.27 10.7561
4749.38 9.16749
4749.58 7.65398
4749.79 6.95184
4750.20 6.29308
4750.61 5.98282
4751.44 5.68105
4752.27 5.52946
4753.92 5.36660
4755.57 5.27018
4758.87 5.13602
4762.17 5.01757
4765.47 4.87945
4767.12 4.79087
4768.77 4.67801
4770.43 4.52566
4771.25 4.42829
4772.08 4.31628
4772.90 4.20705
4773.73 4.22730
4774.14 4.49729
4774.35 4.84917
4774.55 5.54417
4774.76 7.00179
4774.97 10.3383
4775.07 13.6407
4775.17 19.2715
4775.27 29.3647
4775.38 47.9270
4775.49 82.0800
4775.60 111.490
4775.71 98.4117
4775.82 68.7222
4775.96 44.4781
4776.09 31.3856
4776.22 23.9572
4776.35 19.4153
4776.49 16.4258
4776.62 14.3772
4776.88 11.7862
4777.15 10.2471
4777.41 9.25152
4777.94 8.05496
4778.47 7.37080
4779.00 6.93258
4779.53 6.62889
4780.05 6.40646
4781.11 6.10037
4782.17 5.89834
4784.28 5.64070
4786.40 5.47406
4788.51 5.34786
4792.74 5.13930
4796.97 4.92218
4799.09 4.78621
4801.20 4.60965
4802.26 4.49589
4803.32 4.35558
4804.38 4.17568
4805.43 3.93510
4806.49 3.59662
4807.02 3.37459
4807.55 3.11429
4808.08 2.85155
4808.34 2.77905
4808.61 2.86959
4808.87 3.46866
4809.00 4.26858
4809.13 5.86932
4809.27 9.24614
4809.33 12.3058
4809.40 17.1163
4809.46 25.0111
4809.53 38.6502
4809.60 63.5269
4809.63 83.2780
4809.66 110.570
4809.73 193.854
4809.80 266.595
4809.87 234.357
4809.94 161.123
4809.99 121.862
4810.03 94.4732
4810.08 75.0694
4810.13 61.6340
4810.23 44.3992
4810.32 34.4520
4810.42 28.0730
4810.52 23.7611
4810.71 18.4409
4810.91 15.3265
4811.10 13.3324
4811.29 11.9537
4811.48 10.9497
4811.87 9.59059
4812.26 8.72010
4812.65 8.11576
4813.03 7.67197
4813.81 7.05619
4814.58 6.64275
4815.35 6.33532
4816.13 6.08753
4817.67 5.66649
4818.45 5.45524
4819.22 5.21511
4819.99 4.90913
4820.38 4.71254
4820.77 4.47302
4821.15 4.18586
4821.35 4.04110
4821.54 3.94388
4821.73 4.05250
4821.83 4.34170
4821.93 5.03073
4822.02 6.69386
4822.07 8.29913
4822.12 10.9494
4822.17 15.6608
4822.22 24.1959
4822.24 31.1331
4822.26 41.0305
4822.29 55.3153
4822.31 76.1700
4822.33 101.632
4822.36 133.320
4822.40 184.465
4822.42 182.842
4822.44 163.742
4822.49 114.109
4822.53 76.7860
4822.58 55.0493
4822.63 41.8005
4822.67 33.6071
4822.72 28.0014
4822.77 24.1471
4822.86 19.1743
4822.95 16.1481
4823.04 14.1662
4823.23 11.7788
4823.42 10.4010
4823.60 9.52137
4823.97 8.46246
4824.34 7.85186
4824.71 7.45420
4825.45 6.96442
4826.20 6.66918
4826.94 6.46820
4828.42 6.20414
4829.91 6.02980
4831.39 5.89921
4834.35 5.69760
4837.32 5.51830
4838.81 5.42009
4840.29 5.30291
4841.77 5.14510
4842.51 5.03684
4843.26 4.89291
4844.00 4.68649
4844.37 4.54491
4844.74 4.36594
4845.11 4.14335
4845.48 3.94127
4845.67 4.00809
4845.76 4.22040
4845.85 4.74339
4845.94 6.03775
4845.99 7.30785
4846.04 9.43406
4846.08 13.2844
4846.13 20.4160
4846.15 26.3338
4846.18 34.9303
4846.20 47.5977
4846.22 66.2229
4846.24 88.5831
4846.26 115.980
4846.30 158.480
4846.32 156.776
4846.34 139.987
4846.38 97.7812
4846.41 74.5658
4846.43 58.7802
4846.46 47.6829
4846.49 39.7471
4846.54 29.4188
4846.60 23.4638
4846.65 19.5934
4846.71 17.0104
4846.82 13.7567
4846.92 11.8525
4847.03 10.6225
4847.25 9.14934
4847.47 8.30929
4847.69 7.77063
4848.12 7.12270
4848.56 6.74638
4849.00 6.49875
4849.87 6.18723
4850.74 5.99113
4851.61 5.84876
4853.35 5.63137
4855.10 5.43154
4855.97 5.31695
4856.84 5.17608
4857.71 4.98306
4858.15 4.85155
4858.58 4.68165
4859.02 4.45442
4859.45 4.16928
4859.67 4.06997
4859.78 4.10250
4859.89 4.30744
4860.00 4.97748
4860.05 5.74158
4860.11 7.10778
4860.16 9.78582
4860.22 15.2675
4860.24 20.2152
4860.27 27.9497
4860.30 40.3736
4860.33 60.4556
4860.34 80.8375
4860.36 105.854
4860.40 144.796
4860.42 143.415
4860.44 128.238
4860.48 89.9202
4860.51 64.0705
4860.54 47.7295
4860.58 37.3502
4860.61 30.4875
4860.68 22.3383
4860.75 17.8635
4860.82 15.1222
4860.88 13.3045
4861.02 11.0853
4861.16 9.80482
4861.29 8.98170
4861.56 7.99753
4861.83 7.42890
4862.11 7.06055
4862.65 6.60472
4863.19 6.32639
4863.74 6.13128
4864.82 5.84998
4865.91 5.61568
4866.99 5.36497
4867.54 5.22807
4868.08 5.15188
4868.35 5.26595
4868.62 5.88103
4868.76 6.82392
4868.90 9.13382
4868.96 11.5369
4869.03 15.8207
4869.10 23.9404
4869.17 39.5890
4869.23 66.8458
4869.30 90.3296
4869.37 80.1223
4869.43 56.6890
4869.49 41.5193
4869.55 31.9132
4869.61 25.6875
4869.66 21.5088
4869.78 16.4754
4869.89 13.6770
4870.01 11.9386
4870.12 10.7930
4870.35 9.38884
4870.58 8.57341
4870.80 8.05103
4871.26 7.42259
4871.72 7.06091
4872.18 6.82594
4873.09 6.53726
4874.00 6.36444
4874.92 6.24756
4876.74 6.09606
4878.57 5.99896
4880.40 5.92946
4884.05 5.83295
4887.71 5.76614
4891.37 5.71512
4898.68 5.63812
4905.99 5.57797
4913.30 5.52446
4920.61 5.47098
4924.26 5.44722
4926.09 5.46026
4927.00 5.56315
4927.23 5.66603
4927.46 5.92494
4927.58 6.23023
4927.69 6.90135
4927.75 7.57894
4927.80 8.80665
4927.86 11.2830
4927.89 13.5183
4927.92 16.7573
4927.96 23.6496
4928.00 28.1329
4928.04 23.6623
4928.08 16.7725
4928.13 11.7536
4928.18 9.22991
4928.24 7.91037
4928.29 7.16783
4928.39 6.39599
4928.49 6.03268
4928.69 5.71330
4928.89 5.58175
4929.30 5.47397
4929.70 5.42956
4931.32 5.36474
4934.56 5.28283
4936.18 5.22280
4937.80 5.12232
4938.61 5.03610
4939.42 4.89204
4939.82 4.77771
4940.23 4.62413
4940.43 4.55679
4940.63 4.63325
4940.74 4.92608
4940.84 5.93177
4940.89 7.25912
4940.94 10.0946
4940.96 12.8930
4940.99 17.3058
4941.01 24.7524
4941.04 37.6992
4941.07 63.5330
4941.10 86.4772
4941.12 85.3480
4941.13 76.6956
4941.16 54.0990
4941.20 36.8997
4941.23 26.8331
4941.26 20.9468
4941.30 17.2770
4941.37 13.1489
4941.43 10.9868
4941.57 8.85743
4941.70 7.85140
4941.98 6.90496
4942.25 6.46453
4942.79 6.04894
4943.33 5.85007
4944.42 5.65118
4945.50 5.54492
4947.67 5.41303
4949.84 5.30542
4952.01 5.17803
4953.09 5.09178
4954.18 4.97491
4955.26 4.80060
4955.81 4.67519
4956.35 4.50655
4956.89 4.27100
4957.43 3.95229
4957.70 3.80950
4957.84 3.80496
4957.97 3.95410
4958.11 4.54506
4958.18 5.25518
4958.25 6.57288
4958.31 9.23424
4958.35 11.5455
4958.38 15.0501
4958.42 20.5517
4958.45 29.5315
4958.48 44.7404
4958.52 70.1579
4958.54 93.3709
4958.56 122.226
4958.60 168.537
4958.62 166.824
4958.64 149.221
4958.68 103.821
4958.72 74.6277
4958.76 55.5361
4958.79 43.3138
4958.83 35.3715
4958.90 25.6904
4958.98 20.3316
4959.05 16.9991
4959.12 14.8201
4959.27 12.1551
4959.42 10.6093
4959.56 9.62537
4959.85 8.45062
4960.15 7.77907
4960.44 7.34953
4961.02 6.83065
4961.61 6.52822
4962.19 6.32822
4963.36 6.07214
4965.70 5.74453
4966.29 5.65251
4966.87 5.52698
4967.17 5.44054
4967.46 5.34294
4967.61 5.32121
4967.75 5.44760
4967.83 5.73395
4967.90 6.57667
4967.94 7.58947
4967.97 9.55024
4968.01 13.9711
4968.03 17.9841
4968.04 24.2911
4968.07 39.3197
4968.10 52.8699
4968.13 47.4262
4968.16 34.3867
4968.19 24.0804
4968.22 18.2909
4968.25 14.9026
4968.28 12.7860
4968.34 10.3975
4968.40 9.14052
4968.53 7.88856
4968.65 7.29505
4968.90 6.73189
4969.15 6.46606
4969.65 6.20983
4970.15 6.08290
4971.14 5.95071
4972.14 5.87818
4974.13 5.79409
4976.12 5.74285
4980.10 5.67861
4984.08 5.63744
4988.06 5.60760
4992.04 5.58443
5000.00 5.54976
5000.00 9.10925
5500.00 9.02088
6000.00 8.94695
7000.00 8.83126
8000.00 8.74625
9000.00 8.68252
10000.0 8.63416
12500.0 8.55756
15000.0 8.51977
17000.0 8.50607
20000.0 8.50243
25000.0 8.52189
30000.0 8.55714
35000.0 8.59921
40000.0 8.64378
50000.0 8.73262
60000.0 8.81561
70000.0 8.89054
80000.0 8.95716
90000.0 9.01583
99999.9 9.06717
100000 7.60352
200000 7.58505
265950 7.52895
265955 7.52895
301170 7.49302
319020 7.47396
319025 7.47395
462500 7.31404
526970 7.24000
534730 7.23105
534735 7.23104
589320 7.16900
643800 7.10597
643801 7.10597
686680 7.05701
686681 7.05701
714730 7.02408
740000 6.99505
766790 6.96401
827330 6.89296
862940 6.85198
862942 6.85197
891490 6.81908
891494 6.81907
908040 6.79900
908041 6.79899
967570 6.72902
997230 6.69391
997231 6.69391
1.01620E+06 6.67185
1.05690E+06 6.62315
1.05930E+06 6.62058
1.13620E+06 6.52882
1.23780E+06 6.40718
1.50000E+06 6.08901
1.75000E+06 5.78706
2.00000E+06 5.49403
2.25000E+06 5.21799
2.50000E+06 4.96700
2.75000E+06 4.74700
3.00000E+06 4.56002
3.25000E+06 4.40695
3.50000E+06 4.28708
3.75000E+06 4.19805
3.90420E+06 4.15498
4.25000E+06 4.09004
4.50000E+06 4.06500
4.75000E+06 4.05196
5.00000E+06 4.04997
5.25000E+06 4.05600
5.50000E+06 4.06803
5.75000E+06 4.08500
6.05000E+06 4.10999
6.25000E+06 4.12906
6.59820E+06 4.16600
6.59823E+06 4.16600
6.75000E+06 4.18306
7.00000E+06 4.21193
7.25000E+06 4.24106
7.55680E+06 4.27700
7.78000E+06 4.30294
8.00000E+06 4.32803
8.25000E+06 4.35612
8.50000E+06 4.38205
8.75000E+06 4.40705
9.00000E+06 4.43009
9.30510E+06 4.45711
9.50000E+06 4.47208
9.80120E+06 4.49410
9.96790E+06 4.50514
1.02500E+07 4.52216
1.05000E+07 4.53525
1.10000E+07 4.55532
1.12500E+07 4.56339
1.15000E+07 4.56948
1.17500E+07 4.57249
1.20100E+07 4.57558
1.22500E+07 4.57564
1.25000E+07 4.57472
1.27500E+07 4.57085
1.30000E+07 4.56587
1.32500E+07 4.55992
1.35000E+07 4.55197
1.37500E+07 4.54200
1.40000E+07 4.53093
1.42500E+07 4.51801
1.45000E+07 4.50394
1.47500E+07 4.48801
1.50000E+07 4.47100
1.52500E+07 4.45297
1.55000E+07 4.43303
1.57500E+07 4.41199
1.60810E+07 4.38292
1.65000E+07 4.34501
1.70000E+07 4.29595
1.75000E+07 4.24494
1.80000E+07 4.19402
1.85000E+07 4.14202
1.90000E+07 4.08995
1.95000E+07 4.04000
2.00000E+07 3.99002