Cd-111(n,tot) ENDF/B-VII.1
Energy(eV) XS(b)
1.00000E-05 351.455
1.25000E-05 314.942
1.50000E-05 287.989
2.00000E-05 250.155
2.75000E-05 214.157
3.50000E-05 190.466
4.25000E-05 173.363
5.00000E-05 160.269
6.25000E-05 143.940
7.50000E-05 131.886
0.000100000 114.967
0.000125000 103.420
0.000150000 94.8966
0.000200000 82.9325
0.000275000 71.5487
0.000350000 64.0567
0.000425000 58.6481
0.000500000 54.5075
0.000625000 49.3436
0.000750000 45.5317
0.00100000 40.1810
0.00125000 36.5294
0.00150000 33.8339
0.00200000 30.0502
0.00275000 26.4498
0.00350000 24.0802
0.00425000 22.3695
0.00500000 21.0598
0.00625000 19.4263
0.00750000 18.2203
0.0100000 16.5274
0.0125000 15.3718
0.0150000 14.5187
0.0200000 13.3208
0.0253000 12.4618
0.0314750 11.7490
0.0376500 11.2194
0.0500000 10.4714
0.0625000 9.95258
0.0750000 9.56915
0.100000 9.02993
0.125000 8.66095
0.150000 8.38780
0.200000 8.00273
0.275000 7.63349
0.350000 7.38799
0.500000 7.07021
0.750000 6.76256
1.00000 6.57159
1.50000 6.33145
2.00000 6.17643
2.62038 6.03981
3.24075 5.94064
3.86113 5.88887
4.17131 5.95592
4.24886 6.02786
4.32641 6.18122
4.40395 6.55864
4.44273 6.96014
4.48150 7.66287
4.52225 8.80866
4.56300 9.58383
4.60375 8.82970
4.64450 7.68156
4.68894 6.89188
4.73338 6.46819
4.77781 6.23072
4.82225 6.08741
4.91113 5.93117
5.00000 5.85100
5.23539 5.75398
5.47078 5.70790
5.94155 5.65571
6.41233 5.64500
6.64771 5.72235
6.70656 5.78918
6.76541 5.92174
6.82425 6.22029
6.85368 6.51193
6.88310 6.98416
6.91885 7.84246
6.95460 8.41983
6.99035 7.85080
7.02610 6.98951
7.07257 6.32170
7.11904 6.00261
7.16550 5.83789
7.21197 5.74364
7.30490 5.64520
7.39784 5.59602
7.76958 5.51843
8.51305 5.45417
10.0000 5.36512
12.5000 5.24602
15.0000 5.14954
17.5000 5.07310
20.0000 5.02868
21.8755 5.05367
22.8133 5.12077
23.7510 5.28551
24.2199 5.44587
24.6888 5.71154
25.1576 6.17839
25.6265 7.07606
25.8609 7.85575
26.0954 9.06662
26.3298 11.0747
26.5643 14.7246
26.6815 17.7649
26.7987 22.3323
26.9159 29.6166
27.0331 42.2171
27.1504 66.7038
27.2090 88.5542
27.2676 123.675
27.3262 184.930
27.3555 233.898
27.3848 304.369
27.4141 409.986
27.4434 575.315
27.4727 845.226
27.5020 1291.94
27.5360 2076.42
27.5700 2609.64
27.5870 2463.71
27.6040 2101.13
27.6380 1322.87
27.6598 968.650
27.6817 723.264
27.7254 435.148
27.7690 286.698
27.8127 202.592
27.8564 150.932
27.9001 117.133
27.9874 77.2025
28.0748 55.4673
28.1621 42.3531
28.2495 33.8319
28.3368 27.9794
28.5115 20.6679
28.6862 16.4331
28.8609 13.7531
29.0356 11.9443
29.3850 9.71858
29.7344 8.44328
30.0839 7.63853
30.4333 7.09446
31.1321 6.41960
31.8309 6.02606
32.5297 5.77204
33.2285 5.59572
34.6261 5.36754
36.0238 5.22538
38.8190 5.05327
41.6143 4.94729
44.4095 4.87101
50.0000 4.75954
54.8812 4.68341
59.7625 4.61598
64.6437 4.55268
65.8640 4.53867
67.0843 4.53050
67.6945 4.53552
67.9995 4.54555
68.3046 4.56831
68.6097 4.62302
68.7622 4.67956
68.9148 4.78245
69.0673 4.99380
69.1436 5.19150
69.2198 5.52363
69.2961 6.13901
69.3342 6.66067
69.3724 7.45482
69.4105 8.73677
69.4486 10.9583
69.4868 15.1344
69.5249 23.4186
69.5575 35.0843
69.5900 43.1184
69.6226 35.6971
69.6551 24.1838
69.6873 16.7925
69.7194 12.5958
69.7516 10.1480
69.7837 8.63821
69.8159 7.65341
69.8480 6.98020
69.9123 6.14867
69.9767 5.67574
70.0410 5.38155
70.1696 5.04924
70.2982 4.87477
70.4268 4.77114
70.6841 4.65771
70.9413 4.59870
71.1985 4.56297
71.7130 4.52137
72.7420 4.47914
73.7709 4.45299
75.8288 4.41221
77.8867 4.37498
79.9446 4.34007
80.9736 4.32670
82.0025 4.32361
83.0315 4.35366
83.5459 4.40440
84.0604 4.51999
84.3176 4.62954
84.5749 4.80850
84.8321 5.11879
85.0894 5.70591
85.2180 6.20833
85.3466 6.97748
85.4752 8.22828
85.6038 10.4381
85.7325 14.8405
85.7968 18.8542
85.8611 25.4339
85.9254 37.2134
85.9575 46.8641
85.9897 61.0727
86.0219 82.9986
86.0540 118.672
86.0862 179.976
86.1022 226.552
86.1183 288.032
86.1350 369.464
86.1517 463.167
86.1850 584.058
86.2017 552.914
86.2184 473.198
86.2517 300.564
86.2774 208.906
86.3031 149.883
86.3289 111.727
86.3546 86.3033
86.4060 56.1958
86.4574 40.0005
86.5089 30.3771
86.5603 24.2176
86.6632 17.0806
86.7661 13.2565
86.8689 10.9658
86.9718 9.48146
87.0747 8.46198
87.2804 7.18405
87.4861 6.43774
87.6919 5.96022
87.8976 5.63381
88.3091 5.22368
88.7206 4.98069
89.5435 4.70914
90.3665 4.56006
91.1894 4.46349
92.8353 4.34262
93.6583 4.30610
94.4812 4.28923
95.3042 4.30843
96.1271 4.41127
96.5386 4.53271
96.9501 4.75235
97.3615 5.16495
97.7730 6.00113
97.9787 6.74982
98.1845 7.93386
98.3902 9.92758
98.5960 13.5935
98.6988 16.6631
98.8017 21.2801
98.9046 28.6306
99.0074 41.2643
99.0589 51.2342
99.1103 65.4577
99.1617 86.6517
99.2132 119.988
99.2646 176.265
99.2903 219.756
99.3160 280.340
99.3418 367.370
99.3675 496.194
99.3932 691.926
99.4189 989.515
99.4550 1600.26
99.4910 2023.86
99.5271 1639.44
99.5631 1038.40
99.5904 723.581
99.6177 519.146
99.6450 386.015
99.6723 296.790
99.7269 190.495
99.7816 132.950
99.8362 98.6114
99.8908 76.5639
100.000 50.9363
100.094 38.6400
100.188 30.7957
100.377 21.6919
100.565 16.7788
100.754 13.8116
100.942 11.8729
101.130 10.5352
101.507 8.87154
101.884 7.98439
102.261 7.73168
102.449 8.05190
102.543 8.49171
102.637 9.34018
102.732 11.0747
102.779 12.6375
102.826 15.1301
102.873 19.3807
102.920 27.3078
102.944 33.9873
102.967 43.8743
102.991 58.9429
103.014 81.9644
103.047 129.680
103.080 163.229
103.113 133.268
103.146 86.3950
103.169 63.7764
103.191 48.5023
103.214 38.1980
103.237 31.1142
103.282 22.3819
103.327 17.4965
103.373 14.5112
103.418 12.5570
103.509 10.2328
103.599 8.94488
103.690 8.14746
103.871 7.23146
104.052 6.72563
104.233 6.40394
104.596 6.00990
104.958 5.76881
105.321 5.60023
106.046 5.37098
107.495 5.10245
108.945 4.94178
110.395 4.83229
111.845 4.75558
112.569 4.73102
113.294 4.72908
113.657 4.75422
113.838 4.78538
114.019 4.84508
114.200 4.96981
114.291 5.08614
114.382 5.27968
114.472 5.63256
114.518 5.92684
114.563 6.36814
114.608 7.06631
114.653 8.24460
114.699 10.3789
114.744 14.4086
114.786 20.3171
114.827 24.1914
114.868 20.2437
114.909 14.4095
114.954 10.3760
115.000 8.23742
115.045 7.05505
115.090 6.35297
115.136 5.90790
115.181 5.60994
115.271 5.25021
115.362 5.04957
115.453 4.92630
115.634 4.78798
115.815 4.71473
115.996 4.67009
116.358 4.61788
117.083 4.56467
117.807 4.53187
120.706 4.44116
123.604 4.36475
126.503 4.28921
129.401 4.20897
130.850 4.16657
132.299 4.12535
133.749 4.09839
134.473 4.10615
135.198 4.15920
135.560 4.22487
135.922 4.34606
136.285 4.57688
136.647 5.04885
136.828 5.47317
137.009 6.14471
137.190 7.27609
137.372 9.35156
137.553 13.6852
137.643 17.8047
137.734 24.8235
137.824 38.1173
137.870 49.6139
137.915 67.4106
137.960 96.9237
137.983 119.359
138.006 149.948
138.028 193.115
138.051 255.021
138.073 345.835
138.096 478.761
138.131 775.992
138.166 983.987
138.184 932.398
138.201 797.823
138.236 505.929
138.276 297.445
138.316 188.953
138.356 129.553
138.396 94.4512
138.436 72.1933
138.476 57.3379
138.555 39.3621
138.635 29.3167
138.715 23.1477
138.875 16.2420
139.035 12.6488
139.194 10.5308
139.354 9.17288
139.514 8.25012
139.833 7.12600
140.152 6.57543
140.312 6.50600
140.472 6.72093
140.552 7.09039
140.631 7.92528
140.671 8.72189
140.711 10.0358
140.751 12.3077
140.791 16.3158
140.833 22.8025
140.874 27.1223
140.915 22.7951
140.956 16.3012
141.001 11.7861
141.047 9.37907
141.092 8.03750
141.137 7.23144
141.228 6.35748
141.318 5.91277
141.500 5.47293
141.681 5.24958
142.043 5.00403
142.406 4.85610
143.130 4.66551
143.855 4.53776
145.304 4.36321
146.754 4.23785
149.653 4.03841
152.552 3.85082
154.001 3.75246
155.450 3.65135
156.900 3.55626
158.349 3.50167
159.074 3.52237
159.799 3.62352
160.524 3.90120
161.248 4.60350
161.611 5.30717
161.973 6.49639
162.335 8.62342
162.698 12.7612
162.879 16.3668
163.060 21.9515
163.241 31.1315
163.332 38.0500
163.422 47.4924
163.513 60.8177
163.604 80.3465
163.694 110.405
163.785 159.716
163.875 247.860
163.921 319.824
163.966 425.360
164.011 587.108
164.057 847.788
164.102 1289.49
164.147 2052.19
164.196 3340.43
164.245 4247.79
164.294 3452.04
164.343 2191.09
164.378 1561.21
164.413 1141.58
164.448 861.200
164.482 669.301
164.552 435.437
164.622 306.230
164.691 227.851
164.761 177.024
164.900 117.200
165.040 84.6370
165.179 64.9005
165.318 51.9908
165.457 43.0592
165.736 31.7523
166.015 25.0811
166.293 20.7796
166.572 17.8236
167.129 14.0919
167.686 11.8814
168.243 10.4429
168.800 9.44299
169.915 8.15834
171.029 7.37710
172.143 6.85552
173.257 6.48372
175.486 5.98904
177.714 5.67343
179.943 5.45233
182.172 5.28666
186.629 5.04822
191.086 4.87546
195.543 4.73443
200.000 4.61227
200.893 4.59366
201.787 4.58722
202.233 4.59999
202.457 4.61825
202.680 4.65515
202.903 4.73548
203.015 4.81262
203.126 4.94406
203.238 5.19212
203.294 5.40579
203.350 5.73689
203.406 6.28624
203.461 7.27504
203.517 9.25179
203.545 10.9830
203.573 13.5409
203.615 19.0007
203.656 22.6268
203.697 19.0147
203.738 13.6051
203.776 10.2975
203.814 8.36281
203.853 7.20895
203.891 6.48605
203.967 5.68212
204.044 5.27540
204.120 5.04270
204.196 4.89764
204.349 4.73342
204.502 4.64657
204.655 4.59437
204.960 4.53543
205.571 4.48139
206.182 4.45479
206.793 4.44351
207.404 4.46168
207.710 4.50562
207.862 4.55255
208.015 4.63737
208.168 4.80719
208.244 4.96106
208.321 5.21047
208.397 5.65110
208.473 6.52520
208.512 7.31234
208.550 8.56904
208.588 10.6763
208.626 14.2700
208.668 20.2807
208.709 24.3258
208.751 20.3122
208.792 14.2924
208.824 11.1583
208.856 9.15172
208.887 7.86019
208.919 7.00258
208.983 5.99213
209.046 5.45227
209.110 5.13241
209.174 4.92836
209.301 4.69256
209.428 4.56571
209.555 4.48889
209.809 4.40200
210.063 4.35381
210.318 4.32202
210.826 4.27893
211.843 4.21888
212.860 4.16655
214.894 4.05871
216.929 3.93592
218.963 3.79746
219.980 3.73171
220.997 3.69435
221.505 3.70752
222.014 3.77216
222.522 3.94668
223.031 4.37886
223.285 4.80488
223.540 5.51590
223.794 6.76962
224.048 9.16950
224.175 11.2350
224.302 14.3974
224.429 19.5277
224.557 28.5260
224.620 35.7478
224.684 46.1901
224.747 61.9890
224.811 87.2683
224.874 131.048
224.906 165.652
224.938 214.676
224.970 287.040
225.002 397.606
225.033 572.180
225.065 848.580
225.106 1376.00
225.146 1746.60
225.187 1424.26
225.227 908.412
225.259 627.236
225.291 447.378
225.323 331.140
225.354 254.103
225.418 162.908
225.482 113.926
225.545 84.7371
225.609 66.0392
225.736 44.2690
225.864 32.5290
225.991 25.4482
226.118 20.8276
226.246 17.6314
226.500 13.5836
226.755 11.1873
227.009 9.63258
227.264 8.55514
227.773 7.17558
228.283 6.33963
229.301 5.40559
229.810 5.15637
230.320 5.04423
230.829 5.13901
231.338 5.65918
231.593 6.25538
231.847 7.30516
232.102 9.21968
232.357 12.9652
232.484 16.2204
232.611 21.2246
232.739 29.3560
232.802 35.4166
232.866 43.5925
232.930 54.9720
232.993 71.3097
233.057 95.8621
233.120 134.672
233.184 200.629
233.216 251.668
233.248 322.875
233.280 425.547
233.311 577.127
233.343 807.031
233.375 1156.19
233.421 1892.24
233.466 2413.69
233.511 1973.92
233.556 1266.60
233.597 831.235
233.638 570.084
233.679 411.051
233.720 309.872
233.803 194.740
233.885 135.110
233.967 100.343
234.049 78.3510
234.213 53.0047
234.378 39.4184
234.542 31.2300
234.706 25.8763
234.870 22.1606
235.199 17.4285
235.528 14.6007
235.856 12.7507
236.185 11.4594
236.842 9.79304
237.499 8.77463
238.156 8.09197
238.814 7.60376
240.128 6.95217
241.442 6.53616
242.757 6.24600
244.071 6.03081
246.700 5.72951
249.328 5.52440
254.586 5.24949
259.843 5.05194
262.472 4.96136
265.101 4.86669
267.729 4.75819
269.044 4.69481
270.358 4.62444
271.015 4.58845
271.672 4.55626
272.330 4.53861
272.987 4.56709
273.315 4.62532
273.644 4.74959
273.972 5.00889
274.301 5.57345
274.465 6.09767
274.630 6.94268
274.794 8.38462
274.958 11.0521
275.123 16.6160
275.205 21.8652
275.287 30.6888
275.328 37.4994
275.369 46.9959
275.410 60.7071
275.451 81.2976
275.492 114.009
275.513 137.726
275.533 168.974
275.554 211.073
275.574 268.071
275.595 346.211
275.615 452.563
275.655 738.721
275.694 943.059
275.714 897.452
275.733 771.921
275.772 495.054
275.815 302.750
275.857 198.086
275.899 138.838
275.941 102.978
275.983 79.8743
276.026 64.1914
276.110 44.9222
276.195 33.9708
276.279 27.1540
276.448 19.4076
276.617 15.2972
276.785 12.8343
276.954 11.2270
277.123 10.1130
277.461 8.69360
277.799 7.84411
278.136 7.28716
278.474 6.89753
279.149 6.39323
279.825 6.08388
280.500 5.87592
281.175 5.72699
282.526 5.52933
283.877 5.41097
284.552 5.37816
284.890 5.37280
285.228 5.38228
285.565 5.42503
285.734 5.47497
285.903 5.56834
286.072 5.75994
286.156 5.93634
286.241 6.22678
286.325 6.74914
286.367 7.17908
286.410 7.81575
286.452 8.80609
286.494 10.4386
286.536 13.2989
286.578 18.4689
286.620 26.4272
286.661 31.7169
286.703 26.4057
286.744 18.4649
286.770 14.9184
286.796 12.4602
286.848 9.55454
286.900 8.04758
286.952 7.19041
287.004 6.66286
287.056 6.31707
287.160 5.90773
287.264 5.68382
287.368 5.54793
287.576 5.39654
287.784 5.31661
287.992 5.26773
288.408 5.21003
288.824 5.17525
289.240 5.15033
290.072 5.11369
291.737 5.06142
293.401 5.02090
296.730 4.95620
300.058 4.90348
303.387 4.85762
306.715 4.81661
308.380 4.79858
310.044 4.78579
310.876 4.78625
311.292 4.79172
311.708 4.80567
312.124 4.84021
312.333 4.87587
312.541 4.94023
312.749 5.07115
312.853 5.19273
312.957 5.39623
313.061 5.77303
313.113 6.09326
313.165 6.58334
313.217 7.38151
313.269 8.78721
313.321 11.5009
313.347 13.7980
313.373 17.0976
313.414 24.5300
313.455 29.4703
313.497 24.5126
313.538 17.0991
313.574 12.8038
313.610 10.2208
313.646 8.63631
313.682 7.62755
313.754 6.48343
313.826 5.89535
313.898 5.55599
313.970 5.34389
314.115 5.10357
314.259 4.97767
314.403 4.90339
314.691 4.82280
314.979 4.78127
315.268 4.75619
315.844 4.72660
316.420 4.70830
316.997 4.69451
318.150 4.67215
320.456 4.63227
322.762 4.59031
325.068 4.54233
326.221 4.51579
327.373 4.48949
327.950 4.47861
328.526 4.47279
329.103 4.47938
329.679 4.51792
329.968 4.56464
330.256 4.64987
330.544 4.81010
330.832 5.13184
330.976 5.41600
331.121 5.85755
331.265 6.58241
331.409 7.86449
331.553 10.3877
331.625 12.6415
331.697 16.2300
331.769 22.3806
331.841 33.9135
331.877 43.6997
331.913 58.2933
331.949 80.6918
331.985 115.169
332.035 186.282
332.085 237.428
332.135 195.379
332.185 126.734
332.221 91.4957
332.257 68.0830
332.294 52.4844
332.330 41.8288
332.402 28.8706
332.475 21.6943
332.547 17.3369
332.619 14.4979
332.764 11.1408
332.909 9.29766
333.054 8.17031
333.343 6.90588
333.633 6.23881
333.923 5.83784
334.212 5.57462
334.502 5.39108
335.081 5.16095
335.371 5.09379
335.660 5.06093
335.950 5.08965
336.095 5.15511
336.240 5.30042
336.384 5.63341
336.457 5.96013
336.529 6.52170
336.602 7.57795
336.638 8.47809
336.674 9.84892
336.710 12.0522
336.746 15.8329
336.783 22.8063
336.819 36.2550
336.852 56.3392
336.885 70.6927
336.917 58.7338
336.950 39.3234
336.988 25.2400
337.025 17.8147
337.063 13.7192
337.100 11.2882
337.138 9.73513
337.175 8.69145
337.250 7.41474
337.325 6.69216
337.400 6.24121
337.550 5.72507
337.699 5.44633
337.849 5.27481
338.149 5.07599
338.448 4.96302
338.748 4.88837
339.347 4.79115
340.546 4.67571
341.744 4.59628
344.141 4.46555
346.538 4.33184
347.737 4.25491
348.935 4.16686
350.134 4.06480
351.332 3.95007
351.932 3.89346
352.531 3.84881
353.130 3.84290
353.729 3.95228
354.029 4.11377
354.329 4.43253
354.628 5.06859
354.928 6.41196
355.078 7.63760
355.227 9.58961
355.377 12.8780
355.452 15.3955
355.527 18.8700
355.602 23.8132
355.677 31.1166
355.752 42.4357
355.827 61.1044
355.864 75.2474
355.901 94.5735
355.939 121.943
355.976 161.903
356.014 223.081
356.051 320.753
356.089 484.969
356.126 764.709
356.168 1253.65
356.210 1605.46
356.252 1316.83
356.294 845.201
356.326 592.625
356.358 428.503
356.390 321.219
356.422 249.023
356.486 162.562
356.550 115.378
356.614 86.9614
356.678 68.5985
356.806 47.0101
356.934 35.2128
357.062 28.0284
357.190 23.2940
357.318 19.9955
357.574 15.7773
357.831 13.2516
358.087 11.6000
358.343 10.4495
358.855 8.97217
359.367 8.07734
359.879 7.48380
360.391 7.06418
361.416 6.51369
362.440 6.17080
363.465 5.93754
364.489 5.76882
366.538 5.54116
368.586 5.39472
370.635 5.29290
372.684 5.21878
376.781 5.12457
378.830 5.10073
380.879 5.09820
381.903 5.11031
382.928 5.13852
383.952 5.19568
384.976 5.31227
385.489 5.41519
386.001 5.57555
386.513 5.84151
387.025 6.32484
387.281 6.72835
387.537 7.33718
387.793 8.31663
388.049 10.0386
388.178 11.4361
388.306 13.4892
388.434 16.6848
388.562 22.0380
388.690 32.0169
388.754 40.5573
388.818 53.7396
388.882 75.4781
388.946 114.488
389.010 192.028
389.042 259.566
389.074 358.888
389.122 571.419
389.170 713.161
389.217 571.479
389.265 358.984
389.306 237.915
389.347 164.374
389.388 119.001
389.429 89.8457
389.511 56.6007
389.593 39.4282
389.675 29.4969
389.756 23.2837
389.920 16.2523
390.084 12.5885
390.248 10.4442
390.411 9.08291
390.575 8.16531
390.902 7.04335
391.230 6.40911
391.557 6.01545
391.884 5.75407
392.539 5.43810
393.194 5.26039
393.849 5.14940
394.503 5.07458
395.813 4.98086
397.122 4.92406
398.432 4.88485
399.741 4.85495
402.360 4.80845
404.979 4.76759
406.289 4.74642
406.944 4.73568
407.598 4.72607
408.253 4.72263
408.581 4.72899
408.908 4.75162
409.072 4.77652
409.235 4.82018
409.399 4.89981
409.563 5.05573
409.726 5.39866
409.808 5.73488
409.890 6.31821
409.972 7.43962
410.013 8.41536
410.054 9.93365
410.095 12.4458
410.136 16.9355
410.177 25.7178
410.197 33.2388
410.217 44.0664
410.251 69.4548
410.284 87.7889
410.317 72.9436
410.350 48.5286
410.374 35.7488
410.399 27.2971
410.423 21.7067
410.448 17.9225
410.497 13.3252
410.545 10.7969
410.594 9.26270
410.643 8.26672
410.741 7.08949
410.839 6.44241
410.937 6.04643
411.133 5.60189
411.328 5.36674
411.524 5.22504
411.720 5.13164
411.916 5.06600
412.307 4.98043
412.698 4.92728
413.481 4.86426
414.264 4.82704
415.047 4.80136
416.613 4.76538
418.179 4.73807
419.745 4.71393
420.528 4.70346
420.919 4.70000
421.311 4.70038
421.702 4.71232
421.898 4.73019
422.094 4.76879
422.289 4.85991
422.387 4.95309
422.485 5.12005
422.583 5.45347
422.632 5.75381
422.681 6.23664
422.730 7.07357
422.779 8.66440
422.803 10.0312
422.828 12.0906
422.852 15.3130
422.876 20.3384
422.909 30.4629
422.942 37.7863
422.975 31.8646
423.007 22.1298
423.038 16.0970
423.068 12.5021
423.098 10.3099
423.128 8.91830
423.188 7.33567
423.248 6.51362
423.308 6.03364
423.368 5.72865
423.488 5.37551
423.608 5.18460
423.729 5.06845
423.969 4.93785
424.209 4.86790
424.450 4.82481
424.930 4.77426
425.411 4.74473
425.892 4.72444
426.853 4.69595
428.776 4.65468
430.699 4.61517
432.622 4.56641
433.583 4.53448
434.545 4.49392
435.026 4.46920
435.506 4.44100
435.987 4.40985
436.468 4.38000
436.708 4.37041
436.949 4.37220
437.189 4.40163
437.429 4.50187
437.549 4.61274
437.670 4.80874
437.790 5.17021
437.910 5.88612
438.030 7.48475
438.090 9.06973
438.150 11.8526
438.210 17.2700
438.241 22.0600
438.271 29.5821
438.301 42.2827
438.316 52.0059
438.331 65.4469
438.346 84.5245
438.361 112.326
438.376 153.681
438.391 215.143
438.402 278.365
438.413 351.400
438.436 450.528
438.447 429.887
438.459 371.148
438.481 239.809
438.500 166.410
438.518 119.850
438.536 89.8254
438.554 70.0266
438.591 46.5811
438.627 33.9815
438.664 26.4365
438.700 21.5864
438.773 15.8939
438.846 12.7907
438.919 10.8991
438.992 9.65206
439.065 8.78123
439.211 7.66515
439.356 6.99430
439.502 6.55396
439.648 6.24616
439.940 5.84930
440.231 5.60804
440.523 5.44804
440.814 5.33569
441.398 5.19415
441.981 5.12834
442.272 5.13219
442.418 5.15398
442.564 5.20381
442.710 5.31444
442.783 5.41827
442.856 5.58882
442.929 5.89069
443.001 6.48579
443.038 7.01672
443.074 7.85097
443.111 9.22750
443.147 11.5193
443.189 15.4510
443.230 18.0699
443.271 15.4456
443.312 11.5082
443.351 9.11572
443.389 7.72202
443.428 6.88881
443.466 6.36788
443.543 5.78653
443.619 5.49080
443.696 5.32071
443.773 5.21371
443.926 5.09044
444.079 5.02325
444.233 4.98131
444.540 4.93114
444.846 4.90089
445.153 4.87957
445.767 4.84946
446.994 4.81033
448.221 4.78353
449.448 4.76368
450.676 4.75068
451.289 4.74939
451.903 4.76010
452.210 4.78035
452.363 4.80116
452.516 4.83823
452.670 4.91170
452.747 4.97801
452.823 5.08551
452.900 5.27516
452.977 5.65174
453.015 5.99190
453.053 6.53445
453.092 7.44546
453.130 9.00608
453.171 11.5822
453.213 13.2998
453.254 11.5818
453.295 9.00484
453.320 7.89118
453.345 7.10850
453.395 6.16719
453.445 5.66943
453.495 5.38369
453.545 5.20616
453.595 5.08946
453.696 4.95057
453.796 4.87445
453.896 4.82822
454.096 4.77691
454.496 4.73395
454.897 4.71532
455.698 4.69680
456.498 4.68566
458.100 4.66930
459.701 4.65586
461.303 4.64450
462.904 4.63786
463.705 4.64067
464.105 4.64679
464.506 4.66055
464.906 4.69289
465.106 4.72561
465.307 4.78413
465.507 4.90220
465.607 5.01129
465.707 5.19306
465.807 5.52756
465.857 5.81046
465.907 6.23995
465.957 6.93508
466.007 8.14206
466.057 10.4283
466.082 12.3285
466.107 15.0181
466.149 21.2749
466.190 25.4309
466.231 21.2593
466.273 15.0182
466.319 10.6611
466.365 8.38281
466.412 7.13647
466.458 6.40206
466.505 5.93922
466.551 5.63088
466.644 5.26058
466.737 5.05606
466.829 4.93156
467.015 4.79405
467.201 4.72335
467.386 4.68186
467.757 4.63658
468.128 4.61248
468.500 4.59710
469.242 4.57690
470.726 4.54883
472.211 4.52218
473.696 4.49127
474.438 4.47348
475.180 4.45510
475.551 4.44708
475.922 4.44224
476.294 4.44570
476.665 4.47133
476.850 4.50354
477.036 4.56328
477.222 4.67698
477.407 4.90731
477.593 5.43029
477.685 5.95414
477.778 6.87948
477.871 8.69763
477.917 10.3138
477.964 12.8774
478.010 17.2294
478.057 25.2937
478.080 32.0216
478.103 41.9433
478.126 56.9151
478.149 79.4023
478.166 101.801
478.183 127.914
478.217 163.249
478.251 135.076
478.284 88.3483
478.321 55.4228
478.358 37.5318
478.395 27.4391
478.432 21.3409
478.469 17.4140
478.506 14.7476
478.580 11.4703
478.653 9.60096
478.727 8.43306
478.875 7.09741
479.022 6.38304
479.170 5.95092
479.317 5.66649
479.465 5.46737
479.760 5.20995
480.055 5.05253
480.645 4.87139
481.235 4.77390
481.530 4.74613
481.825 4.73735
482.120 4.76921
482.267 4.82170
482.415 4.93341
482.562 5.18702
482.636 5.43666
482.710 5.86727
482.784 6.68416
482.821 7.38509
482.857 8.45529
482.894 10.1913
482.931 13.1971
482.968 18.8068
483.005 29.7499
483.038 46.0458
483.071 57.8790
483.104 48.4074
483.137 32.7638
483.164 23.8882
483.191 18.2741
483.218 14.6999
483.245 12.3429
483.299 9.57607
483.353 8.09410
483.407 7.21327
483.461 6.64812
483.569 5.99259
483.677 5.64431
483.784 5.44528
484.000 5.28218
484.216 5.36189
484.324 5.53969
484.432 5.91002
484.540 6.70867
484.594 7.45584
484.648 8.68292
484.702 10.8624
484.756 15.1475
484.783 18.9324
484.810 24.8233
484.837 34.3329
484.864 49.7740
484.881 63.3004
484.897 78.9923
484.931 100.364
484.964 83.4932
484.997 55.3903
485.027 38.4913
485.056 28.1983
485.085 21.8238
485.114 17.7053
485.173 12.9635
485.232 10.4655
485.290 8.99264
485.349 8.04980
485.466 6.94911
485.583 6.34836
485.700 5.97993
485.935 5.56180
486.169 5.33582
486.404 5.19608
486.873 5.03316
487.341 4.94079
487.810 4.88074
488.748 4.80582
489.686 4.75955
490.623 4.72710
492.499 4.68266
494.374 4.65183
496.249 4.62783
500.000 4.59000
504.541 4.55233
509.081 4.51787
511.352 4.50139
513.622 4.48703
514.757 4.48319
515.325 4.48400
515.892 4.48937
516.460 4.50602
516.744 4.52460
517.028 4.55954
517.311 4.63331
517.453 4.70396
517.595 4.82569
517.737 5.06072
517.808 5.26939
517.879 5.60264
517.950 6.18142
518.021 7.30077
518.056 8.28621
518.092 9.81713
518.127 12.3088
518.163 16.3917
518.204 23.5616
518.245 28.3406
518.287 23.5604
518.328 16.3897
518.377 11.1870
518.427 8.56580
518.476 7.17018
518.525 6.36409
518.574 5.86130
518.623 5.53002
518.722 5.13524
518.820 4.91908
518.918 4.78824
519.115 4.64446
519.311 4.57095
519.508 4.52797
519.901 4.48122
520.294 4.45648
520.688 4.44082
521.474 4.42059
523.047 4.39409
524.620 4.37195
526.193 4.35094
527.765 4.33412
528.552 4.33341
528.945 4.33954
529.338 4.35652
529.732 4.40013
529.928 4.44577
530.125 4.52862
530.321 4.69723
530.420 4.85349
530.518 5.11393
530.616 5.59249
530.665 5.99625
530.715 6.60743
530.764 7.59246
530.813 9.29190
530.862 12.4892
530.911 18.8157
530.953 27.5697
530.994 33.3880
531.036 27.5461
531.077 18.8127
531.113 13.7411
531.150 10.6896
531.186 8.82657
531.222 7.64137
531.295 6.29663
531.367 5.60608
531.440 5.20762
531.512 4.95841
531.657 4.67557
531.802 4.52651
531.947 4.43774
532.237 4.33945
532.528 4.28655
532.818 4.25255
533.398 4.20763
534.558 4.14554
535.719 4.09124
536.299 4.06687
536.879 4.04918
537.459 4.04997
538.040 4.10244
538.330 4.17516
538.620 4.31512
538.910 4.58868
539.200 5.15524
539.345 5.66479
539.490 6.46595
539.635 7.79686
539.780 10.1743
539.925 14.9045
539.998 19.1534
540.070 25.9616
540.143 37.6951
540.179 46.8995
540.215 59.8315
540.252 78.6749
540.288 106.869
540.324 150.454
540.360 217.683
540.385 281.630
540.410 356.226
540.460 457.491
540.485 437.165
540.510 377.645
540.560 244.408
540.609 157.816
540.658 107.679
540.707 77.8714
540.755 59.2514
540.804 46.9313
540.853 38.4294
540.950 27.7740
541.048 21.5953
541.145 17.6897
541.340 13.1910
541.535 10.7704
541.730 9.30710
541.925 8.34834
542.120 7.68542
542.510 6.86465
542.900 6.47037
543.095 6.44796
543.290 6.70031
543.387 7.09979
543.485 8.02518
543.533 8.95292
543.582 10.5719
543.631 13.6236
543.680 19.6661
543.721 28.0905
543.762 33.6842
543.804 28.0287
543.845 19.5841
543.882 14.6647
543.918 11.7029
543.955 9.89074
543.991 8.73371
544.064 7.41122
544.136 6.71868
544.209 6.30933
544.282 6.04437
544.427 5.72549
544.573 5.53946
544.718 5.41509
545.009 5.25188
545.590 5.05997
546.172 4.93803
546.754 4.85635
547.045 4.83505
547.336 4.84207
547.626 4.92175
547.772 5.03098
547.917 5.25501
548.063 5.75633
548.135 6.24716
548.208 7.09305
548.281 8.69081
548.317 10.0590
548.353 12.1411
548.390 15.5019
548.426 21.2557
548.463 31.8892
548.499 52.2973
548.516 66.6852
548.532 83.3912
548.566 106.145
548.599 88.3323
548.633 58.5896
548.659 42.3601
548.685 31.8251
548.711 24.9684
548.737 20.3682
548.789 14.8715
548.841 11.8784
548.893 10.0717
548.945 8.89938
549.048 7.51592
549.152 6.75330
549.256 6.28433
549.464 5.75153
549.672 5.46408
549.880 5.28690
550.296 5.08141
550.711 4.96758
551.127 4.90311
551.335 4.89104
551.543 4.91053
551.647 4.95196
551.751 5.05566
551.803 5.16376
551.854 5.35814
551.906 5.73944
551.932 6.06436
551.958 6.53036
552.000 7.58237
552.041 8.27998
552.082 7.57234
552.123 6.51540
552.170 5.77693
552.216 5.38907
552.262 5.17436
552.308 5.04648
552.400 4.90847
552.493 4.83855
552.677 4.76915
552.862 4.73307
553.231 4.69074
553.600 4.66211
555.077 4.58373
558.030 4.47461
560.984 4.38280
562.461 4.34302
562.830 4.33798
563.199 4.34399
563.384 4.36050
563.568 4.40879
563.661 4.46706
563.753 4.59178
563.799 4.71207
563.845 4.91670
563.891 5.29134
563.938 6.00744
563.979 7.03962
564.020 7.72465
564.061 7.03423
564.103 6.00202
564.133 5.48369
564.162 5.14386
564.222 4.76793
564.282 4.58512
564.342 4.48489
564.461 4.38489
564.581 4.33774
564.820 4.29362
565.060 4.27184
565.538 4.24777
566.016 4.23547
566.495 4.23777
566.734 4.25087
566.973 4.28270
567.213 4.35857
567.332 4.43424
567.452 4.56602
567.571 4.81929
567.631 5.04078
567.691 5.38825
567.751 5.97263
567.811 7.04960
567.841 7.94800
567.870 9.27685
567.900 11.2934
567.930 14.3566
567.972 20.5079
568.013 24.6093
568.054 20.5055
568.096 14.3503
568.127 11.1769
568.158 9.12508
568.189 7.79356
568.221 6.90611
568.283 5.85091
568.345 5.28231
568.408 4.94385
568.470 4.72735
568.594 4.47546
568.719 4.33869
568.844 4.25490
569.093 4.15801
569.592 4.06333
570.090 4.00706
571.087 3.92172
572.084 3.85515
572.583 3.83834
573.082 3.85103
573.580 3.93163
574.079 4.18063
574.328 4.44666
574.577 4.90812
574.827 5.74439
575.076 7.37196
575.325 10.9275
575.450 14.3861
575.574 20.3366
575.637 25.0132
575.699 31.6116
575.761 41.2799
575.824 56.0940
575.886 80.0800
575.917 97.8720
575.948 121.613
575.979 154.114
576.011 199.107
576.042 262.509
576.073 350.767
576.129 576.740
576.184 742.700
576.240 613.471
576.296 396.577
576.348 260.884
576.399 180.039
576.451 130.877
576.503 99.6485
576.606 64.1716
576.709 45.7470
576.812 34.9654
576.916 28.1126
577.122 20.1616
577.329 15.8577
577.535 13.2393
577.742 11.5123
577.948 10.3037
578.361 8.74776
578.774 7.80591
579.187 7.18280
579.600 6.74392
580.426 6.17340
581.252 5.83102
581.665 5.71984
582.078 5.66534
582.285 5.68841
582.491 5.82056
582.595 6.00418
582.698 6.42284
582.750 6.84541
582.801 7.59434
582.853 9.04391
582.879 10.2699
582.904 12.0280
582.946 16.0167
582.987 18.6657
583.028 15.9929
583.070 11.9997
583.101 9.93489
583.132 8.60247
583.163 7.73559
583.194 7.15452
583.257 6.46078
583.319 6.08407
583.381 5.85670
583.443 5.70860
583.568 5.53042
583.692 5.42762
583.817 5.35990
584.065 5.27223
584.563 5.16812
585.061 5.09678
586.057 4.98926
587.053 4.90447
589.044 4.76899
591.035 4.65655
593.027 4.55283
595.018 4.45006
596.014 4.40052
597.010 4.36556
597.507 4.37285
597.756 4.39663
598.005 4.45335
598.254 4.58957
598.379 4.72744
598.503 4.97148
598.628 5.45371
598.690 5.88737
598.752 6.58853
598.814 7.82334
598.877 10.2575
598.908 12.4387
598.939 15.9036
598.970 21.6736
599.001 31.4574
599.035 47.8547
599.069 58.7899
599.104 47.8514
599.138 31.4487
599.174 20.5117
599.210 14.5888
599.246 11.2443
599.282 9.23876
599.318 7.95249
599.354 7.08842
599.426 6.03646
599.498 5.44763
599.570 5.08501
599.715 4.67778
599.859 4.46286
600.003 4.33253
600.291 4.18189
600.868 4.03696
601.445 3.98229
601.733 3.99790
602.022 4.07291
602.310 4.27020
602.599 4.74837
602.743 5.21244
602.887 5.97636
603.031 7.29856
603.175 9.76220
603.320 14.8909
603.392 19.6816
603.464 27.6320
603.500 33.6772
603.536 41.9532
603.572 53.6912
603.608 70.8379
603.644 97.0818
603.680 138.902
603.716 208.719
603.752 327.295
603.793 538.409
603.834 693.875
603.875 573.393
603.917 371.191
603.963 225.255
604.009 147.087
604.055 103.275
604.101 77.0054
604.147 60.1071
604.193 48.6794
604.285 34.6287
604.377 26.6180
604.469 21.6032
604.653 15.8654
604.837 12.7861
605.021 10.9201
605.206 9.68955
605.390 8.82896
605.758 7.72368
606.126 7.07425
606.311 6.86711
606.495 6.76089
606.587 6.78390
606.679 6.93746
606.725 7.12432
606.771 7.46932
606.817 8.13085
606.863 9.42540
606.904 11.3137
606.945 12.5635
606.987 11.2555
607.028 9.30851
607.059 8.31247
607.089 7.65716
607.150 6.92619
607.212 6.55747
607.273 6.34338
607.395 6.10291
607.517 5.96352
607.762 5.78799
608.006 5.66633
608.496 5.48732
608.985 5.35242
609.963 5.15189
610.941 5.00296
612.898 4.77681
614.854 4.58427
615.833 4.48669
616.811 4.38237
617.789 4.26771
618.767 4.14308
619.257 4.08172
619.746 4.03120
620.235 4.01538
620.724 4.10231
620.968 4.24041
621.213 4.51695
621.458 5.07031
621.702 6.23181
621.947 8.93784
622.069 11.6850
622.191 16.5735
622.252 20.5216
622.314 26.2176
622.375 34.8042
622.436 48.3805
622.497 71.3681
622.528 89.0800
622.558 113.534
622.589 148.425
622.619 199.191
622.650 275.075
622.680 387.661
622.727 639.635
622.773 826.160
622.820 684.353
622.866 443.677
622.896 329.897
622.926 250.332
622.987 155.910
623.047 106.544
623.108 78.1545
623.168 60.4599
623.228 48.7072
623.349 34.5405
623.470 26.5956
623.591 21.6694
623.832 16.0606
624.074 13.0589
624.315 11.2378
624.557 10.0339
624.798 9.18759
625.281 8.08871
625.764 7.41451
626.247 6.96218
626.730 6.63915
627.696 6.20981
628.663 5.93774
629.629 5.74963
630.595 5.61139
632.527 5.42060
634.459 5.29376
638.323 5.13225
642.188 5.03085
646.052 4.96003
647.984 4.93289
649.917 4.91317
650.883 4.90995
651.366 4.91288
651.849 4.92296
652.332 4.95029
652.573 4.97938
652.815 5.03275
653.056 5.14300
653.177 5.24690
653.298 5.42309
653.419 5.75637
653.479 6.04574
653.539 6.49749
653.600 7.25735
653.660 8.65866
653.690 9.82969
653.721 11.5655
653.751 14.2070
653.781 18.2163
653.822 26.2365
653.864 31.5637
653.905 26.2152
653.947 18.2148
653.980 13.9096
654.012 11.1976
654.045 9.47137
654.078 8.33534
654.144 7.00828
654.209 6.30706
654.275 5.89523
654.341 5.63488
654.472 5.33688
654.603 5.17964
654.735 5.08658
654.997 4.98607
655.260 4.93510
655.522 4.90516
656.047 4.87188
657.098 4.84102
658.148 4.82395
660.249 4.80057
662.349 4.78235
664.450 4.76747
666.550 4.75863
667.600 4.76124
668.126 4.76781
668.651 4.78287
669.176 4.81874
669.439 4.85543
669.701 4.92178
669.832 4.97661
669.964 5.05824
670.095 5.18697
670.226 5.40625
670.357 5.82460
670.423 6.19183
670.489 6.77165
670.554 7.76284
670.620 9.63329
670.653 11.2358
670.686 13.6699
670.718 17.4911
670.751 23.5282
670.793 34.8260
670.834 42.3321
670.876 34.7998
670.917 23.5312
670.946 18.0620
670.975 14.4173
671.004 11.9798
671.033 10.3118
671.091 8.28278
671.149 7.16802
671.207 6.49629
671.265 6.06425
671.380 5.56165
671.496 5.29277
671.612 5.13253
671.843 4.95908
672.074 4.87181
672.306 4.82144
672.769 4.76764
673.231 4.74000
673.694 4.72310
674.620 4.70251
676.471 4.67834
678.322 4.65988
680.173 4.64210
682.024 4.62321
683.875 4.60343
684.800 4.60274
685.032 4.61154
685.263 4.63920
685.379 4.67446
685.495 4.75464
685.553 4.83711
685.610 4.98798
685.668 5.29595
685.697 5.57081
685.726 5.98304
685.767 6.83227
685.808 7.39616
685.850 6.82884
685.891 5.98028
685.938 5.37744
685.986 5.06648
686.080 4.79898
686.175 4.69479
686.270 4.64420
686.459 4.59754
686.649 4.57633
687.028 4.55715
687.407 4.55383
687.596 4.56025
687.786 4.57748
687.975 4.61619
688.165 4.70246
688.260 4.78278
688.354 4.91131
688.449 5.12805
688.544 5.51962
688.639 6.30605
688.686 7.01637
688.733 8.15427
688.781 10.1169
688.828 13.8079
688.852 16.9400
688.875 21.6224
688.899 28.8036
688.923 39.7877
688.939 50.4765
688.956 62.9849
688.989 80.1138
689.023 67.0867
689.056 44.9502
689.090 29.9404
689.125 21.4525
689.159 16.5153
689.193 13.4657
689.228 11.4699
689.262 10.0979
689.330 8.38937
689.399 7.40131
689.468 6.77708
689.605 6.05682
689.742 5.66702
689.879 5.42950
690.016 5.27217
690.153 5.16150
690.428 5.01777
690.702 4.92958
691.250 4.82786
691.799 4.77092
692.347 4.73412
693.444 4.68796
694.541 4.65841
695.638 4.63626
697.832 4.60108
700.026 4.56860
701.123 4.55099
702.220 4.53106
703.318 4.50759
703.866 4.49460
704.415 4.48237
704.963 4.47795
705.237 4.48699
705.512 4.51937
705.649 4.55528
705.786 4.61839
705.923 4.73365
706.060 4.95872
706.197 5.44967
706.266 5.92459
706.334 6.73499
706.403 8.25236
706.437 9.53742
706.471 11.4731
706.506 14.5559
706.540 19.7516
706.574 29.0741
706.609 46.3230
706.625 59.0217
706.642 73.8852
706.676 94.2521
706.709 78.7901
706.743 52.5618
706.772 36.7931
706.801 27.0983
706.830 21.0494
706.860 17.1188
706.918 12.5661
706.976 10.1530
707.035 8.72431
707.093 7.80712
707.210 6.73391
707.327 6.14758
707.444 5.78846
707.560 5.55029
707.677 5.38284
707.911 5.16592
708.145 5.03358
708.378 4.94531
708.612 4.88257
709.079 4.79955
709.546 4.74705
710.481 4.68349
711.415 4.64515
712.350 4.61832
714.219 4.58047
717.957 4.52724
721.695 4.47970
725.433 4.42509
727.302 4.39075
729.170 4.34743
730.105 4.32053
731.039 4.28855
731.974 4.24978
732.908 4.20245
733.376 4.17557
733.843 4.14794
734.310 4.12396
734.777 4.11812
735.011 4.13486
735.245 4.18287
735.478 4.29682
735.712 4.56267
735.829 4.81682
735.945 5.23166
736.062 5.94373
736.179 7.25790
736.296 9.95846
736.354 12.4488
736.413 16.5269
736.471 23.7335
736.500 29.5196
736.529 37.8435
736.559 50.2518
736.588 69.4738
736.617 100.307
736.632 122.351
736.646 150.240
736.665 194.591
736.683 246.552
736.720 318.158
736.738 304.893
736.757 264.220
736.793 172.292
736.816 131.506
736.838 102.189
736.882 66.2457
736.927 46.7237
736.971 35.2581
737.015 27.9824
737.060 23.1079
737.148 17.1596
737.237 13.7961
737.326 11.6979
737.503 9.30143
737.680 8.01829
737.858 7.24239
738.035 6.73440
738.213 6.38427
738.567 5.96220
738.922 5.80509
739.100 5.86479
739.188 5.96892
739.277 6.17300
739.366 6.57777
739.454 7.45563
739.499 8.29866
739.543 9.71698
739.588 12.2733
739.632 17.0250
739.673 24.1012
739.715 28.7976
739.756 24.0578
739.798 16.9739
739.846 11.8542
739.895 9.25207
739.944 7.85465
739.993 7.04021
740.042 6.52697
740.090 6.18473
740.188 5.76824
740.285 5.53135
740.383 5.38135
740.578 5.20276
740.773 5.09849
740.968 5.02820
741.358 4.93500
741.748 4.87230
742.138 4.82509
742.918 4.75564
744.478 4.66506
746.039 4.60400
749.159 4.51702
752.280 4.44599
755.400 4.37255
756.960 4.32951
758.521 4.27759
760.081 4.21027
760.861 4.16774
761.641 4.11788
762.031 4.09096
762.421 4.06513
762.811 4.04672
763.201 4.05494
763.396 4.08543
763.591 4.15600
763.786 4.30875
763.981 4.64622
764.079 4.96015
764.176 5.46300
764.274 6.31106
764.371 7.84729
764.469 10.9349
764.518 13.7303
764.566 18.2150
764.615 25.9628
764.640 32.0427
764.664 40.5662
764.688 52.9826
764.713 71.5784
764.737 100.163
764.761 144.010
764.779 186.515
764.796 236.322
764.830 305.003
764.847 292.327
764.864 253.372
764.898 165.281
764.934 104.745
764.970 70.8735
765.005 51.2738
765.041 39.2101
765.076 31.3341
765.112 25.9286
765.183 19.2004
765.254 15.3171
765.326 12.8693
765.468 10.0441
765.611 8.51587
765.753 7.58490
765.895 6.96849
766.038 6.53513
766.323 5.97303
766.607 5.62901
766.892 5.39866
767.177 5.23440
767.747 5.01602
768.317 4.87699
769.456 4.70731
770.595 4.60358
771.735 4.52969
774.014 4.42132
776.292 4.33342
778.571 4.25113
779.711 4.21303
780.850 4.18900
781.420 4.19931
781.705 4.22226
781.989 4.27407
782.274 4.39505
782.417 4.51583
782.559 4.72800
782.702 5.14327
782.773 5.51365
782.844 6.10758
782.915 7.13922
782.986 9.13834
783.022 10.8954
783.058 13.6321
783.093 18.0705
783.129 25.3575
783.170 38.1710
783.212 46.6817
783.254 38.1344
783.295 25.3487
783.325 19.0851
783.354 14.9183
783.384 12.1464
783.413 10.2628
783.472 7.97769
783.530 6.72301
783.589 5.96871
783.648 5.48225
783.765 4.91479
783.883 4.60801
784.000 4.42246
784.235 4.21451
784.470 4.10170
784.704 4.02931
785.174 3.93470
786.113 3.80820
787.053 3.70457
787.522 3.66296
787.992 3.64110
788.462 3.66864
788.931 3.82631
789.166 4.01835
789.401 4.36987
789.636 5.03169
789.871 6.35709
790.106 9.31479
790.223 12.2219
790.340 17.2586
790.399 21.2238
790.458 26.8362
790.517 35.0692
790.575 47.6876
790.634 68.0989
790.693 103.344
790.722 130.833
790.751 168.752
790.781 221.977
790.810 295.741
790.864 488.652
790.917 632.507
790.971 525.130
791.024 341.180
791.061 250.720
791.097 188.635
791.134 145.983
791.170 116.258
791.243 79.1434
791.316 58.0744
791.389 45.0190
791.462 36.4001
791.607 26.0367
791.753 20.2469
791.899 16.6576
792.044 14.2617
792.190 12.5718
792.482 10.3809
792.773 9.04753
793.064 8.16287
793.356 7.53841
793.939 6.72200
794.522 6.21528
795.104 5.87041
795.687 5.61968
796.853 5.27482
798.019 5.04123
799.184 4.86354
800.350 4.71470
802.681 4.44429
803.847 4.30109
805.013 4.13896
805.596 4.04834
806.178 3.95248
806.761 3.85886
807.344 3.79624
807.636 3.80366
807.927 3.87649
808.218 4.09177
808.510 4.64329
808.656 5.19139
808.801 6.10402
808.947 7.69547
809.093 10.6702
809.166 13.1572
809.238 16.8455
809.311 22.5779
809.384 31.9833
809.421 39.0681
809.457 48.6705
809.493 62.0677
809.530 81.3444
809.566 110.167
809.603 154.679
809.639 225.960
809.675 341.152
809.722 565.703
809.768 734.242
809.814 610.912
809.861 397.764
809.913 242.645
809.965 159.091
810.017 112.235
810.069 84.0407
810.121 65.8521
810.172 53.5113
810.276 38.2653
810.380 29.5301
810.484 24.0394
810.692 17.7111
810.900 14.2855
811.108 12.1931
811.316 10.8036
811.523 9.82376
811.939 8.54765
812.355 7.76256
812.770 7.23516
813.186 6.85819
814.017 6.35674
814.849 6.03888
815.680 5.81903
816.511 5.65745
818.174 5.43428
819.837 5.28561
823.162 5.09507
826.488 4.97323
829.813 4.88468
833.138 4.81573
834.801 4.79211
835.217 4.79209
835.633 4.80449
835.840 4.82591
836.048 4.88379
836.152 4.95295
836.256 5.10343
836.308 5.25259
836.360 5.51535
836.412 6.02438
836.438 6.45577
836.464 7.07296
836.505 8.46450
836.546 9.39187
836.588 8.46278
836.629 7.06975
836.656 6.43586
836.682 5.99905
836.736 5.48988
836.789 5.22885
836.842 5.08136
836.949 4.93166
837.056 4.86137
837.269 4.79871
837.482 4.77119
837.908 4.74534
838.335 4.73137
840.040 4.69857
840.893 4.68747
841.746 4.68355
842.172 4.69053
842.599 4.72091
842.812 4.76506
843.025 4.87905
843.132 5.01349
843.238 5.30585
843.292 5.59642
843.345 6.11263
843.398 7.12165
843.425 7.98782
843.452 9.23905
843.493 12.0045
843.534 13.8419
843.576 11.9956
843.617 9.23584
843.646 7.89162
843.675 6.99774
843.704 6.40096
843.733 5.99307
843.791 5.49737
843.848 5.22508
843.964 4.95496
844.080 4.83115
844.311 4.72350
844.543 4.67790
845.005 4.63736
845.468 4.61706
846.394 4.59139
847.319 4.57099
849.170 4.53209
851.021 4.49044
852.872 4.44294
854.723 4.38736
855.649 4.35755
856.574 4.33345
857.037 4.33331
857.500 4.36820
857.731 4.42989
857.847 4.49176
857.963 4.59939
858.078 4.80531
858.136 4.98461
858.194 5.26389
858.252 5.73092
858.310 6.58079
858.368 8.30781
858.397 9.84447
858.425 12.1444
858.467 16.8889
858.508 20.0498
858.550 16.8869
858.591 12.1413
858.632 9.13083
858.673 7.43065
858.713 6.44448
858.754 5.84049
858.836 5.18124
858.917 4.85633
859.080 4.56811
859.243 4.45972
859.570 4.43374
859.896 4.58215
860.222 5.04704
860.385 5.55978
860.548 6.51304
860.711 8.47012
860.793 10.2665
860.874 13.1827
860.956 18.2808
861.038 28.0558
861.078 36.4845
861.119 49.2377
861.160 69.1978
861.201 100.440
861.256 164.509
861.311 212.507
861.366 177.315
861.421 116.578
861.480 74.1290
861.538 50.4808
861.597 36.8811
861.655 28.5435
861.714 23.1131
861.772 19.3910
861.889 14.7642
862.006 12.0930
862.123 10.4043
862.357 8.45106
862.591 7.38966
862.825 6.73934
863.059 6.30604
863.293 5.99959
863.761 5.59797
864.229 5.34790
865.164 5.05236
866.100 4.87927
867.036 4.76041
868.907 4.59198
870.779 4.45617
871.715 4.39005
872.650 4.32294
873.586 4.25767
874.522 4.21540
874.990 4.23454
875.224 4.27613
875.458 4.36849
875.692 4.57921
875.809 4.78494
875.926 5.13801
876.043 5.80802
876.101 6.38828
876.160 7.28978
876.218 8.79425
876.277 11.5343
876.335 17.1053
876.364 22.0565
876.393 29.4685
876.435 44.7502
876.477 54.9366
876.519 44.7587
876.561 29.4858
876.593 21.5131
876.625 16.3975
876.657 13.1019
876.689 10.9145
876.753 8.34492
876.817 6.98378
876.945 5.70773
877.073 5.19806
877.329 5.00107
877.585 5.45857
877.841 6.92037
877.969 8.48705
878.096 11.3165
878.224 16.9301
878.288 21.9219
878.352 29.8049
878.416 43.0540
878.448 53.1932
878.480 67.1538
878.512 86.8514
878.544 115.318
878.576 157.204
878.608 218.475
878.659 360.972
878.709 467.543
878.735 448.670
878.760 389.121
878.811 253.715
878.868 154.656
878.925 101.669
878.982 72.0136
879.040 54.2211
879.097 42.7698
879.154 35.0109
879.269 25.4404
879.383 19.9676
879.498 16.5251
879.727 12.5575
879.956 10.4053
880.185 9.08534
880.414 8.20480
880.642 7.58146
881.100 6.77574
881.329 6.52343
881.558 6.37413
881.787 6.40701
881.902 6.57534
882.016 6.98077
882.131 7.93821
882.188 8.87850
882.245 10.4687
882.303 13.3706
882.360 19.2169
882.388 24.4787
882.417 32.7899
882.446 46.4319
882.460 56.3693
882.474 69.1130
882.492 88.8647
882.509 112.014
882.543 144.610
882.578 121.728
882.613 81.4172
882.647 54.2455
882.682 38.5764
882.717 29.2688
882.751 23.4551
882.786 19.5949
882.821 16.9225
882.890 13.5439
882.959 11.5623
883.029 10.2912
883.167 8.79182
883.306 7.95486
883.444 7.42703
883.722 6.80069
883.999 6.43880
884.276 6.19947
884.830 5.89473
885.385 5.70218
885.939 5.56553
887.048 5.37858
888.157 5.25240
889.265 5.15891
891.483 5.02449
893.700 4.92641
895.918 4.84514
897.027 4.80806
898.135 4.77598
898.690 4.76750
899.244 4.78185
899.521 4.81922
899.660 4.85984
899.798 4.93373
899.937 5.08135
900.006 5.21421
900.076 5.42786
900.145 5.79896
900.214 6.51560
900.249 7.14334
900.283 8.11248
900.318 9.67035
900.353 12.2004
900.394 16.7223
900.435 19.7344
900.477 16.7170
900.518 12.1903
900.547 10.0077
900.576 8.54871
900.604 7.57001
900.633 6.89841
900.690 6.07846
900.747 5.62560
900.805 5.35102
900.862 5.17307
900.976 4.96301
901.091 4.84730
901.205 4.77542
901.434 4.69088
901.892 4.60618
902.350 4.56072
902.579 4.55051
902.808 4.55625
903.037 4.59538
903.266 4.71324
903.380 4.83650
903.495 5.04653
903.609 5.41925
903.724 6.12505
903.838 7.60974
903.896 9.00039
903.953 11.2970
904.010 15.4063
904.067 23.5343
904.096 30.7496
904.125 42.0163
904.153 60.2599
904.167 73.4031
904.182 90.1241
904.200 116.500
904.217 147.325
904.253 190.478
904.271 183.061
904.288 159.392
904.324 105.212
904.351 75.5620
904.379 56.1444
904.406 43.4132
904.433 34.8191
904.488 24.4767
904.543 18.7897
904.598 15.3415
904.653 13.0911
904.762 10.4154
904.872 8.93128
904.981 8.01319
905.091 7.40007
905.200 6.96716
905.420 6.40319
905.639 6.05753
905.858 5.82659
906.077 5.66254
906.516 5.44615
906.954 5.31067
907.392 5.21817
907.830 5.15127
908.707 5.06291
909.584 5.01651
910.022 5.01397
910.460 5.05091
910.680 5.11540
910.789 5.17930
910.899 5.28940
911.008 5.49823
911.063 5.67837
911.118 5.95719
911.173 6.41743
911.228 7.24249
911.282 8.87671
911.310 10.2941
911.337 12.3612
911.378 16.8293
911.420 19.8056
911.461 16.8252
911.503 12.3539
911.529 10.3163
911.556 8.91271
911.610 7.27570
911.663 6.43830
911.717 5.96618
911.771 5.67725
911.824 5.48857
911.931 5.26581
912.039 5.14415
912.146 5.07008
912.360 4.98705
912.789 4.91488
913.218 4.88122
914.075 4.84459
914.933 4.82124
916.648 4.78789
918.363 4.76340
920.078 4.74611
921.793 4.74187
922.651 4.75411
923.080 4.77057
923.508 4.80339
923.937 4.87551
924.151 4.94640
924.366 5.07153
924.580 5.32234
924.687 5.55389
924.795 5.94063
924.902 6.65663
924.955 7.26597
925.009 8.20057
925.063 9.72817
925.116 12.4338
925.170 17.7044
925.197 22.2050
925.223 28.6863
925.265 43.0687
925.307 52.6481
925.349 43.0527
925.390 28.6664
925.416 22.4504
925.441 18.0674
925.492 12.8145
925.543 10.0451
925.593 8.45386
925.644 7.46878
925.695 6.82120
925.796 6.05443
925.898 5.63766
925.999 5.38756
926.202 5.11753
926.405 4.98552
926.607 4.91510
927.013 4.86256
927.419 4.88893
927.622 4.94183
927.824 5.04809
928.027 5.27311
928.129 5.48423
928.230 5.83814
928.331 6.49195
928.382 7.04532
928.433 7.88816
928.484 9.25119
928.534 11.6263
928.585 16.1373
928.610 19.9053
928.636 25.2287
928.677 37.6027
928.719 45.8394
928.761 37.5939
928.803 25.2555
928.834 18.8488
928.866 14.7211
928.898 12.0511
928.929 10.2717
928.993 8.16824
929.056 7.04182
929.120 6.37431
929.183 5.94910
929.310 5.46023
929.436 5.20051
929.563 5.04632
929.817 4.87915
930.070 4.79428
930.324 4.74459
930.830 4.69001
931.337 4.66058
931.844 4.64162
932.858 4.61684
934.886 4.58493
936.914 4.55950
940.969 4.51082
945.025 4.45667
949.080 4.38924
951.108 4.34690
953.136 4.29554
955.164 4.23102
957.191 4.14741
958.205 4.09704
959.219 4.04518
959.726 4.02694
960.233 4.03913
960.486 4.08697
960.613 4.14122
960.740 4.24114
960.867 4.44124
960.930 4.62036
960.993 4.90526
961.057 5.39325
961.120 6.30998
961.152 7.09077
961.183 8.26686
961.215 10.0921
961.247 12.9245
961.288 18.3757
961.330 21.9953
961.371 18.3537
961.413 12.9081
961.446 9.94145
961.479 8.08453
961.513 6.90844
961.546 6.13689
961.613 5.23700
961.679 4.76040
961.746 4.47847
961.812 4.29806
961.946 4.08610
962.212 3.89302
962.479 3.80120
963.012 3.71291
963.545 3.71939
963.812 3.78956
964.079 3.95650
964.345 4.31908
964.612 5.11714
964.878 7.02972
965.012 8.99508
965.145 12.5116
965.212 15.3516
965.278 19.4438
965.345 25.5907
965.412 35.2495
965.478 51.4274
965.512 63.7293
965.545 80.5853
965.578 104.223
965.611 138.125
965.645 187.553
965.678 259.416
965.732 430.632
965.786 560.084
965.841 467.315
965.895 305.227
965.929 230.633
965.963 177.532
966.030 113.134
966.098 78.6856
966.166 58.5816
966.234 45.8833
966.301 37.3852
966.437 27.0250
966.572 21.1589
966.708 17.4893
966.979 13.2765
967.250 11.0001
967.521 9.60923
967.792 8.68511
968.063 8.03370
968.605 7.19039
969.147 6.69433
969.418 6.54195
969.689 6.48541
969.825 6.54099
969.960 6.76415
970.028 7.03795
970.096 7.58935
970.130 8.07914
970.164 8.83978
970.197 10.0606
970.231 12.0250
970.273 15.6107
970.314 17.9968
970.355 15.5801
970.397 11.9627
970.439 9.58932
970.482 8.27533
970.525 7.52138
970.567 7.06008
970.652 6.54953
970.737 6.28595
970.908 6.02136
971.078 5.88406
971.419 5.72639
971.759 5.62424
972.440 5.47986
973.121 5.37405
974.484 5.22191
975.846 5.11533
978.570 4.97312
981.295 4.88055
984.019 4.81422
986.744 4.76494
988.106 4.74702
989.468 4.73937
990.149 4.74741
990.830 4.78654
991.171 4.84594
991.341 4.90461
991.512 5.00770
991.682 5.21167
991.767 5.39681
991.852 5.69921
991.937 6.24143
991.980 6.68707
992.022 7.34489
992.065 8.37022
992.108 10.0566
992.150 13.0200
992.193 18.3692
992.234 26.5851
992.276 32.0626
992.317 26.5819
992.359 18.3644
992.389 14.2876
992.419 11.6048
992.449 9.82572
992.478 8.62386
992.538 7.17527
992.598 6.38540
992.658 5.91314
992.717 5.61005
992.837 5.25899
992.956 5.07155
993.075 4.95981
993.314 4.83836
993.553 4.77657
993.792 4.74026
994.269 4.70007
995.224 4.66340
996.180 4.64376
998.090 4.61875
1000.00 4.60632
1000.93 4.61125
1001.39 4.62173
1001.85 4.64523
1002.32 4.70073
1002.55 4.75763
1002.78 4.86044
1003.01 5.07407
1003.13 5.27739
1003.24 5.62353
1003.36 6.29741
1003.42 6.89742
1003.47 7.84021
1003.53 9.50615
1003.59 12.7599
1003.62 15.6450
1003.65 20.1783
1003.68 27.6097
1003.70 39.4042
1003.74 60.1282
1003.77 73.8660
1003.80 60.1363
1003.84 39.4139
1003.87 26.9745
1003.89 19.7975
1003.92 15.4079
1003.95 12.6048
1004.01 9.39234
1004.07 7.77518
1004.13 6.82983
1004.19 6.25007
1004.30 5.58963
1004.42 5.24623
1004.54 5.04521
1004.77 4.83085
1005.01 4.72419
1005.24 4.66282
1005.71 4.59689
1006.18 4.56226
1006.64 4.54029
1007.58 4.51164
1009.45 4.47267
1011.32 4.43705
1013.20 4.39632
1014.13 4.37170
1015.07 4.34235
1016.00 4.30642
1016.47 4.28608
1016.94 4.26662
1017.41 4.25909
1017.64 4.27278
1017.88 4.32271
1017.99 4.37814
1018.11 4.47540
1018.23 4.65217
1018.34 4.99436
1018.46 5.72843
1018.52 6.43334
1018.58 7.59429
1018.64 9.73969
1018.69 14.0099
1018.72 17.8644
1018.75 23.9818
1018.78 34.0979
1018.81 51.0878
1018.83 66.3361
1018.85 83.3088
1018.88 106.957
1018.91 89.2838
1018.95 59.7223
1018.99 38.2247
1019.02 26.7479
1019.06 20.1673
1019.10 16.1361
1019.13 13.5099
1019.17 11.7086
1019.25 9.46484
1019.32 8.15427
1019.39 7.33717
1019.54 6.38804
1019.69 5.86771
1019.84 5.55053
1019.99 5.33777
1020.14 5.18846
1020.43 4.99319
1020.73 4.87380
1021.32 4.74223
1021.92 4.68869
1022.22 4.68843
1022.51 4.71692
1022.81 4.80595
1022.96 4.90167
1023.11 5.07274
1023.26 5.41514
1023.33 5.72182
1023.40 6.21680
1023.48 7.08365
1023.55 8.78374
1023.59 10.2965
1023.63 12.6819
1023.66 16.6131
1023.70 23.1892
1023.74 34.4587
1023.78 41.6955
1023.82 34.1757
1023.87 23.1887
1023.91 15.2192
1023.96 11.1172
1024.01 8.90017
1024.06 7.60447
1024.11 6.79236
1024.15 6.25330
1024.25 5.61257
1024.34 5.25440
1024.44 5.03621
1024.63 4.79474
1024.82 4.66813
1025.01 4.59269
1025.40 4.50691
1025.78 4.45841
1026.16 4.42556
1026.93 4.37970
1028.46 4.31396
1029.99 4.25598
1031.52 4.19653
1033.05 4.13361
1033.82 4.10347
1034.59 4.08509
1034.97 4.09422
1035.35 4.15406
1035.54 4.24721
1035.64 4.33751
1035.73 4.48907
1035.83 4.77341
1035.88 5.01430
1035.93 5.37088
1035.97 5.95323
1036.02 6.95562
1036.07 8.82111
1036.12 12.3628
1036.16 17.4838
1036.20 20.7929
1036.24 17.3522
1036.28 12.3566
1036.33 8.80814
1036.38 6.99178
1036.42 5.99001
1036.47 5.39544
1036.51 5.01161
1036.56 4.76064
1036.65 4.45567
1036.75 4.28253
1036.84 4.17596
1037.02 4.05225
1037.39 3.93814
1037.76 3.88012
1038.50 3.81762
1039.24 3.81863
1039.61 3.86819
1039.98 3.98966
1040.35 4.25660
1040.72 4.84417
1041.09 6.25329
1041.27 7.69649
1041.46 10.2489
1041.64 15.2635
1041.74 19.7016
1041.83 26.5568
1041.92 38.0272
1042.01 58.1891
1042.10 96.9288
1042.15 129.376
1042.20 175.594
1042.28 290.673
1042.35 377.903
1042.43 316.257
1042.51 207.520
1042.60 127.006
1042.69 83.8228
1042.78 59.6869
1042.87 45.2965
1042.96 35.9174
1043.05 29.5472
1043.23 21.7200
1043.41 17.2032
1043.59 14.3689
1043.95 11.0750
1044.31 9.27642
1044.67 8.16385
1045.03 7.41322
1045.38 6.87316
1046.10 6.14719
1046.46 5.89905
1046.82 5.72582
1047.18 5.69253
1047.36 5.80379
1047.54 6.13048
1047.72 7.00660
1047.81 7.93913
1047.90 9.60552
1047.99 12.9410
1048.03 15.9027
1048.08 20.4340
1048.12 28.1251
1048.17 41.9321
1048.19 53.3538
1048.21 68.9239
1048.23 91.2600
1048.26 123.162
1048.27 159.971
1048.29 203.232
1048.33 261.826
1048.35 251.648
1048.37 218.514
1048.41 144.994
1048.44 96.3699
1048.48 67.6241
1048.51 50.3155
1048.55 39.5970
1048.62 27.1782
1048.69 20.6795
1048.76 16.8081
1048.83 14.3650
1048.98 11.4923
1049.12 9.89690
1049.26 8.91416
1049.55 7.77475
1049.83 7.14379
1050.12 6.74391
1050.68 6.26296
1051.25 5.97821
1051.82 5.78664
1052.96 5.54033
1054.10 5.38862
1054.67 5.33636
1055.24 5.30076
1055.81 5.29178
1056.10 5.30754
1056.38 5.35346
1056.67 5.46925
1056.81 5.58787
1056.95 5.79615
1057.10 6.20796
1057.17 6.57358
1057.24 7.15939
1057.31 8.17536
1057.38 10.1393
1057.42 11.8909
1057.45 14.5363
1057.49 18.9402
1057.52 25.9458
1057.56 38.5543
1057.61 47.0008
1057.65 38.5573
1057.69 25.9461
1057.73 17.8963
1057.77 13.3992
1057.82 10.8102
1057.86 9.25830
1057.90 8.22509
1057.94 7.53798
1058.02 6.68105
1058.11 6.19640
1058.19 5.89625
1058.35 5.55837
1058.52 5.38087
1058.69 5.27458
1059.02 5.15526
1059.35 5.08921
1059.68 5.04598
1060.35 4.98836
1061.68 4.91328
1063.00 4.85409
1064.33 4.79753
1065.00 4.76833
1065.66 4.73880
1066.33 4.71370
1066.66 4.70958
1066.99 4.72479
1067.16 4.74941
1067.32 4.79810
1067.49 4.89355
1067.66 5.08822
1067.82 5.52272
1067.90 5.94539
1067.99 6.66543
1068.07 7.99540
1068.15 10.7467
1068.20 13.3283
1068.24 17.4155
1068.28 24.5383
1068.32 36.5875
1068.37 58.5122
1068.41 74.8677
1068.46 63.2643
1068.51 43.1461
1068.53 34.0281
1068.56 27.4308
1068.62 19.2670
1068.67 14.8056
1068.73 12.1972
1068.78 10.4983
1068.84 9.36850
1068.95 7.96200
1069.06 7.15050
1069.17 6.64362
1069.40 6.05505
1069.62 5.73145
1069.84 5.53203
1070.29 5.30098
1070.73 5.17259
1071.18 5.09084
1072.06 4.99162
1072.95 4.93194
1073.84 4.89092
1075.62 4.83590
1077.40 4.79984
1079.18 4.77802
1080.07 4.77654
1080.96 4.79639
1081.41 4.83332
1081.63 4.87179
1081.85 4.94120
1082.07 5.08375
1082.18 5.21639
1082.30 5.43960
1082.41 5.85633
1082.46 6.21755
1082.52 6.76535
1082.57 7.68614
1082.63 9.30849
1082.66 10.6502
1082.68 12.5940
1082.71 15.4674
1082.74 19.5194
1082.78 28.4648
1082.82 34.2204
1082.86 28.2423
1082.91 19.5238
1082.94 15.1058
1082.96 12.2707
1082.99 10.3217
1083.02 9.04024
1083.08 7.46102
1083.14 6.59684
1083.20 6.07897
1083.26 5.74613
1083.38 5.36012
1083.50 5.15385
1083.61 5.03089
1083.85 4.89744
1084.09 4.82983
1084.32 4.79037
1084.79 4.74729
1085.74 4.70952
1086.68 4.69047
1088.57 4.66683
1090.46 4.64985
1092.35 4.63684
1094.23 4.63063
1095.18 4.63532
1096.12 4.66089
1096.59 4.70103
1096.83 4.74144
1097.07 4.81388
1097.30 4.96130
1097.42 5.09909
1097.54 5.33185
1097.66 5.76957
1097.71 6.14792
1097.77 6.73728
1097.83 7.72162
1097.89 9.52131
1097.92 11.0425
1097.95 13.2031
1097.98 16.5700
1098.01 21.4643
1098.05 31.6400
1098.09 38.1790
1098.13 31.3915
1098.18 21.4751
1098.21 15.7877
1098.25 12.2903
1098.28 10.1174
1098.32 8.71425
1098.39 7.10786
1098.45 6.28184
1098.52 5.79455
1098.59 5.49237
1098.73 5.14594
1098.87 4.96436
1099.01 4.85749
1099.29 4.74285
1099.57 4.68528
1099.85 4.65210
1100.40 4.61615
1101.51 4.58485
1102.63 4.56898
1104.85 4.54845
1107.08 4.53225
1111.53 4.50406
1113.75 4.49594
1114.31 4.49877
1114.87 4.51269
1115.14 4.53375
1115.42 4.59029
1115.56 4.65993
1115.70 4.82054
1115.77 4.99299
1115.84 5.32035
1115.87 5.61037
1115.91 6.06110
1115.94 6.78976
1115.98 7.93797
1116.02 10.0574
1116.06 11.4314
1116.10 10.0050
1116.14 7.93937
1116.19 6.49894
1116.24 5.74183
1116.28 5.32575
1116.33 5.07973
1116.42 4.82045
1116.51 4.69640
1116.69 4.58447
1116.88 4.53711
1117.24 4.49761
1117.61 4.48097
1119.08 4.45609
1122.01 4.43055
1124.94 4.40609
1127.87 4.37865
1130.80 4.34525
1132.27 4.32457
1133.73 4.29935
1135.20 4.26660
1135.93 4.24583
1136.66 4.22102
1137.39 4.19239
1137.76 4.17890
1138.13 4.17208
1138.49 4.19242
1138.68 4.23415
1138.86 4.33443
1139.04 4.58853
1139.13 4.85954
1139.23 5.34894
1139.32 6.34683
1139.36 7.25036
1139.41 8.66035
1139.45 11.1162
1139.50 15.6950
1139.52 19.5235
1139.55 25.1695
1139.57 33.6764
1139.59 45.8217
1139.61 59.3943
1139.63 74.5070
1139.66 95.5825
1139.70 79.8645
1139.73 53.5485
1139.77 34.0476
1139.81 23.7911
1139.84 17.9781
1139.88 14.4452
1139.92 12.1073
1139.96 10.5578
1140.04 8.63203
1140.11 7.50940
1140.19 6.80961
1140.34 5.99664
1140.49 5.55038
1140.65 5.27756
1140.95 4.96426
1141.26 4.79236
1141.56 4.68488
1142.17 4.55632
1142.78 4.47949
1143.39 4.42564
1144.61 4.34602
1145.83 4.27625
1146.44 4.23947
1147.05 4.20033
1147.67 4.16357
1147.97 4.15450
1148.28 4.16996
1148.43 4.20057
1148.58 4.26421
1148.73 4.39494
1148.89 4.66921
1149.04 5.30874
1149.11 5.94615
1149.19 7.06094
1149.27 9.23419
1149.31 11.0925
1149.34 13.9447
1149.38 18.5581
1149.42 26.5076
1149.46 41.1883
1149.48 53.0492
1149.50 69.4818
1149.51 90.0336
1149.53 114.259
1149.57 147.148
1149.58 141.443
1149.60 122.851
1149.64 81.8035
1149.67 56.0139
1149.70 40.3021
1149.73 30.6050
1149.77 24.3501
1149.83 17.1479
1149.89 13.3881
1149.96 11.1189
1150.02 9.66142
1150.15 7.96107
1150.28 7.01800
1150.40 6.44095
1150.53 6.05508
1150.66 5.78177
1150.91 5.42344
1151.17 5.20265
1151.68 4.94849
1152.19 4.80727
1152.69 4.71809
1153.71 4.61240
1154.73 4.55613
1155.75 4.53860
1156.26 4.55851
1156.52 4.58738
1156.77 4.64507
1157.03 4.77069
1157.15 4.89229
1157.28 5.09965
1157.41 5.49984
1157.47 5.85170
1157.54 6.39753
1157.60 7.33907
1157.66 9.07279
1157.69 10.5650
1157.73 12.8152
1157.76 16.3117
1157.79 21.5504
1157.83 31.8621
1157.87 38.4816
1157.91 31.6053
1157.96 21.5540
1157.99 15.9144
1158.02 12.3957
1158.06 10.1829
1158.09 8.77517
1158.16 7.10813
1158.22 6.22822
1158.29 5.71293
1158.36 5.38680
1158.49 5.01365
1158.63 4.81632
1158.76 4.69907
1159.03 4.57131
1159.30 4.50545
1159.56 4.46588
1160.10 4.42014
1161.17 4.37398
1162.25 4.34567
1164.39 4.30259
1166.54 4.26336
1168.68 4.22111
1169.75 4.19668
1170.83 4.16818
1171.90 4.13323
1172.43 4.11264
1172.97 4.09066
1173.51 4.07290
1173.77 4.07316
1174.04 4.09474
1174.31 4.18078
1174.44 4.28931
1174.58 4.50907
1174.71 5.00008
1174.78 5.48046
1174.85 6.30554
1174.91 7.85018
1174.95 9.17881
1174.98 11.1196
1175.01 14.2776
1175.05 19.3841
1175.08 28.6789
1175.11 45.0704
1175.13 58.4225
1175.15 73.2845
1175.18 94.0101
1175.22 78.5822
1175.25 52.7069
1175.29 35.7472
1175.32 25.9799
1175.35 19.8770
1175.38 16.1142
1175.45 11.7563
1175.51 9.48171
1175.58 8.14462
1175.64 7.28868
1175.77 6.29256
1175.90 5.74101
1176.03 5.40142
1176.29 5.01534
1176.55 4.80491
1176.81 4.67497
1177.33 4.52320
1177.85 4.43683
1178.36 4.38040
1179.40 4.30841
1180.44 4.26158
1181.48 4.22623
1183.55 4.17104
1185.62 4.12468
1187.70 4.08256
1188.74 4.06423
1189.77 4.05368
1190.29 4.05916
1190.81 4.09400
1191.07 4.14897
1191.33 4.29695
1191.46 4.47927
1191.59 4.89108
1191.65 5.32503
1191.72 6.14570
1191.75 6.86193
1191.78 7.91566
1191.81 9.55536
1191.85 12.1192
1191.89 17.0671
1191.93 20.2625
1191.97 16.9420
1192.01 12.1182
1192.06 8.90284
1192.10 7.13847
1192.14 6.13717
1192.18 5.54286
1192.27 4.89052
1192.35 4.56830
1192.52 4.27362
1192.69 4.14773
1193.04 4.04031
1193.38 3.99330
1194.06 3.94536
1194.74 3.91476
1196.10 3.86354
1197.46 3.81168
1198.83 3.75380
1199.51 3.72182
1200.19 3.68854
1200.87 3.65853
1201.21 3.65071
1201.55 3.65931
1201.89 3.71686
1202.07 3.79521
1202.24 3.95605
1202.41 4.32079
1202.49 4.67678
1202.58 5.28826
1202.66 6.43320
1202.70 7.41490
1202.75 8.85951
1202.79 11.1988
1202.83 15.0165
1202.87 21.9489
1202.92 34.3145
1202.94 43.9669
1202.96 54.7761
1203.00 70.1570
1203.05 58.9275
1203.09 39.4873
1203.12 29.9807
1203.15 23.5960
1203.20 15.9968
1203.26 12.0051
1203.31 9.69893
1203.37 8.23468
1203.43 7.27828
1203.54 6.11660
1203.65 5.45479
1203.76 5.04426
1203.99 4.56898
1204.21 4.30633
1204.44 4.14197
1204.89 3.94411
1205.34 3.82454
1205.78 3.73969
1206.68 3.61402
1208.48 3.41254
1210.28 3.20315
1211.18 3.08430
1212.07 2.95453
1212.97 2.81948
1213.87 2.70815
1214.32 2.69034
1214.77 2.74161
1215.22 2.94857
1215.67 3.53167
1215.89 4.13345
1216.12 5.15361
1216.34 6.95733
1216.45 8.36892
1216.57 10.3437
1216.68 13.2123
1216.79 17.4463
1216.90 24.0163
1217.02 34.7896
1217.13 54.0157
1217.18 69.2947
1217.24 91.1689
1217.30 123.541
1217.35 173.174
1217.41 251.688
1217.46 376.828
1217.54 630.236
1217.61 824.512
1217.69 689.138
1217.76 449.503
1217.82 307.564
1217.89 219.781
1217.95 163.982
1218.01 127.180
1218.13 83.8726
1218.26 60.5341
1218.38 46.5488
1218.51 37.4862
1218.75 26.7724
1219.00 20.8541
1219.25 17.2007
1219.50 14.7663
1219.75 13.0533
1220.24 10.8600
1220.74 9.65925
1220.99 9.39380
1221.11 9.39913
1221.23 9.57928
1221.36 10.1152
1221.42 10.6546
1221.48 11.5520
1221.54 13.1229
1221.61 16.1006
1221.64 18.6243
1221.67 22.3959
1221.70 28.1777
1221.73 37.0445
1221.77 54.5005
1221.81 66.0848
1221.86 54.4220
1221.90 36.8775
1221.93 27.7114
1221.96 21.9406
1221.99 18.0508
1222.02 15.5193
1222.09 12.4322
1222.15 10.7655
1222.21 9.73653
1222.28 9.06257
1222.40 8.25176
1222.53 7.77594
1222.65 7.46274
1222.90 7.05632
1223.15 6.78612
1223.40 6.58221
1223.90 6.27649
1224.91 5.85753
1225.91 5.56512
1227.92 5.16088
1229.92 4.87668
1231.93 4.64562
1233.93 4.42922
1234.93 4.31588
1235.44 4.25726
1235.94 4.20115
1236.44 4.16365
1236.69 4.17093
1236.94 4.23067
1237.19 4.43763
1237.32 4.68166
1237.44 5.15344
1237.57 6.16497
1237.63 7.11590
1237.69 8.65704
1237.76 11.4302
1237.82 16.7427
1237.85 21.5325
1237.88 28.6615
1237.91 39.8743
1237.94 57.6083
1237.98 94.2233
1238.03 121.364
1238.07 102.000
1238.11 68.4572
1238.14 51.1706
1238.17 39.6534
1238.19 31.4589
1238.22 25.9200
1238.28 18.8485
1238.34 14.8116
1238.39 12.3019
1238.45 10.6345
1238.56 8.62902
1238.68 7.48343
1238.79 6.77029
1239.02 5.93816
1239.25 5.47686
1239.47 5.18780
1239.93 4.84147
1240.38 4.63493
1240.84 4.49190
1241.74 4.29001
1243.56 4.00081
1245.38 3.73717
1246.29 3.59830
1247.20 3.45316
1248.11 3.30961
1249.02 3.20194
1249.47 3.19475
1249.92 3.26721
1250.38 3.51431
1250.83 4.17101
1251.06 4.83317
1251.29 5.93256
1251.52 7.84244
1251.63 9.33244
1251.74 11.3801
1251.86 14.3197
1251.97 18.5996
1252.08 25.2028
1252.20 35.7321
1252.31 53.9896
1252.37 68.2569
1252.42 87.8335
1252.48 116.437
1252.54 158.776
1252.59 222.852
1252.65 317.827
1252.74 533.115
1252.82 696.025
1252.90 582.009
1252.99 381.920
1253.06 266.127
1253.13 191.998
1253.20 144.331
1253.26 112.621
1253.40 74.9869
1253.54 54.5373
1253.68 42.2144
1253.82 34.1954
1254.09 24.6954
1254.37 19.3927
1254.64 16.1099
1254.92 13.8967
1255.19 12.3279
1255.74 10.2572
1256.30 8.96007
1256.85 8.06651
1257.40 7.40316
1258.50 6.43206
1259.05 6.03005
1259.60 5.63844
1260.15 5.23013
1260.43 5.01888
1260.70 4.82683
1260.98 4.75301
1261.12 4.87609
1261.26 5.31319
1261.39 6.62078
1261.46 8.09553
1261.53 10.8713
1261.57 13.2214
1261.60 16.5811
1261.64 21.8703
1261.67 30.1013
1261.69 36.4994
1261.70 44.5473
1261.72 55.3965
1261.74 70.3414
1261.76 91.4065
1261.77 121.770
1261.79 166.269
1261.81 231.366
1261.83 390.868
1261.86 516.167
1261.88 498.625
1261.89 434.934
1261.92 287.011
1261.95 187.238
1261.97 129.352
1262.00 94.9463
1262.03 73.9395
1262.06 59.3719
1262.08 49.5490
1262.14 36.7795
1262.20 29.1239
1262.25 24.2958
1262.36 18.5825
1262.47 15.3791
1262.58 13.3989
1262.80 11.0967
1263.02 9.81279
1263.24 9.00502
1263.68 8.03837
1264.12 7.47644
1264.57 7.10386
1265.45 6.62936
1266.33 6.32974
1267.21 6.11736
1268.98 5.82543
1272.51 5.47611
1276.03 5.25540
1279.56 5.08799
1283.09 4.93848
1284.86 4.85991
1285.74 4.81723
1286.62 4.77172
1287.50 4.72673
1287.95 4.71043
1288.39 4.71147
1288.61 4.72838
1288.83 4.76921
1289.05 4.85838
1289.27 5.05163
1289.49 5.50703
1289.60 5.96247
1289.71 6.75691
1289.82 8.28577
1289.88 9.58447
1289.93 11.5577
1289.99 14.7040
1290.04 20.0151
1290.10 29.5362
1290.15 47.1803
1290.21 76.1486
1290.26 98.4419
1290.32 83.2551
1290.37 56.0484
1290.41 42.9709
1290.44 34.0023
1290.51 23.0606
1290.58 17.2681
1290.65 13.9024
1290.73 11.7858
1290.80 10.3685
1290.94 8.65001
1291.08 7.66536
1291.22 7.05038
1291.50 6.33475
1291.79 5.94118
1292.07 5.69729
1292.35 5.53182
1292.64 5.41227
1293.20 5.25014
1293.77 5.14411
1294.90 5.00824
1296.03 4.91826
1297.17 4.84841
1299.43 4.73082
1301.70 4.61213
1302.83 4.54288
1303.96 4.46048
1304.53 4.41230
1305.10 4.35893
1305.66 4.30163
1306.23 4.24852
1306.51 4.23224
1306.79 4.23650
1307.08 4.28861
1307.36 4.45889
1307.50 4.64288
1307.64 4.95814
1307.79 5.52621
1307.93 6.59847
1308.07 8.86124
1308.14 10.9659
1308.21 14.3542
1308.28 20.3723
1308.32 25.2388
1308.35 31.9699
1308.39 42.1347
1308.42 57.1006
1308.46 80.2396
1308.49 116.123
1308.52 151.721
1308.54 191.958
1308.59 250.208
1308.62 241.058
1308.64 211.053
1308.69 140.066
1308.72 107.613
1308.75 84.8600
1308.81 56.4105
1308.86 40.4804
1308.92 31.1569
1308.98 25.0910
1309.04 21.0539
1309.16 16.0317
1309.27 13.1550
1309.39 11.3395
1309.62 9.24131
1309.86 8.08884
1310.09 7.37771
1310.33 6.90095
1310.56 6.56285
1311.03 6.11472
1311.49 5.83464
1311.96 5.64312
1312.43 5.50378
1313.36 5.31354
1314.30 5.18845
1315.23 5.09848
1316.17 5.02957
1318.04 4.92763
1319.91 4.85225
1323.64 4.73644
1327.38 4.63432
1329.25 4.57960
1331.12 4.51607
1332.99 4.43422
1333.93 4.38075
1334.86 4.31340
1335.33 4.27248
1335.79 4.22593
1336.26 4.17422
1336.73 4.12299
1336.96 4.10416
1337.20 4.10067
1337.43 4.13476
1337.66 4.26366
1337.78 4.40880
1337.90 4.66466
1338.01 5.13050
1338.13 6.02009
1338.25 7.92525
1338.31 9.73568
1338.36 12.6806
1338.42 18.0187
1338.45 22.2489
1338.48 28.3165
1338.51 37.3099
1338.54 51.1136
1338.57 72.9623
1338.60 107.789
1338.62 141.710
1338.64 179.771
1338.67 233.576
1338.69 224.522
1338.71 195.767
1338.75 130.145
1338.78 97.2984
1338.80 75.2240
1338.85 48.7795
1338.90 34.7811
1338.95 26.6423
1339.00 21.5200
1339.05 18.0879
1339.15 13.9016
1339.25 11.5045
1339.35 10.0161
1339.55 8.29422
1339.75 7.35054
1339.95 6.77115
1340.15 6.38208
1340.35 6.10473
1340.76 5.73745
1341.16 5.50767
1341.56 5.35007
1341.96 5.23570
1342.76 5.07959
1343.56 4.97719
1345.16 4.84823
1346.76 4.76806
1348.36 4.71527
1349.17 4.70072
1349.97 4.70759
1350.37 4.73683
1350.77 4.83207
1350.97 4.96133
1351.07 5.08164
1351.17 5.28300
1351.27 5.65445
1351.32 5.96840
1351.37 6.44589
1351.42 7.21640
1351.47 8.55460
1351.52 11.0831
1351.54 13.1792
1351.57 16.1384
1351.61 23.1058
1351.65 27.5884
1351.69 22.9280
1351.73 16.1351
1351.78 11.2917
1351.83 8.80778
1351.87 7.43752
1351.92 6.62501
1351.97 6.10151
1352.01 5.76023
1352.10 5.34807
1352.20 5.11700
1352.29 4.97732
1352.47 4.82143
1352.84 4.69114
1353.21 4.63617
1353.95 4.58439
1354.69 4.55535
1356.17 4.51425
1357.64 4.47981
1359.12 4.44790
1360.59 4.42070
1361.33 4.41413
1362.07 4.42870
1362.44 4.46423
1362.81 4.57410
1362.99 4.72031
1363.09 4.85498
1363.18 5.07822
1363.27 5.49039
1363.32 5.83153
1363.36 6.34351
1363.41 7.15460
1363.46 8.52646
1363.50 11.0194
1363.55 15.7446
1363.59 22.6510
1363.63 27.0958
1363.67 22.4780
1363.71 15.7450
1363.75 12.0635
1363.78 9.73672
1363.81 8.25686
1363.84 7.30781
1363.91 6.17275
1363.97 5.56785
1364.04 5.21111
1364.10 4.98398
1364.23 4.72207
1364.37 4.58101
1364.50 4.49666
1364.76 4.40175
1365.28 4.31497
1365.80 4.26791
1366.84 4.19729
1367.88 4.12446
1368.40 4.08189
1368.92 4.03304
1369.44 3.97656
1369.96 3.91354
1370.22 3.88235
1370.48 3.85743
1370.74 3.85202
1371.00 3.90319
1371.13 3.98074
1371.26 4.13169
1371.39 4.42729
1371.52 5.03260
1371.65 6.39270
1371.72 7.72377
1371.78 10.0035
1371.85 14.2425
1371.88 17.8598
1371.91 23.0906
1371.95 31.4985
1371.96 37.3204
1371.98 44.8271
1372.00 55.3269
1372.01 68.4564
1372.03 85.8256
1372.04 108.616
1372.06 141.615
1372.08 180.462
1372.12 233.597
1372.13 225.187
1372.15 196.121
1372.19 130.809
1372.22 91.2817
1372.25 66.2417
1372.28 50.2979
1372.31 39.7724
1372.37 27.3738
1372.43 20.6819
1372.49 16.6650
1372.55 14.0570
1372.67 10.9835
1372.79 9.26013
1372.91 8.19165
1373.03 7.47551
1373.14 6.97090
1373.38 6.30362
1373.62 5.89229
1373.86 5.61456
1374.10 5.41518
1374.58 5.14809
1375.06 4.97737
1375.54 4.85800
1376.02 4.76915
1376.97 4.64269
1377.93 4.55412
1379.85 4.42870
1381.76 4.33362
1383.68 4.25154
1384.63 4.21560
1385.59 4.19204
1386.07 4.19727
1386.55 4.24912
1386.79 4.33429
1386.91 4.41891
1387.03 4.56455
1387.15 4.84629
1387.21 5.09297
1387.27 5.47244
1387.33 6.11973
1387.39 7.31417
1387.42 8.31153
1387.45 9.78749
1387.48 12.0268
1387.51 15.2854
1387.55 22.0716
1387.59 26.4388
1387.63 21.8998
1387.67 15.2822
1387.72 10.4919
1387.77 8.06602
1387.81 6.74023
1387.86 5.95877
1387.91 5.45727
1387.96 5.13077
1388.05 4.73652
1388.15 4.51478
1388.24 4.37969
1388.43 4.22618
1388.80 4.08964
1389.18 4.02300
1389.94 3.94118
1390.69 3.87575
1392.20 3.74221
1393.71 3.57998
1395.21 3.36498
1395.97 3.22844
1396.72 3.06912
1397.48 2.90191
1397.85 2.84295
1398.23 2.86276
1398.61 3.14838
1398.80 3.57749
1398.98 4.50240
1399.08 5.35479
1399.17 6.68253
1399.22 7.63134
1399.27 8.86218
1399.31 10.4847
1399.36 12.6644
1399.41 15.7347
1399.46 19.9947
1399.50 26.2107
1399.55 35.6461
1399.60 50.6680
1399.64 75.9638
1399.67 95.6374
1399.69 121.143
1399.72 157.423
1399.74 204.459
1399.79 344.197
1399.83 449.483
1399.86 433.200
1399.88 376.501
1399.93 248.493
1399.96 184.653
1399.99 141.425
1400.05 89.1597
1400.12 61.8001
1400.18 46.2080
1400.24 36.2557
1400.30 29.7053
1400.43 21.6531
1400.56 17.0595
1400.68 14.2080
1400.93 10.9310
1401.18 9.17274
1401.43 8.14455
1401.93 7.21112
1402.43 7.41707
1402.68 8.15284
1402.93 9.74828
1403.19 13.2204
1403.31 16.4112
1403.44 21.5356
1403.56 30.3458
1403.69 46.4215
1403.75 59.7463
1403.81 78.7367
1403.87 107.185
1403.94 148.361
1404.04 246.586
1404.14 322.705
1404.24 271.894
1404.34 179.864
1404.42 128.102
1404.49 94.3820
1404.57 72.3746
1404.65 57.7170
1404.81 39.9245
1404.97 30.1075
1405.12 24.1257
1405.28 20.1987
1405.59 15.4860
1405.91 12.8279
1406.22 11.1651
1406.85 9.22782
1407.48 8.14985
1408.11 7.47062
1409.36 6.66367
1410.62 6.19935
1411.88 5.89633
1414.39 5.51994
1416.90 5.29116
1419.42 5.13487
1421.93 5.02299
1423.19 4.98429
1423.81 4.97363
1424.44 4.98404
1424.53 4.99399
1424.61 4.98948
1425.07 5.01986
1425.30 5.06335
1425.52 5.14546
1425.75 5.31855
1425.87 5.48150
1425.98 5.75728
1426.10 6.28088
1426.15 6.72881
1426.21 7.42283
1426.27 8.57237
1426.32 10.6472
1426.35 12.3792
1426.38 14.8064
1426.41 18.5370
1426.44 23.8680
1426.48 35.3085
1426.52 42.9497
1426.56 35.3139
1426.61 23.8729
1426.65 16.2942
1426.69 12.1664
1426.74 9.83701
1426.78 8.43425
1426.83 7.53639
1426.87 6.93135
1426.96 6.19618
1427.05 5.78535
1427.13 5.53315
1427.31 5.25314
1427.48 5.10676
1427.66 5.02016
1428.01 4.92479
1428.71 4.84021
1429.42 4.79726
1430.82 4.74255
1432.23 4.70029
1435.04 4.62500
1437.85 4.55005
1440.66 4.46562
1442.07 4.41514
1443.47 4.35427
1444.88 4.27527
1445.58 4.22489
1446.28 4.16444
1446.98 4.09470
1447.34 4.06243
1447.69 4.04825
1447.86 4.06122
1448.04 4.10630
1448.21 4.21880
1448.39 4.48290
1448.57 5.14620
1448.65 5.84146
1448.74 7.07856
1448.83 9.55003
1448.87 11.7407
1448.92 15.1808
1448.96 20.9043
1449.00 31.1325
1449.03 39.3332
1449.05 50.9640
1449.07 67.6776
1449.09 90.2891
1449.11 117.453
1449.13 149.444
1449.17 193.318
1449.19 186.396
1449.20 162.454
1449.24 108.570
1449.28 71.1004
1449.32 49.4625
1449.36 36.6780
1449.39 28.6855
1449.43 23.4034
1449.47 19.7418
1449.54 15.1762
1449.62 12.4645
1449.70 10.7532
1449.85 8.73263
1450.00 7.62106
1450.15 6.93337
1450.30 6.47217
1450.45 6.14416
1450.75 5.71121
1451.06 5.44195
1451.36 5.25831
1451.66 5.12491
1452.26 4.94260
1452.87 4.82223
1454.08 4.66608
1455.29 4.56067
1456.49 4.47662
1458.91 4.32712
1460.12 4.24880
1461.33 4.16064
1462.54 4.05542
1463.75 3.92289
1464.35 3.84178
1464.96 3.74854
1465.56 3.64294
1466.16 3.53441
1466.47 3.49055
1466.77 3.47343
1467.07 3.52381
1467.37 3.74973
1467.52 4.01262
1467.68 4.48295
1467.83 5.34827
1467.98 7.03377
1468.13 10.6471
1468.20 14.0877
1468.28 19.7238
1468.32 24.0379
1468.36 29.9336
1468.39 38.2055
1468.43 49.7911
1468.47 67.5054
1468.51 94.9977
1468.54 139.095
1468.58 208.060
1468.63 348.468
1468.68 457.419
1468.73 384.981
1468.78 253.542
1468.82 168.862
1468.87 118.071
1468.92 87.1216
1468.96 67.3340
1469.05 44.7170
1469.15 32.8312
1469.24 25.8052
1469.33 21.2859
1469.51 15.9670
1469.70 13.0305
1469.88 11.2116
1470.07 9.99215
1470.25 9.12595
1470.62 7.98941
1470.99 7.28477
1471.35 6.80893
1471.72 6.46750
1472.46 6.01191
1473.19 5.72232
1473.93 5.52182
1474.66 5.37454
1476.14 5.17080
1477.61 5.03500
1480.55 4.86057
1483.50 4.74833
1486.44 4.66673
1489.38 4.60726
1490.12 4.59953
1490.85 4.60495
1491.22 4.62426
1491.59 4.68643
1491.77 4.76959
1491.96 4.97493
1492.05 5.20879
1492.14 5.69772
1492.19 6.16361
1492.23 6.95334
1492.28 8.39224
1492.32 11.0462
1492.37 15.0007
1492.41 17.5542
1492.45 14.9001
1492.49 11.0448
1492.53 8.65455
1492.57 7.29570
1492.61 6.48057
1492.64 5.96734
1492.72 5.38844
1492.80 5.09873
1492.95 4.82748
1493.10 4.71007
1493.41 4.61033
1493.71 4.56826
1494.32 4.52956
1494.93 4.50881
1497.37 4.45820
1502.26 4.37878
1504.70 4.34064
1507.14 4.30365
1508.36 4.28774
1509.58 4.28095
1510.19 4.29063
1510.80 4.33662
1511.11 4.40644
1511.26 4.47550
1511.41 4.59554
1511.57 4.83227
1511.64 5.04323
1511.72 5.38325
1511.80 5.98958
1511.87 7.17297
1511.91 8.23229
1511.95 9.91398
1511.99 12.7132
1512.02 17.4615
1512.07 25.4920
1512.11 30.8783
1512.15 25.4944
1512.19 17.4631
1512.24 12.1660
1512.28 9.33666
1512.32 7.72352
1512.37 6.74434
1512.41 6.10198
1512.45 5.67877
1512.54 5.16144
1512.63 4.86795
1512.71 4.68949
1512.88 4.48943
1513.23 4.32226
1513.57 4.25253
1514.26 4.18798
1514.95 4.15150
1516.34 4.09433
1517.72 4.03389
1519.10 3.95650
1519.79 3.90671
1520.48 3.84673
1521.17 3.77823
1521.51 3.74818
1521.86 3.74000
1522.03 3.75935
1522.20 3.81514
1522.38 3.94765
1522.55 4.25067
1522.72 4.99915
1522.81 5.77020
1522.89 7.14789
1522.98 9.88708
1523.02 12.2707
1523.07 15.9778
1523.11 22.0686
1523.13 26.7482
1523.15 32.7712
1523.17 41.4536
1523.20 53.0537
1523.22 70.2842
1523.24 93.4724
1523.26 122.908
1523.28 155.990
1523.32 202.877
1523.34 195.009
1523.35 169.973
1523.39 112.917
1523.42 80.0088
1523.45 58.8002
1523.49 45.0817
1523.52 35.9125
1523.58 24.9752
1523.64 19.0014
1523.70 15.3886
1523.76 13.0313
1523.89 10.2240
1524.01 8.66040
1524.14 7.68823
1524.26 7.03556
1524.38 6.57514
1524.63 5.96613
1524.88 5.58946
1525.13 5.33567
1525.37 5.15450
1525.87 4.91191
1526.37 4.75784
1526.86 4.65070
1527.36 4.57135
1528.35 4.46006
1529.34 4.38398
1531.32 4.28141
1533.30 4.21100
1535.28 4.16008
1536.27 4.14519
1537.26 4.15303
1537.76 4.18583
1538.00 4.22366
1538.25 4.29490
1538.50 4.44558
1538.62 4.58900
1538.75 4.83134
1538.87 5.29466
1538.93 5.69852
1538.99 6.33247
1539.06 7.40209
1539.12 9.38666
1539.15 11.0547
1539.18 13.5398
1539.21 17.3440
1539.24 22.9460
1539.28 34.2976
1539.33 41.8710
1539.37 34.3046
1539.41 22.9533
1539.44 17.9721
1539.46 14.5956
1539.51 10.5024
1539.56 8.32100
1539.61 7.05753
1539.66 6.27045
1539.71 5.75034
1539.81 5.13046
1539.91 4.79036
1540.01 4.58400
1540.21 4.35624
1540.41 4.23841
1540.61 4.16916
1541.01 4.09220
1541.81 4.02191
1542.61 3.98378
1544.21 3.93033
1545.82 3.88455
1549.02 3.79506
1550.62 3.75479
1551.42 3.76030
1551.62 3.78241
1551.82 3.84581
1551.92 3.92272
1552.02 4.08994
1552.12 4.54112
1552.17 5.08581
1552.22 6.18156
1552.26 7.70421
1552.30 8.69118
1552.35 7.66468
1552.39 6.17845
1552.44 5.06393
1552.49 4.51519
1552.59 4.06164
1552.69 3.89067
1552.79 3.80922
1553.00 3.73331
1553.20 3.69804
1554.01 3.63711
1555.64 3.56237
1557.27 3.48496
1558.90 3.39464
1560.53 3.28283
1561.34 3.21475
1562.15 3.13585
1562.97 3.04764
1563.38 3.00652
1563.78 2.98456
1563.99 2.99457
1564.19 3.03766
1564.39 3.15075
1564.60 3.42150
1564.80 4.10903
1564.90 4.83580
1565.00 6.14292
1565.11 8.78675
1565.16 11.1640
1565.21 14.8594
1565.26 21.2279
1565.28 26.2535
1565.31 32.9488
1565.33 42.8528
1565.36 56.7251
1565.38 77.1634
1565.41 107.217
1565.43 139.771
1565.45 178.073
1565.49 230.313
1565.51 221.506
1565.53 192.275
1565.57 127.041
1565.60 88.2866
1565.63 64.3236
1565.67 48.4748
1565.70 38.2839
1565.76 26.0031
1565.83 19.3564
1565.89 15.3638
1565.96 12.7723
1566.09 9.70352
1566.22 8.00419
1566.35 6.95166
1566.48 6.24659
1566.61 5.74944
1566.87 5.09124
1567.13 4.68298
1567.64 4.20113
1568.16 3.92190
1568.68 3.73352
1569.72 3.47829
1570.76 3.29264
1571.80 3.13289
1573.87 2.82484
1574.91 2.65953
1575.95 2.48043
1576.99 2.28908
1578.02 2.10664
1578.54 2.04314
1579.06 2.03680
1579.58 2.16637
1580.10 2.63569
1580.36 3.15560
1580.62 4.06020
1580.88 5.70016
1581.01 7.00607
1581.14 8.83182
1581.27 11.4927
1581.40 15.4750
1581.53 21.6916
1581.66 31.8399
1581.79 49.9213
1581.85 64.4149
1581.92 85.1874
1581.98 115.951
1582.05 163.127
1582.11 237.716
1582.18 354.197
1582.26 596.929
1582.35 783.343
1582.44 657.108
1582.52 431.256
1582.58 318.084
1582.64 240.976
1582.70 186.896
1582.76 149.553
1582.87 102.220
1582.99 75.2824
1583.11 58.3237
1583.22 47.1261
1583.46 33.4760
1583.69 25.7335
1583.92 20.9073
1584.39 15.3366
1584.86 12.2908
1585.32 10.4099
1585.79 9.14126
1586.25 8.23079
1587.19 7.00913
1588.12 6.22044
1589.98 5.21899
1591.85 4.53584
1592.78 4.23617
1593.71 3.94394
1594.65 3.66577
1595.11 3.55879
1595.58 3.53671
1595.81 3.60593
1596.05 3.79283
1596.28 4.21467
1596.51 5.14641
1596.75 7.33358
1596.86 9.52741
1596.92 11.1376
1596.98 13.2851
1597.04 16.2682
1597.10 20.3714
1597.15 26.2671
1597.21 35.0363
1597.27 48.9164
1597.33 71.1522
1597.39 108.933
1597.44 174.382
1597.51 293.639
1597.58 387.334
1597.61 374.670
1597.64 327.446
1597.71 216.727
1597.75 166.520
1597.79 130.932
1597.87 85.9483
1597.95 61.1800
1598.02 46.4002
1598.10 36.9295
1598.18 30.4994
1598.34 22.5861
1598.50 17.9901
1598.65 15.0881
1598.97 11.6781
1599.28 9.78889
1599.60 8.60545
1599.91 7.79928
1600.23 7.21561
1600.86 6.42484
1601.49 5.90870
1602.75 5.25688
1604.01 4.84006
1605.27 4.53187
1607.79 4.06832
1610.31 3.72640
1611.57 3.62595
1612.83 3.65538
1614.09 4.05738
1614.72 4.62756
1615.35 5.80904
1615.98 8.43259
1616.30 10.9463
1616.61 15.1444
1616.93 22.6619
1617.24 37.4562
1617.40 50.4808
1617.56 70.3903
1617.71 102.168
1617.87 152.572
1618.08 256.380
1618.29 337.635
1618.50 285.341
1618.71 188.918
1618.91 124.826
1619.12 87.0581
1619.32 64.2404
1619.52 49.7287
1619.93 33.1986
1620.34 24.5137
1620.74 19.3518
1621.15 16.0202
1621.96 12.0445
1622.77 9.78366
1623.59 8.32624
1625.21 6.50164
1626.83 5.31983
1627.65 4.86739
1628.46 4.55009
1628.87 4.49902
1629.27 4.60499
1629.68 5.03045
1630.08 6.17319
1630.29 7.30444
1630.49 9.16017
1630.69 12.3195
1630.90 18.0168
1631.00 22.6381
1631.10 29.2116
1631.20 39.0832
1631.30 54.2419
1631.40 79.2700
1631.50 122.419
1631.61 203.839
1631.66 270.340
1631.71 361.058
1631.80 607.280
1631.90 799.616
1631.99 675.517
1632.08 446.169
1632.17 295.192
1632.26 205.970
1632.35 151.618
1632.44 116.858
1632.62 77.0909
1632.80 56.1507
1632.98 43.6881
1633.15 35.7039
1633.51 26.2642
1633.87 21.0054
1634.22 17.7350
1634.58 15.5244
1634.93 13.9406
1635.65 11.8320
1636.36 10.4996
1637.07 9.57798
1637.78 8.90117
1639.21 7.96098
1640.63 7.32457
1643.48 6.46710
1646.33 5.83240
1647.76 5.53005
1649.18 5.20437
1650.61 4.82107
1651.32 4.59504
1652.03 4.34730
1652.39 4.22423
1652.75 4.12146
1653.10 4.08247
1653.46 4.22862
1653.64 4.47014
1653.82 4.94899
1653.99 5.89014
1654.17 7.80574
1654.26 9.48170
1654.35 12.0375
1654.44 16.0933
1654.53 22.8766
1654.57 28.0889
1654.62 35.0475
1654.66 45.0141
1654.71 59.0501
1654.75 80.4179
1654.80 112.575
1654.84 164.771
1654.88 246.202
1654.94 417.132
1655.00 548.829
1655.06 464.238
1655.12 309.494
1655.17 220.789
1655.22 163.614
1655.26 125.115
1655.31 99.5684
1655.40 68.2193
1655.49 50.8187
1655.59 40.1700
1655.68 33.1570
1655.87 24.7165
1656.05 19.9585
1656.24 16.9713
1656.42 14.9490
1656.61 13.5018
1656.98 11.5871
1657.35 10.3887
1657.73 9.57269
1658.10 8.98407
1658.84 8.18775
1659.58 7.67452
1660.33 7.31327
1661.07 7.04414
1662.56 6.66623
1664.05 6.41744
1664.79 6.33318
1665.53 6.29810
1665.90 6.33174
1666.09 6.38413
1666.28 6.49080
1666.46 6.72097
1666.56 6.93862
1666.65 7.30330
1666.74 7.97213
1666.79 8.53946
1666.83 9.37464
1666.88 10.7306
1666.93 12.9798
1666.97 17.0492
1667.02 24.7188
1667.06 35.9098
1667.10 43.3636
1667.15 35.9053
1667.19 24.7073
1667.22 18.8778
1667.25 15.1251
1667.28 12.6994
1667.31 11.1253
1667.38 9.21627
1667.44 8.18515
1667.50 7.56368
1667.57 7.17264
1667.69 6.71757
1667.82 6.46977
1667.95 6.32023
1668.20 6.14968
1668.71 5.99314
1669.21 5.91151
1670.22 5.80782
1671.23 5.73103
1673.26 5.60681
1675.28 5.50286
1679.32 5.32854
1683.37 5.18111
1687.41 5.04943
1691.46 4.92782
1693.48 4.87069
1695.50 4.81972
1696.52 4.80192
1697.53 4.80536
1698.03 4.83511
1698.54 4.93958
1698.79 5.08618
1698.92 5.22707
1699.04 5.46643
1699.17 5.92678
1699.23 6.32643
1699.30 6.95457
1699.36 8.01627
1699.42 9.99173
1699.46 11.6893
1699.49 14.1471
1699.52 18.0520
1699.55 23.8834
1699.59 35.3677
1699.63 43.0097
1699.68 35.3657
1699.72 23.8791
1699.76 16.5021
1699.80 12.4395
1699.84 10.0680
1699.88 8.60459
1699.92 7.65113
1699.96 7.00016
1700.05 6.19864
1700.13 5.74503
1700.21 5.46431
1700.37 5.14935
1700.54 4.98445
1700.70 4.88758
1701.03 4.78118
1701.69 4.68942
1702.34 4.64673
1703.00 4.62379
1703.66 4.62534
1703.99 4.65202
1704.32 4.74436
1704.48 4.87119
1704.64 5.19127
1704.73 5.56405
1704.81 6.36589
1704.85 7.15445
1704.89 8.53955
1704.93 11.2018
1704.95 13.5116
1704.97 16.6594
1705.00 23.9809
1705.04 28.8818
1705.07 23.9960
1705.10 16.6766
1705.14 11.4934
1705.18 8.88186
1705.22 7.45058
1705.25 6.60529
1705.33 5.71485
1705.40 5.28534
1705.55 4.89945
1705.70 4.73736
1705.99 4.60088
1706.29 4.54220
1706.89 4.48467
1707.48 4.45018
1709.85 4.35009
1714.60 4.15517
1719.35 3.92321
1724.10 3.62496
1726.48 3.43723
1728.85 3.21238
1731.23 2.93866
1733.60 2.60503
1734.79 2.41728
1735.98 2.22753
1737.17 2.07002
1738.35 2.05303
1738.95 2.19024
1739.54 2.55228
1740.14 3.37505
1740.43 4.11077
1740.73 5.21738
1741.03 6.92682
1741.32 9.64014
1741.62 14.1328
1741.92 21.9881
1742.06 28.2374
1742.21 37.0134
1742.36 49.9085
1742.51 69.3271
1742.66 100.368
1742.81 152.002
1742.95 243.226
1743.10 409.060
1743.26 693.450
1743.41 915.513
1743.57 772.897
1743.72 510.364
1743.90 310.719
1744.08 203.900
1744.26 144.241
1744.44 108.314
1744.62 85.1553
1744.79 69.3701
1745.15 49.8298
1745.51 38.5070
1745.87 31.3340
1746.58 22.9435
1747.30 18.3220
1748.01 15.4508
1748.73 13.5147
1749.44 12.1296
1750.87 10.2891
1752.30 9.12611
1753.73 8.32192
1755.16 7.72793
1758.02 6.88785
1760.88 6.27648
1762.31 5.99784
1763.03 5.85364
1763.74 5.69887
1764.46 5.52594
1764.82 5.43142
1765.17 5.33742
1765.53 5.27182
1765.71 5.28398
1765.89 5.38961
1766.07 5.75944
1766.16 6.19990
1766.25 7.03544
1766.34 8.79462
1766.38 10.4070
1766.43 12.9255
1766.47 17.2870
1766.51 25.0333
1766.54 31.6290
1766.56 40.7003
1766.58 53.8306
1766.60 72.7654
1766.62 94.8369
1766.64 121.106
1766.68 158.328
1766.70 153.696
1766.72 134.998
1766.75 91.8711
1766.80 58.0068
1766.84 40.1662
1766.88 29.8978
1766.93 23.8264
1766.97 19.8011
1767.01 17.1094
1767.10 13.7352
1767.19 11.7447
1767.27 10.4846
1767.45 8.98603
1767.62 8.14711
1767.79 7.61675
1768.14 6.98622
1768.48 6.62117
1768.83 6.37861
1769.52 6.06424
1770.22 5.85583
1770.91 5.69730
1772.29 5.44922
1773.68 5.24199
1775.06 5.05223
1775.75 4.96388
1776.44 4.89151
1776.79 4.87731
1777.14 4.92181
1777.31 5.01557
1777.48 5.27541
1777.57 5.58324
1777.66 6.21929
1777.70 6.83359
1777.74 7.83607
1777.79 9.60695
1777.83 12.8353
1777.87 17.7952
1777.91 20.9864
1777.95 17.6573
1777.99 12.8102
1778.03 9.73677
1778.07 8.00722
1778.11 6.97797
1778.15 6.33273
1778.23 5.60539
1778.31 5.23813
1778.47 4.88370
1778.62 4.71760
1778.93 4.54866
1779.25 4.44791
1779.87 4.29533
1780.50 4.15491
1781.75 3.85506
1783.00 3.50463
1783.63 3.30846
1784.26 3.10767
1784.88 2.93070
1785.51 2.87004
1785.82 2.96415
1786.14 3.25155
1786.45 3.93647
1786.61 4.56114
1786.76 5.50415
1786.92 6.97087
1787.08 9.28440
1787.23 13.1297
1787.39 19.7951
1787.47 25.0953
1787.55 32.4456
1787.62 43.0512
1787.70 58.8900
1787.78 83.9206
1787.86 124.296
1787.94 193.115
1788.01 312.681
1788.10 532.005
1788.19 705.793
1788.28 598.633
1788.37 397.280
1788.44 283.389
1788.51 209.450
1788.58 160.576
1788.65 127.327
1788.79 86.6841
1788.92 64.2314
1789.06 50.3572
1789.20 41.2695
1789.48 30.2607
1789.76 24.0393
1790.03 20.1257
1790.31 17.4728
1790.59 15.5735
1791.14 13.0693
1791.69 11.5536
1791.97 11.0661
1792.25 10.8419
1792.39 10.9584
1792.46 11.1525
1792.53 11.5273
1792.59 12.2492
1792.66 13.7234
1792.70 15.0625
1792.73 17.0883
1792.77 20.4473
1792.80 25.7275
1792.84 35.4369
1792.89 41.8984
1792.93 35.3412
1792.97 25.5290
1793.01 19.9178
1793.04 16.5631
1793.08 14.4556
1793.11 13.0756
1793.18 11.4400
1793.25 10.5657
1793.32 10.0203
1793.39 9.65633
1793.53 9.18080
1793.82 8.63567
1794.10 8.27929
1794.38 8.01382
1794.52 7.92532
1794.66 7.90490
1794.80 8.06003
1794.87 8.30191
1794.94 8.78994
1795.01 9.83969
1795.08 12.2498
1795.12 14.7508
1795.16 18.9923
1795.19 26.7846
1795.23 41.5841
1795.24 53.3055
1795.26 66.6035
1795.30 87.2696
1795.33 76.2457
1795.37 53.6883
1795.39 41.2709
1795.42 32.8316
1795.44 27.1215
1795.47 23.2921
1795.52 18.3904
1795.57 15.5743
1795.62 13.7759
1795.67 12.5916
1795.78 11.1224
1795.88 10.2535
1795.98 9.69229
1796.19 8.99769
1796.39 8.57910
1796.60 8.29156
1797.00 7.90592
1797.41 7.64246
1797.82 7.44164
1798.64 7.13766
1800.28 6.71609
1801.92 6.41083
1805.20 5.94857
1808.47 5.55740
1811.75 5.14436
1813.39 4.89666
1815.03 4.59132
1815.85 4.40462
1816.66 4.18600
1817.48 3.92626
1818.30 3.61994
1818.71 3.45400
1819.12 3.29490
1819.53 3.18007
1819.94 3.22180
1820.15 3.39402
1820.35 3.79051
1820.56 4.63256
1820.66 5.35516
1820.76 6.41982
1820.86 8.03847
1820.96 10.5193
1821.07 14.5492
1821.12 17.4634
1821.17 21.3051
1821.22 26.5803
1821.27 33.6982
1821.32 43.7081
1821.37 58.1938
1821.43 79.8459
1821.48 113.344
1821.53 166.762
1821.58 252.530
1821.65 429.971
1821.71 571.158
1821.78 486.117
1821.85 324.144
1821.93 203.390
1822.00 137.467
1822.08 99.1653
1822.15 75.9804
1822.23 60.6186
1822.30 50.1747
1822.45 36.9618
1822.61 29.2327
1822.76 24.2741
1823.06 18.4174
1823.36 15.1464
1823.66 13.0894
1823.96 11.6884
1824.27 10.6842
1824.87 9.38629
1825.17 9.01841
1825.47 8.89211
1825.77 9.24511
1825.93 9.82472
1826.08 11.0085
1826.23 13.5016
1826.30 15.7750
1826.38 19.3121
1826.45 25.2542
1826.53 35.5882
1826.60 55.0255
1826.68 93.1736
1826.75 153.563
1826.82 200.394
1826.89 170.693
1826.96 115.819
1827.01 86.6589
1827.06 67.0813
1827.11 53.6787
1827.15 44.3057
1827.25 32.5785
1827.35 25.8565
1827.45 21.6506
1827.55 18.8337
1827.74 15.3787
1827.94 13.3775
1828.14 12.1012
1828.53 10.5709
1828.92 9.68397
1829.31 9.10300
1830.10 8.37315
1830.88 7.92044
1831.67 7.60473
1833.23 7.17953
1834.80 6.89685
1836.37 6.68949
1839.51 6.39575
1842.65 6.18877
1845.79 6.02820
1852.06 5.77802
1858.34 5.56728
1864.62 5.35233
1867.75 5.22729
1870.89 5.07564
1872.46 4.98403
1874.03 4.87940
1874.81 4.82506
1875.60 4.78325
1875.99 4.78572
1876.38 4.85619
1876.58 4.97695
1876.78 5.30221
1876.87 5.68738
1876.97 6.51260
1877.02 7.31411
1877.07 8.69760
1877.12 11.2835
1877.17 16.3767
1877.21 23.5252
1877.25 28.3116
1877.29 23.5167
1877.34 16.3574
1877.36 13.1265
1877.39 10.8991
1877.44 8.29565
1877.50 6.95905
1877.55 6.20217
1877.66 5.43016
1877.77 5.06606
1877.98 4.72856
1878.20 4.57061
1878.63 4.39801
1879.06 4.27822
1879.92 4.05615
1880.78 3.80884
1881.21 3.67350
1881.64 3.54021
1882.07 3.43627
1882.50 3.44747
1882.72 3.56905
1882.93 3.86473
1883.15 4.51189
1883.36 5.92530
1883.47 7.21848
1883.58 9.24495
1883.69 12.5490
1883.79 18.1674
1883.85 22.5558
1883.90 28.6557
1883.96 37.3697
1884.01 49.9356
1884.06 69.4575
1884.12 100.575
1884.17 152.113
1884.22 236.558
1884.29 402.691
1884.36 535.319
1884.42 454.754
1884.49 302.287
1884.53 231.370
1884.57 180.320
1884.65 118.105
1884.73 83.7349
1884.81 63.5834
1884.90 50.5390
1884.98 41.8006
1885.14 30.9181
1885.30 24.6411
1885.47 20.6503
1885.79 15.9764
1886.12 13.3888
1886.44 11.7731
1886.77 10.6790
1887.10 9.89583
1887.75 8.84929
1888.40 8.18769
1889.05 7.73286
1889.70 7.40154
1891.01 6.94894
1892.31 6.65322
1893.61 6.44271
1894.92 6.28381
1897.52 6.05514
1900.13 5.89298
1905.34 5.66045
1910.56 5.47672
1915.77 5.29629
1918.38 5.19559
1920.99 5.08138
1922.29 5.01993
1923.59 4.96613
1924.25 4.95822
1924.90 5.01131
1925.22 5.11981
1925.39 5.23429
1925.55 5.44134
1925.71 5.85722
1925.79 6.23884
1925.87 6.85426
1925.96 7.96368
1926.04 10.1650
1926.08 12.1975
1926.12 15.3940
1926.16 20.9664
1926.20 30.4102
1926.24 46.0127
1926.28 56.0879
1926.33 45.6214
1926.37 30.3983
1926.40 21.8677
1926.44 16.5734
1926.47 13.2562
1926.51 11.1496
1926.58 8.63593
1926.65 7.33452
1926.72 6.56190
1926.79 6.07945
1926.92 5.52231
1927.06 5.22041
1927.20 5.03657
1927.48 4.82548
1927.76 4.70268
1928.03 4.61674
1928.59 4.48661
1929.70 4.26041
1930.81 4.00586
1931.36 3.85768
1931.92 3.69607
1932.47 3.53278
1933.03 3.41469
1933.31 3.41661
1933.58 3.52286
1933.86 3.85646
1934.14 4.71249
1934.28 5.55693
1934.42 6.94115
1934.55 9.29542
1934.62 11.0720
1934.69 13.4860
1934.76 16.8939
1934.83 21.6889
1934.90 28.7322
1934.97 39.4732
1935.04 56.9274
1935.11 85.9830
1935.18 137.640
1935.25 232.074
1935.32 394.121
1935.39 523.160
1935.46 445.838
1935.53 297.702
1935.61 192.665
1935.68 132.961
1935.76 97.5782
1935.83 75.3631
1935.91 60.4465
1935.98 50.2150
1936.13 37.2286
1936.28 29.5184
1936.43 24.5868
1936.72 18.7445
1937.02 15.4758
1937.32 13.4317
1937.61 12.0484
1937.91 11.0599
1938.50 9.74317
1939.10 8.91656
1939.69 8.35154
1940.28 7.94199
1941.47 7.38875
1942.65 7.03311
1943.84 6.78464
1945.03 6.60121
1947.40 6.34797
1949.77 6.18484
1950.96 6.12967
1952.15 6.10406
1952.74 6.12145
1953.33 6.21462
1953.63 6.35676
1953.78 6.49579
1953.93 6.73782
1954.08 7.21301
1954.15 7.63457
1954.22 8.31104
1954.30 9.48868
1954.37 11.7814
1954.41 13.8075
1954.45 16.9814
1954.48 22.1693
1954.52 30.7687
1954.56 45.8546
1954.60 55.6062
1954.65 45.4896
1954.69 30.7778
1954.72 24.3032
1954.74 19.8954
1954.79 14.5232
1954.84 11.6015
1954.89 9.94439
1954.94 8.89145
1954.99 8.20986
1955.09 7.39413
1955.19 6.94126
1955.29 6.66686
1955.50 6.36540
1955.70 6.20926
1955.90 6.11750
1956.30 6.01564
1957.11 5.92440
1957.91 5.87734
1959.53 5.81807
1961.14 5.77460
1964.36 5.70561
1967.58 5.64939
1970.81 5.60144
1974.03 5.56101
1975.64 5.54545
1977.25 5.53980
1978.06 5.54954
1978.86 5.59343
1979.27 5.65984
1979.47 5.72603
1979.67 5.84281
1979.87 6.07828
1979.97 6.29552
1980.07 6.65272
1980.17 7.31446
1980.22 7.86640
1980.27 8.70157
1980.32 10.0755
1980.37 12.4108
1980.42 16.7863
1980.47 25.4488
1980.52 37.6988
1980.56 45.6632
1980.60 37.4091
1980.64 25.4668
1980.68 18.3749
1980.72 14.1658
1980.76 11.6230
1980.80 10.0142
1980.87 8.20849
1980.95 7.29593
1981.02 6.76432
1981.10 6.43676
1981.25 6.06392
1981.40 5.86853
1981.55 5.75465
1981.85 5.63221
1982.46 5.53386
1983.06 5.49318
1984.27 5.45457
1985.48 5.43212
1987.90 5.39881
1990.32 5.36961
1995.16 5.31219
2000.00 5.24990
2003.72 5.19622
2005.57 5.17489
2006.50 5.19895
2006.73 5.23352
2006.97 5.32664
2007.08 5.43931
2007.20 5.69023
2007.26 5.94565
2007.31 6.41157
2007.37 7.35979
2007.40 8.20466
2007.43 9.47083
2007.47 12.1178
2007.51 13.8289
2007.55 12.0520
2007.60 9.47129
2007.63 8.09912
2007.66 7.22124
2007.72 6.28207
2007.79 5.84099
2007.85 5.60511
2007.98 5.37642
2008.11 5.27304
2008.36 5.18287
2008.62 5.14346
2009.64 5.08194
2011.69 5.01100
2013.73 4.92983
2015.78 4.81958
2016.80 4.74619
2017.82 4.65390
2018.84 4.53355
2019.87 4.37053
2020.38 4.26555
2020.89 4.14010
2021.40 3.99058
2021.91 3.82044
2022.17 3.73655
2022.42 3.67153
2022.68 3.66460
2022.93 3.82391
2023.06 4.05236
2023.19 4.49108
2023.32 5.33443
2023.44 7.00305
2023.51 8.45278
2023.57 10.6418
2023.64 14.0743
2023.70 19.7278
2023.73 23.9562
2023.76 29.6593
2023.80 37.5230
2023.83 48.6386
2023.86 64.7842
2023.89 88.8892
2023.92 125.673
2023.95 179.688
2024.00 305.877
2024.05 404.011
2024.07 392.155
2024.10 343.617
2024.14 230.725
2024.19 156.649
2024.23 112.191
2024.28 83.9129
2024.32 65.9811
2024.41 44.8583
2024.49 33.5639
2024.58 26.7989
2024.67 22.4004
2024.84 17.1806
2025.01 14.2360
2025.19 12.4003
2025.36 11.1496
2025.53 10.2587
2025.88 9.07414
2026.23 8.33149
2026.57 7.82575
2026.92 7.46057
2027.62 6.96971
2028.31 6.65672
2029.00 6.43972
2029.70 6.28037
2031.09 6.06140
2032.48 5.91752
2033.86 5.81494
2035.25 5.73770
2038.03 5.62803
2040.81 5.55480
2042.20 5.52980
2043.58 5.51984
2044.28 5.53141
2044.97 5.58584
2045.32 5.66789
2045.49 5.74910
2045.67 5.89107
2045.84 6.17368
2045.93 6.43069
2046.01 6.84595
2046.10 7.59830
2046.14 8.22674
2046.19 9.13785
2046.23 10.5938
2046.27 12.9491
2046.32 17.0721
2046.36 24.5108
2046.40 35.8543
2046.44 43.3777
2046.49 35.8627
2046.53 24.5204
2046.57 17.3372
2046.61 13.2448
2046.65 10.8557
2046.69 9.41097
2046.73 8.44236
2046.77 7.79579
2046.85 6.98618
2046.94 6.52298
2047.02 6.24051
2047.18 5.92377
2047.34 5.75861
2047.50 5.66236
2047.83 5.55825
2048.48 5.47313
2049.13 5.43611
2050.43 5.39799
2051.73 5.37389
2056.93 5.30517
2062.13 5.24589
2064.73 5.21831
2066.03 5.21440
2066.68 5.24843
2067.00 5.37118
2067.16 5.66327
2067.24 6.13412
2067.29 6.64372
2067.33 7.52091
2067.37 8.95026
2067.41 9.87624
2067.45 8.91420
2067.49 7.52043
2067.56 6.29684
2067.62 5.79322
2067.75 5.43374
2068.01 5.25882
2068.53 5.18989
2069.57 5.15608
2071.64 5.11730
2073.71 5.07602
2075.79 5.02431
2077.86 4.95263
2078.90 4.90364
2079.93 4.84032
2080.97 4.75620
2081.49 4.70544
2082.01 4.65412
2082.53 4.62793
2082.79 4.65535
2083.04 4.76818
2083.30 5.12076
2083.43 5.52807
2083.56 6.29520
2083.69 7.89305
2083.76 9.35025
2083.82 11.6386
2083.89 15.5668
2083.95 22.7337
2084.02 36.9720
2084.05 48.9987
2084.08 66.3975
2084.14 110.840
2084.19 145.646
2084.24 124.062
2084.30 83.9863
2084.35 59.3273
2084.39 43.7967
2084.44 33.9456
2084.49 27.4522
2084.58 19.7983
2084.67 15.6522
2084.77 13.1502
2084.86 11.5163
2085.05 9.57001
2085.24 8.47016
2085.43 7.78070
2085.61 7.31398
2085.80 6.98130
2086.18 6.53792
2086.55 6.26054
2086.93 6.07083
2087.30 5.93386
2088.05 5.74867
2088.80 5.62915
2090.31 5.48274
2091.81 5.39602
2093.31 5.34363
2094.06 5.33333
2094.81 5.35321
2095.19 5.39982
2095.56 5.53986
2095.75 5.72394
2095.94 6.17227
2096.03 6.68379
2096.13 7.75434
2096.17 8.77651
2096.22 10.5137
2096.27 13.6917
2096.31 19.5887
2096.36 28.1966
2096.40 33.9321
2096.44 28.1920
2096.48 19.5812
2096.52 13.9634
2096.57 10.9126
2096.61 9.15143
2096.65 8.07320
2096.73 6.89981
2096.82 6.31748
2096.90 5.98618
2096.99 5.78454
2097.16 5.55840
2097.49 5.37008
2097.83 5.29289
2098.50 5.22475
2099.17 5.19049
2100.52 5.14750
2101.87 5.11495
2103.21 5.08771
2104.56 5.07299
2105.23 5.08380
2105.91 5.14742
2106.24 5.24908
2106.41 5.35080
2106.58 5.53085
2106.75 5.89092
2106.83 6.21616
2106.92 6.74694
2107.00 7.69318
2107.04 8.46650
2107.09 9.60456
2107.13 11.3609
2107.17 14.2257
2107.21 19.1723
2107.25 27.9498
2107.30 41.9422
2107.34 50.9883
2107.38 41.6060
2107.42 27.9602
2107.46 19.9801
2107.50 15.2643
2107.53 12.3417
2107.57 10.4562
2107.64 8.29786
2107.71 7.17484
2107.78 6.52263
2107.86 6.11173
2108.00 5.64249
2108.14 5.39333
2108.29 5.24347
2108.58 5.07462
2109.15 4.91509
2109.73 4.81782
2110.31 4.73039
2110.59 4.68883
2110.88 4.65809
2111.17 4.67495
2111.31 4.74068
2111.46 4.91365
2111.60 5.36533
2111.67 5.84270
2111.75 6.70028
2111.82 8.36977
2111.85 9.81590
2111.89 12.0293
2111.93 15.5780
2111.96 21.5878
2112.00 32.3675
2112.02 40.8368
2112.03 52.3291
2112.05 68.3405
2112.07 86.4792
2112.11 113.985
2112.13 110.506
2112.15 97.5229
2112.18 66.0966
2112.21 47.4068
2112.24 35.7963
2112.27 28.0511
2112.30 23.0483
2112.37 16.9572
2112.43 13.6612
2112.49 11.6175
2112.55 10.2962
2112.67 8.69086
2112.79 7.78491
2112.91 7.21492
2113.15 6.55057
2113.39 6.18208
2113.64 5.95036
2114.12 5.67697
2114.60 5.52126
2115.09 5.42046
2116.06 5.29777
2117.02 5.23058
2117.99 5.21223
2118.48 5.24303
2118.96 5.36992
2119.20 5.55171
2119.32 5.72573
2119.44 6.02292
2119.57 6.58605
2119.63 7.07968
2119.69 7.83768
2119.75 9.12860
2119.81 11.4552
2119.84 13.4563
2119.87 16.3174
2119.90 20.6233
2119.93 27.1048
2119.97 40.5470
2120.01 49.2548
2120.06 40.2445
2120.10 27.1412
2120.14 19.1691
2120.18 14.5808
2120.21 11.8011
2120.25 10.0381
2120.33 8.03541
2120.40 7.02695
2120.48 6.44055
2120.56 6.07919
2120.71 5.66889
2120.86 5.45165
2121.02 5.32263
2121.32 5.18101
2121.93 5.05839
2122.54 4.99921
2123.76 4.92746
2124.98 4.87214
2127.43 4.76506
2129.87 4.64005
2132.31 4.47395
2133.53 4.36393
2134.75 4.22441
2135.97 4.03956
2136.59 3.92291
2137.20 3.78771
2137.81 3.64459
2138.11 3.59072
2138.42 3.59428
2138.72 3.79166
2138.88 4.09632
2139.03 4.75152
2139.18 6.27988
2139.26 7.78276
2139.33 10.3579
2139.41 15.2068
2139.45 19.2020
2139.49 25.1097
2139.52 34.1941
2139.56 48.7885
2139.60 73.2437
2139.64 114.907
2139.68 193.391
2139.73 253.611
2139.75 244.926
2139.77 214.320
2139.82 143.043
2139.86 95.1497
2139.90 66.7170
2139.94 49.5378
2139.99 38.6158
2140.03 31.3046
2140.07 26.1848
2140.16 19.6643
2140.25 15.8052
2140.33 13.3152
2140.50 10.3767
2140.67 8.72000
2140.85 7.68031
2141.19 6.43983
2141.53 5.71275
2141.88 5.21806
2142.56 4.53015
2142.91 4.26164
2143.25 4.03372
2143.59 3.87052
2143.93 3.86571
2144.28 4.34054
2144.45 5.07187
2144.62 6.62457
2144.71 8.01760
2144.79 10.1622
2144.88 13.5844
2144.96 19.2298
2145.01 23.5392
2145.05 29.4011
2145.09 37.5578
2145.14 49.2051
2145.18 66.3200
2145.22 92.2242
2145.26 132.404
2145.31 193.109
2145.37 330.339
2145.43 441.355
2145.49 377.185
2145.55 252.501
2145.61 174.362
2145.66 125.603
2145.72 94.9023
2145.77 75.0655
2145.88 51.2704
2145.99 38.5077
2146.10 30.7230
2146.21 25.6751
2146.43 19.5830
2146.65 16.1432
2146.87 13.9731
2147.09 12.4949
2147.31 11.4301
2147.74 10.0081
2148.18 9.10695
2148.62 8.48651
2149.06 8.03431
2149.93 7.41513
2150.81 7.00917
2151.69 6.71892
2152.56 6.49765
2154.31 6.16724
2156.06 5.89895
2156.94 5.75935
2157.38 5.68130
2157.82 5.59460
2158.25 5.50144
2158.47 5.46030
2158.69 5.44270
2158.91 5.51042
2159.02 5.63842
2159.13 5.92795
2159.24 6.62281
2159.29 7.31660
2159.35 8.47872
2159.40 10.6418
2159.46 14.8926
2159.49 18.8146
2159.51 24.6992
2159.54 34.0611
2159.57 49.0531
2159.59 64.0851
2159.60 81.1339
2159.64 106.408
2159.66 103.491
2159.68 91.6082
2159.71 63.3095
2159.74 47.6674
2159.77 37.0581
2159.79 29.8926
2159.82 25.0903
2159.87 18.8858
2159.93 15.4229
2159.98 13.2245
2160.03 11.7851
2160.14 10.0205
2160.25 8.99885
2160.35 8.35508
2160.57 7.59165
2160.78 7.16091
2160.99 6.88820
2161.42 6.56048
2161.85 6.36802
2162.27 6.23951
2163.12 6.07238
2163.98 5.96267
2164.83 5.88039
2166.54 5.75393
2168.24 5.64544
2169.10 5.58956
2169.95 5.52743
2170.80 5.45343
2171.23 5.41015
2171.65 5.36402
2172.08 5.32597
2172.29 5.32484
2172.51 5.36473
2172.72 5.52465
2172.83 5.72309
2172.93 6.10801
2173.04 6.92952
2173.09 7.67952
2173.15 8.88399
2173.20 10.9806
2173.25 14.7544
2173.31 22.2354
2173.33 28.8004
2173.36 37.9745
2173.38 48.9783
2173.40 61.5814
2173.45 80.8043
2173.49 69.9444
2173.54 48.4510
2173.57 37.7277
2173.60 30.1653
2173.66 21.1110
2173.72 16.3164
2173.78 13.5570
2173.84 11.7766
2173.90 10.5781
2174.02 9.11379
2174.14 8.26290
2174.26 7.72566
2174.49 7.09214
2174.73 6.73633
2174.97 6.51180
2175.45 6.24652
2175.93 6.09442
2176.40 5.99550
2177.36 5.87218
2178.31 5.79601
2179.27 5.74262
2181.18 5.66922
2183.09 5.61821
2185.00 5.57884
2188.81 5.51876
2192.63 5.47258
2196.45 5.43507
2200.27 5.40775
2202.18 5.41150
2202.66 5.42427
2203.13 5.46172
2203.37 5.51087
2203.61 5.63337
2203.73 5.77914
2203.85 6.09927
2203.91 6.42876
2203.97 7.02225
2204.03 8.26402
2204.06 9.38784
2204.09 11.0236
2204.13 14.4327
2204.17 16.6254
2204.21 14.3348
2204.25 11.0097
2204.28 9.32937
2204.31 8.22301
2204.37 7.00080
2204.43 6.40954
2204.49 6.09247
2204.61 5.77679
2204.73 5.63671
2204.97 5.52051
2205.21 5.47850
2205.69 5.46112
2206.17 5.48662
2206.64 5.56674
2206.88 5.65051
2207.12 5.80163
2207.36 6.10934
2207.48 6.39814
2207.60 6.88107
2207.72 7.79490
2207.78 8.58454
2207.84 9.78823
2207.90 11.8207
2207.96 15.5223
2207.99 18.5754
2208.02 23.0428
2208.05 29.7267
2208.08 39.3052
2208.12 59.5628
2208.16 73.0252
2208.21 59.6090
2208.25 39.3631
2208.28 29.5122
2208.31 23.0927
2208.34 18.7425
2208.37 15.7326
2208.42 12.0320
2208.48 9.96974
2208.54 8.71868
2208.60 7.90768
2208.71 6.95959
2208.83 6.44950
2208.95 6.14445
2209.18 5.81335
2209.41 5.64659
2209.64 5.55053
2210.11 5.44865
2211.03 5.36677
2211.96 5.33145
2213.82 5.29428
2215.68 5.26893
2219.39 5.22289
2223.10 5.16990
2226.81 5.09732
2228.67 5.04661
2230.53 4.97843
2231.46 4.93423
2232.38 4.88036
2233.31 4.81360
2234.24 4.73066
2235.17 4.63424
2235.63 4.59178
2236.10 4.58118
2236.56 4.69086
2236.79 4.87965
2237.02 5.30629
2237.26 6.32433
2237.37 7.34708
2237.49 9.11715
2237.60 12.4163
2237.72 19.2375
2237.78 25.4889
2237.84 35.4993
2237.89 52.1758
2237.95 80.3696
2238.02 134.609
2238.09 178.276
2238.16 152.542
2238.23 102.884
2238.30 71.0778
2238.36 51.5595
2238.42 39.4419
2238.49 31.5787
2238.62 22.4450
2238.74 17.5593
2238.87 14.6316
2239.00 12.7270
2239.26 10.4559
2239.51 9.18267
2239.77 8.38408
2240.02 7.84298
2240.28 7.45643
2240.79 6.94143
2241.30 6.61867
2241.81 6.39803
2242.33 6.23873
2243.35 6.02393
2244.37 5.88607
2245.39 5.78995
2246.42 5.71892
2248.46 5.62032
2250.51 5.55432
2254.60 5.46924
2258.69 5.41419
2262.79 5.37375
2266.88 5.34458
2268.92 5.34892
2269.44 5.36506
2269.95 5.41488
2270.20 5.48241
2270.46 5.65574
2270.59 5.86399
2270.72 6.33346
2270.78 6.82135
2270.84 7.73609
2270.88 8.51340
2270.91 9.68420
2270.94 11.5019
2270.97 14.2271
2271.01 19.6316
2271.05 23.2581
2271.10 19.6387
2271.14 14.2355
2271.17 11.5094
2271.20 9.73569
2271.23 8.57783
2271.26 7.80045
2271.32 6.87441
2271.39 6.38023
2271.51 5.88923
2271.63 5.66991
2271.88 5.48257
2272.13 5.40666
2272.62 5.34530
2273.11 5.31997
2275.09 5.28280
2279.04 5.24435
2282.99 5.20824
2283.98 5.20323
2284.97 5.21210
2285.46 5.23631
2285.96 5.31490
2286.20 5.42311
2286.45 5.70208
2286.57 6.03849
2286.70 6.78579
2286.76 7.56158
2286.82 8.97167
2286.85 10.1706
2286.88 11.9567
2286.91 14.6902
2286.94 18.7137
2286.98 26.8602
2287.03 32.2933
2287.07 26.8760
2287.11 18.7322
2287.15 14.1809
2287.18 11.4345
2287.21 9.70004
2287.25 8.56495
2287.32 7.24708
2287.38 6.55223
2287.52 5.88480
2287.66 5.59125
2287.93 5.34140
2288.20 5.23835
2288.75 5.14792
2289.29 5.10190
2290.38 5.03627
2291.47 4.96763
2292.56 4.87663
2293.11 4.81745
2293.65 4.74775
2294.20 4.67755
2294.47 4.65925
2294.74 4.68910
2294.88 4.74940
2295.02 4.87446
2295.15 5.12663
2295.29 5.64728
2295.42 6.81635
2295.49 7.93026
2295.56 9.78393
2295.63 13.0762
2295.70 19.4496
2295.73 24.9329
2295.76 33.2018
2295.80 45.9758
2295.83 65.7581
2295.86 86.0746
2295.88 109.332
2295.93 144.491
2295.96 140.559
2295.98 124.392
2296.03 84.6883
2296.06 65.1634
2296.09 51.6325
2296.15 35.0255
2296.22 26.0062
2296.28 20.6630
2296.34 17.2503
2296.40 14.9358
2296.53 12.0722
2296.65 10.4175
2296.77 9.36338
2297.02 8.12520
2297.27 7.43498
2297.52 7.00470
2298.01 6.50228
2298.51 6.22125
2299.01 6.04364
2300.00 5.83238
2300.00 8.54513
2500.00 8.40484
3000.00 8.12315
3500.00 7.91039
4000.00 7.74382
5000.00 7.49999
6000.00 7.33075
7200.00 7.18686
8000.00 7.11467
8239.07 7.09769
8485.28 7.08075
9000.00 7.04698
9000.00 7.04698
9000.00 7.04698
9500.00 7.01612
10000.0 6.98697
10625.0 6.95994
11250.0 6.93521
11875.0 6.91248
12500.0 6.89150
12808.7 6.88359
13125.0 6.87584
13433.9 6.86858
13750.0 6.86146
14361.4 6.84850
15000.0 6.83600
16250.0 6.81827
17000.0 6.80900
17500.0 6.80442
18750.0 6.79460
20000.0 6.78676
21250.0 6.78298
22500.0 6.78047
23750.0 6.77899
25000.0 6.77840
26250.0 6.78031
27500.0 6.78280
28750.0 6.78577
30000.0 6.78915
32500.0 6.79872
35000.0 6.80957
37500.0 6.82169
40000.0 6.83483
42500.0 6.84816
45000.0 6.86200
47500.0 6.87621
50000.0 6.89068
52500.0 6.90465
55000.0 6.91867
57500.0 6.93270
60000.0 6.94670
62500.0 6.95998
65000.0 6.97321
67500.0 6.98636
70000.0 6.99943
75000.0 7.02367
80000.0 7.04751
85000.0 7.06845
90000.0 7.08913
99999.9 7.12955
100000 7.14157
110668 7.20532
122863 7.27166
137704 7.34472
150000 7.40000
170119 7.46525
189498 7.52165
200000 7.55000
234754 7.56972
247632 7.57630
247767 7.57638
250000 7.57748
261659 7.58310
265955 7.58522
279296 7.59119
280174 7.59155
300000 7.60000
301268 7.59899
307703 7.59388
310825 7.59143
319126 7.58495
321719 7.58293
345010 7.56590
362879 7.55363
373883 7.54639
375590 7.54526
391432 7.53524
399602 7.53024
400000 7.53001
420389 7.49632
436941 7.47028
439017 7.46707
463706 7.43037
468517 7.42341
485297 7.39997
500000 7.38000
517565 7.35529
526966 7.34243
559303 7.29980
563244 7.29484
589217 7.26294
600000 7.25010
622965 7.20823
625639 7.20345
638726 7.18062
638917 7.18029
663736 7.13830
680620 7.11067
687084 7.10034
700000 7.08000
706366 7.06973
714830 7.05628
746853 7.00682
760858 6.98598
800000 6.93001
862941 6.83321
874381 6.81646
874637 6.81610
891494 6.79198
900000 6.78000
997230 6.64366
1.00000E+06 6.64000
1.01701E+06 6.60973
1.02928E+06 6.58828
1.05600E+06 6.54210
1.08272E+06 6.49778
1.10944E+06 6.45522
1.13616E+06 6.41431
1.14028E+06 6.40801
1.14424E+06 6.40199
1.17212E+06 6.36021
1.20000E+06 6.32000
1.20082E+06 6.31906
1.20082E+06 6.31905
1.20527E+06 6.31397
1.20547E+06 6.31374
1.22001E+06 6.29726
1.22356E+06 6.29329
1.22961E+06 6.28652
1.23402E+06 6.28162
1.23881E+06 6.27632
1.25000E+06 6.26402
1.27209E+06 6.24010
1.29417E+06 6.21681
1.29466E+06 6.21629
1.31676E+06 6.19340
1.32342E+06 6.18660
1.34210E+06 6.16773
1.37284E+06 6.13739
1.37598E+06 6.13435
1.40147E+06 6.10980
1.42695E+06 6.08592
1.44460E+06 6.06964
1.46302E+06 6.05286
1.48143E+06 6.03640
1.48672E+06 6.03170
1.48924E+06 6.02946
1.50000E+06 6.02000
1.50803E+06 6.00914
1.52250E+06 5.98974
1.53953E+06 5.96716
1.55656E+06 5.94501
1.58662E+06 5.90645
1.61667E+06 5.86913
1.62019E+06 5.86480
1.64341E+06 5.83661
1.65831E+06 5.81880
1.67916E+06 5.79416
1.70000E+06 5.77005
1.71648E+06 5.74924
1.73295E+06 5.72879
1.73709E+06 5.72367
1.74714E+06 5.71132
1.74790E+06 5.71040
1.75000E+06 5.70784
1.77266E+06 5.68049
1.79223E+06 5.65725
1.79967E+06 5.64850
1.82580E+06 5.61815
1.84832E+06 5.59239
1.87083E+06 5.56718
1.88655E+06 5.54982
1.90882E+06 5.52550
1.93108E+06 5.50168
1.95612E+06 5.47524
1.98877E+06 5.44146
2.00000E+06 5.43000
2.02186E+06 5.40012
2.02259E+06 5.39914
2.06545E+06 5.34198
2.09788E+06 5.29987
2.10398E+06 5.29206
2.12454E+06 5.26600
2.12991E+06 5.25926
2.14400E+06 5.24169
2.18255E+06 5.19446
2.18292E+06 5.19402
2.19939E+06 5.17422
2.22289E+06 5.14639
2.24037E+06 5.12597
2.26023E+06 5.10304
2.28641E+06 5.07328
2.29414E+06 5.06460
2.32695E+06 5.02823
2.35280E+06 5.00012
2.36087E+06 4.99143
2.37661E+06 4.97461
2.38237E+06 4.96849
2.38761E+06 4.96296
2.39308E+06 4.95719
2.40077E+06 4.94911
2.47060E+06 4.87760
2.48671E+06 4.86358
2.50088E+06 4.85132
2.50256E+06 4.84989
2.50927E+06 4.84413
2.51543E+06 4.83886
2.52337E+06 4.83209
2.52694E+06 4.82906
2.54602E+06 4.81297
2.56129E+06 4.80022
2.56506E+06 4.79707
2.58471E+06 4.78082
2.58888E+06 4.77741
2.61728E+06 4.75427
2.62582E+06 4.74739
2.64419E+06 4.73270
2.64707E+06 4.73041
2.70001E+06 4.68894
2.70677E+06 4.68373
2.70812E+06 4.68269
2.73220E+06 4.66431
2.76561E+06 4.63918
2.81197E+06 4.60500
2.83395E+06 4.58909
2.85032E+06 4.57736
2.88413E+06 4.55345
2.89432E+06 4.54632
2.90441E+06 4.53930
2.95346E+06 4.50570
3.00000E+06 4.47455
3.00170E+06 4.47357
3.00311E+06 4.47280
3.02209E+06 4.46233
3.05443E+06 4.44469
3.07518E+06 4.43351
3.08598E+06 4.42773
3.10475E+06 4.41775
3.13958E+06 4.39946
3.15916E+06 4.38929
3.16733E+06 4.38508
3.19963E+06 4.36857
3.20406E+06 4.36632
3.25000E+06 4.34330
3.25374E+06 4.34145
3.33495E+06 4.30190
3.33496E+06 4.30190
3.33881E+06 4.30005
3.44899E+06 4.24854
3.45034E+06 4.24792
3.46410E+06 4.24165
3.50000E+06 4.22544
3.50814E+06 4.22181
3.54399E+06 4.20589
3.65287E+06 4.15891
3.66747E+06 4.15276
3.72242E+06 4.12990
3.73672E+06 4.12402
3.86612E+06 4.07224
3.90073E+06 4.05879
4.00000E+06 4.02109
4.08278E+06 4.01082
4.11323E+06 4.00710
4.14286E+06 4.00350
4.16024E+06 4.00140
4.25696E+06 3.98993
4.30373E+06 3.98449
4.34344E+06 3.97991
4.45471E+06 3.96734
4.50000E+06 3.96234
4.55002E+06 3.95687
4.63053E+06 3.94821
4.65857E+06 3.94523
4.77322E+06 3.93325
4.85301E+06 3.92511
4.85539E+06 3.92488
4.95051E+06 3.91537
5.00000E+06 3.91050
5.08439E+06 3.91689
5.08752E+06 3.91712
5.16307E+06 3.92277
5.26094E+06 3.92995
5.26991E+06 3.93061
5.34810E+06 3.93626
5.36139E+06 3.93721
5.42554E+06 3.94178
5.44251E+06 3.94298
5.47723E+06 3.94543
5.52455E+06 3.94874
5.60881E+06 3.95458
5.62312E+06 3.95556
5.70415E+06 3.96108
5.77671E+06 3.96597
5.88502E+06 3.97316
5.88730E+06 3.97332
6.00000E+06 3.98066
6.08367E+06 3.99321
6.15460E+06 4.00374
6.23457E+06 4.01549
6.25174E+06 4.01800
6.32139E+06 4.02813
6.40057E+06 4.03954
6.48074E+06 4.05098
6.59888E+06 4.06763
6.60700E+06 4.06878
6.61530E+06 4.06994
6.67119E+06 4.07772
6.69695E+06 4.08130
6.73537E+06 4.08660
6.80364E+06 4.09597
6.84320E+06 4.10137
6.90112E+06 4.10923
7.00000E+06 4.12253
7.04460E+06 4.12987
7.05866E+06 4.13213
7.14758E+06 4.14637
7.23762E+06 4.16082
7.34410E+06 4.17796
7.36657E+06 4.18157
7.40154E+06 4.18721
7.41965E+06 4.19013
7.43662E+06 4.19287
7.46027E+06 4.19668
7.47383E+06 4.19888
7.48005E+06 4.19985
7.48331E+06 4.20036
7.49776E+06 4.20263
7.60927E+06 4.21841
7.70403E+06 4.23244
7.73734E+06 4.23749
7.75234E+06 4.23980
7.76754E+06 4.24213
7.86757E+06 4.25791
7.93379E+06 4.26867
8.00000E+06 4.27967
8.03364E+06 4.28394
8.05490E+06 4.28667
8.07615E+06 4.28943
8.09741E+06 4.29223
8.11866E+06 4.29506
8.14318E+06 4.29835
8.16770E+06 4.30168
8.19222E+06 4.30506
8.21674E+06 4.30847
8.23907E+06 4.31162
8.26962E+06 4.31596
8.30017E+06 4.32036
8.33072E+06 4.32483
8.36127E+06 4.32936
8.39227E+06 4.33399
8.42328E+06 4.33869
8.45428E+06 4.34346
8.48528E+06 4.34828
8.50925E+06 4.35205
8.53323E+06 4.35585
8.55720E+06 4.35968
8.58117E+06 4.36356
8.59946E+06 4.36591
8.63711E+06 4.37080
8.67476E+06 4.37577
8.70681E+06 4.38005
8.73885E+06 4.38439
8.77642E+06 4.38953
8.82203E+06 4.39583
8.86763E+06 4.40227
8.90372E+06 4.40742
8.93981E+06 4.41266
8.96991E+06 4.41705
9.00000E+06 4.42150
9.00251E+06 4.42178
9.02179E+06 4.42388
9.04358E+06 4.42627
9.06537E+06 4.42867
9.08716E+06 4.43110
9.10634E+06 4.43325
9.12551E+06 4.43542
9.14992E+06 4.43820
9.17433E+06 4.44101
9.18076E+06 4.44164
9.21049E+06 4.44459
9.24021E+06 4.44757
9.28243E+06 4.45180
9.31799E+06 4.45540
9.33911E+06 4.45756
9.37552E+06 4.46128
9.41193E+06 4.46505
9.44833E+06 4.46886
9.48474E+06 4.47271
9.48683E+06 4.47292
9.50000E+06 4.47430
9.54257E+06 4.47878
9.59830E+06 4.48473
9.65404E+06 4.49077
9.70977E+06 4.49689
9.73249E+06 4.49940
9.74004E+06 4.50023
9.77543E+06 4.50417
9.81081E+06 4.50814
9.83999E+06 4.51142
9.86916E+06 4.51473
9.91677E+06 4.52013
9.96437E+06 4.52559
9.97582E+06 4.52690
1.00000E+07 4.52970
1.00216E+07 4.53043
1.00433E+07 4.53117
1.00649E+07 4.53191
1.00865E+07 4.53266
1.01058E+07 4.53334
1.01252E+07 4.53403
1.01445E+07 4.53472
1.01638E+07 4.53542
1.01831E+07 4.53612
1.02025E+07 4.53683
1.02218E+07 4.53754
1.02411E+07 4.53826
1.02719E+07 4.53942
1.03027E+07 4.54059
1.03334E+07 4.54178
1.03642E+07 4.54298
1.03650E+07 4.54301
1.03830E+07 4.54371
1.04009E+07 4.54442
1.04189E+07 4.54514
1.04368E+07 4.54586
1.04625E+07 4.54690
1.04881E+07 4.54795
1.05055E+07 4.54863
1.05228E+07 4.54932
1.05528E+07 4.55052
1.05829E+07 4.55173
1.06129E+07 4.55295
1.06429E+07 4.55419
1.06743E+07 4.55550
1.07057E+07 4.55682
1.07225E+07 4.55754
1.07393E+07 4.55826
1.07561E+07 4.55898
1.07729E+07 4.55971
1.07897E+07 4.56045
1.08065E+07 4.56118
1.08234E+07 4.56193
1.08402E+07 4.56267
1.08570E+07 4.56342
1.08738E+07 4.56418
1.08906E+07 4.56494
1.09074E+07 4.56570
1.09242E+07 4.56647
1.09410E+07 4.56724
1.09578E+07 4.56802
1.09746E+07 4.56880
1.10000E+07 4.56998
1.10794E+07 4.57258
1.11588E+07 4.57523
1.11979E+07 4.57655
1.12707E+07 4.57905
1.13435E+07 4.58161
1.14163E+07 4.58422
1.14891E+07 4.58690
1.15000E+07 4.58729
1.15920E+07 4.59074
1.16710E+07 4.59377
1.17500E+07 4.59687
1.18125E+07 4.59935
1.18750E+07 4.60188
1.19375E+07 4.60445
1.20000E+07 4.60707
1.21009E+07 4.59961
1.22018E+07 4.59233
1.23026E+07 4.58523
1.24035E+07 4.57831
1.24900E+07 4.57248
1.25000E+07 4.57182
1.25991E+07 4.56532
1.26982E+07 4.55899
1.27737E+07 4.55426
1.28491E+07 4.54964
1.29246E+07 4.54511
1.30000E+07 4.54070
1.30049E+07 4.54038
1.31264E+07 4.53238
1.32478E+07 4.52462
1.33693E+07 4.51708
1.34907E+07 4.50977
1.34933E+07 4.50962
1.35000E+07 4.50922
1.36076E+07 4.50293
1.37152E+07 4.49684
1.38576E+07 4.48834
1.40000E+07 4.48012
1.40080E+07 4.47901
1.42540E+07 4.44542
1.45000E+07 4.41326
1.46816E+07 4.38957
1.48631E+07 4.36656
1.49794E+07 4.35215
1.49795E+07 4.35214
1.50000E+07 4.34962
1.50230E+07 4.34567
1.50460E+07 4.34173
1.50690E+07 4.33780
1.50920E+07 4.33389
1.51149E+07 4.32999
1.51379E+07 4.32611
1.51609E+07 4.32224
1.51839E+07 4.31838
1.52053E+07 4.31480
1.52266E+07 4.31123
1.52479E+07 4.30766
1.52693E+07 4.30412
1.52906E+07 4.30058
1.53120E+07 4.29705
1.53333E+07 4.29354
1.53547E+07 4.29004
1.53760E+07 4.28654
1.53973E+07 4.28306
1.54187E+07 4.27959
1.54400E+07 4.27614
1.54614E+07 4.27269
1.54827E+07 4.26925
1.55041E+07 4.26583
1.55254E+07 4.26242
1.55512E+07 4.25829
1.55771E+07 4.25417
1.56029E+07 4.25007
1.56287E+07 4.24599
1.56545E+07 4.24193
1.56804E+07 4.23788
1.57062E+07 4.23385
1.57320E+07 4.22983
1.57595E+07 4.22556
1.57869E+07 4.22132
1.58144E+07 4.21709
1.58419E+07 4.21288
1.58693E+07 4.20869
1.58968E+07 4.20452
1.59242E+07 4.20036
1.59517E+07 4.19623
1.59759E+07 4.19260
1.60000E+07 4.18899
1.60455E+07 4.17998
1.60910E+07 4.17103
1.61501E+07 4.15945
1.62092E+07 4.14797
1.62683E+07 4.13660
1.63274E+07 4.12533
1.63778E+07 4.11576
1.64281E+07 4.10626
1.64785E+07 4.09684
1.65288E+07 4.08749
1.66050E+07 4.07344
1.66489E+07 4.06542
1.66927E+07 4.05745
1.67536E+07 4.04646
1.67618E+07 4.04497
1.67729E+07 4.04296
1.68327E+07 4.03213
1.68924E+07 4.02140
1.69580E+07 4.00970
1.70000E+07 4.00227
1.70196E+07 3.99880
1.70196E+07 3.99879
1.70506E+07 3.99328
1.70694E+07 3.98993
1.71687E+07 3.97241
1.72867E+07 3.95188
1.74085E+07 3.93097
1.74462E+07 3.92458
1.75847E+07 3.90123
1.77231E+07 3.87833
1.78616E+07 3.85587
1.80000E+07 3.83385
1.82215E+07 3.79468
1.84430E+07 3.75675
1.85823E+07 3.73322
1.87215E+07 3.71018
1.88608E+07 3.68761
1.90000E+07 3.66552
1.93092E+07 3.61615
1.96183E+07 3.56885
1.98092E+07 3.54036
2.00000E+07 3.51266