Cd-112(n,tot) ENDF/B-VII.1
Energy(eV) XS(b)
1.00000E-05 116.069
1.25000E-05 104.351
1.50000E-05 95.7011
2.00000E-05 83.5596
2.75000E-05 72.0069
3.50000E-05 64.4039
4.25000E-05 58.9151
5.00000E-05 54.7131
6.25000E-05 49.4727
7.50000E-05 45.6044
0.000100000 40.1744
0.000125000 36.4689
0.000150000 33.7335
0.000200000 29.8939
0.000275000 26.2405
0.000350000 23.8361
0.000425000 22.1003
0.000500000 20.7715
0.000625000 19.1141
0.000750000 17.8908
0.00100000 16.1734
0.00125000 15.0015
0.00150000 14.1363
0.00200000 12.9218
0.00275000 11.7661
0.00350000 11.0054
0.00425000 10.4562
0.00500000 10.0357
0.00625000 9.51112
0.00750000 9.12385
0.0100000 8.58007
0.0125000 8.20881
0.0150000 7.93463
0.0200000 7.54952
0.0253000 7.27321
0.0314750 7.04378
0.0376500 6.87323
0.0500000 6.63210
0.0625000 6.46464
0.0750000 6.34072
0.100000 6.16613
0.125000 6.04635
0.150000 5.95746
0.200000 5.83171
0.237500 5.76413
0.275000 5.71044
0.350000 5.62929
0.500000 5.52334
0.750000 5.41948
1.00000 5.35423
1.50000 5.27138
2.00000 5.21762
2.75000 5.16188
3.50000 5.12186
5.00000 5.06567
7.50000 5.00585
10.0000 4.96592
12.5000 4.93621
15.0000 4.91255
20.0000 4.87548
27.5000 4.83174
35.0000 4.79100
42.5000 4.74370
46.2500 4.71338
50.0000 4.67427
52.0931 4.64632
54.1861 4.61162
56.2792 4.56702
58.3722 4.50742
59.4187 4.46967
60.4653 4.42522
61.5118 4.37385
62.5583 4.31984
63.0816 4.29785
63.6048 4.28969
64.1281 4.31830
64.6514 4.44731
64.9130 4.60160
65.1746 4.88631
65.4363 5.43339
65.6979 6.56915
65.8287 7.60429
65.9595 9.26365
66.0903 12.1005
66.2211 17.4103
66.2866 21.9252
66.3193 24.9842
66.3520 28.8078
66.3683 31.0877
66.3847 33.6667
66.3929 35.0859
66.4010 36.5994
66.4092 38.2195
66.4174 39.9519
66.4337 43.8055
66.4501 48.2625
66.4664 53.4521
66.4828 59.5393
66.4991 66.7426
66.5155 75.3337
66.5318 85.6896
66.5482 98.3153
66.5645 113.917
66.5809 133.456
66.5972 158.349
66.6136 190.682
66.6300 233.661
66.6463 292.246
66.6627 374.673
66.6790 495.010
66.6954 678.508
66.7117 972.485
66.7281 1466.97
66.7444 2315.50
66.7622 3740.81
66.7800 4724.55
66.7978 3823.63
66.8156 2418.94
66.8308 1608.48
66.8461 1111.48
66.8613 803.235
66.8766 604.224
66.9070 376.020
66.9375 256.890
66.9680 187.456
66.9985 143.575
67.0594 93.3450
67.1204 66.7132
67.1814 50.8645
67.2423 40.6393
67.3033 33.6383
67.4252 24.8897
67.5471 19.7988
67.6690 16.5520
67.7909 14.3410
68.0348 11.5819
68.2786 9.96900
68.5224 8.93168
68.7662 8.21791
69.2539 7.31298
69.7416 6.77193
70.2292 6.41640
70.7169 6.16685
71.6922 5.84227
72.6675 5.64209
73.6428 5.50715
74.6182 5.41049
76.5688 5.28277
78.5194 5.20685
79.4948 5.18487
80.4701 5.18093
80.9577 5.19524
81.2016 5.21236
81.4454 5.24338
81.6892 5.30405
81.8111 5.35838
81.9331 5.44755
82.0550 5.61348
82.1159 5.75941
82.1769 5.99590
82.2378 6.42367
82.2683 6.78377
82.2988 7.33409
82.3293 8.23529
82.3598 9.84523
82.3902 13.0413
82.4055 15.8287
82.4207 19.9327
82.4434 28.6644
82.4660 34.4971
82.4887 28.7045
82.5113 20.0122
82.5350 14.2662
82.5587 11.1472
82.5824 9.40092
82.6061 8.36436
82.6535 7.29645
82.7009 6.83355
82.7957 6.60998
82.8905 6.88405
82.9853 7.72919
83.0327 8.55696
83.0801 9.94136
83.1275 12.4535
83.1512 14.5325
83.1749 17.6247
83.1986 22.4621
83.2223 30.4983
83.2460 44.7318
83.2697 70.8222
83.2924 110.167
83.3150 136.383
83.3377 110.190
83.3603 70.8450
83.3766 51.3294
83.3928 38.4332
83.4091 29.9053
83.4253 24.1224
83.4578 17.1634
83.4903 13.3672
83.5228 11.0968
83.5553 9.63950
83.6203 7.95177
83.6853 7.05141
83.7503 6.51569
83.8803 5.93657
84.0103 5.64592
84.1403 5.47892
84.2703 5.37370
84.4003 5.30279
84.6603 5.21527
84.9203 5.16450
85.4403 5.10892
85.9603 5.07890
86.4803 5.05949
87.5202 5.03431
88.5602 5.01714
89.6002 5.00372
91.6802 4.98266
95.8401 4.95189
100.000 4.92900
106.250 4.90259
112.500 4.88181
125.000 4.84910
137.500 4.82195
150.000 4.79641
162.500 4.76971
175.000 4.73860
187.500 4.69718
193.750 4.66864
200.000 4.62998
203.309 4.60272
206.618 4.56785
209.927 4.52111
213.235 4.45436
214.890 4.40867
216.544 4.34996
218.199 4.27164
219.853 4.16203
220.680 4.08923
221.508 3.99911
222.335 3.88598
223.162 3.74423
223.576 3.66319
223.989 3.58092
224.403 3.51449
224.816 3.51929
225.023 3.59772
225.230 3.79710
225.437 4.25316
225.644 5.30885
225.747 6.32372
225.850 7.99784
225.902 9.24580
225.928 10.0219
225.954 10.9225
225.980 11.9816
226.006 13.2254
226.031 14.7079
226.057 16.4751
226.070 17.4984
226.083 18.6167
226.109 21.2175
226.135 24.4361
226.161 28.4388
226.187 33.5289
226.212 40.0606
226.238 48.6749
226.264 60.2121
226.290 76.2236
226.316 99.0272
226.342 133.153
226.367 186.545
226.393 276.585
226.406 345.471
226.419 440.761
226.432 577.483
226.445 776.022
226.458 1072.52
226.471 1515.00
226.490 2470.76
226.509 3150.47
226.528 2573.78
226.547 1643.17
226.561 1183.77
226.574 874.922
226.587 665.914
226.600 521.376
226.627 342.944
226.653 243.505
226.680 182.554
226.706 142.881
226.759 95.8663
226.812 70.0215
226.864 54.2889
226.917 43.9234
226.970 36.7280
227.076 27.5635
227.182 22.1175
227.287 18.5841
227.393 16.1419
227.604 13.0381
227.816 11.1853
228.027 9.97192
228.239 9.12389
228.662 8.02806
229.084 7.35845
229.507 6.91048
229.930 6.59129
230.776 6.16880
231.621 5.90303
232.467 5.72098
233.313 5.58865
235.004 5.40928
236.695 5.29332
238.387 5.21208
240.078 5.15186
243.461 5.06819
246.843 5.01236
250.226 4.97204
253.609 4.94122
260.374 4.89638
267.139 4.86435
280.670 4.81883
294.201 4.78494
307.732 4.75601
334.793 4.70171
361.854 4.64016
375.385 4.60099
388.916 4.54999
402.446 4.47538
409.212 4.42068
415.977 4.34335
419.360 4.29047
422.743 4.22224
426.125 4.13015
429.508 3.99816
431.199 3.90779
432.891 3.79194
434.582 3.63814
436.273 3.42496
437.119 3.28517
437.965 3.11459
438.810 2.90561
439.656 2.65613
440.079 2.52395
440.502 2.40624
440.924 2.35124
441.347 2.50146
441.559 2.77398
441.770 3.34293
441.876 3.82328
441.929 4.13822
441.982 4.51701
442.034 4.97608
442.087 5.53292
442.140 6.21477
442.193 7.05202
442.246 8.09208
442.299 9.39085
442.352 11.0362
442.404 13.1384
442.457 15.8739
442.510 19.4812
442.563 24.3541
442.616 31.0744
442.669 40.6597
442.721 54.7926
442.774 76.7151
442.827 112.712
442.880 177.062
442.906 229.220
442.933 305.113
442.959 420.568
442.986 602.790
443.012 903.727
443.039 1408.48
443.069 2320.50
443.100 2984.25
443.131 2455.02
443.162 1578.45
443.180 1186.94
443.199 909.044
443.236 570.347
443.274 388.465
443.311 282.141
443.349 215.212
443.386 170.489
443.461 116.315
443.536 85.9066
443.610 67.0555
443.760 45.6844
443.910 34.3271
444.059 27.4939
444.209 23.0130
444.359 19.8881
444.658 15.8748
444.957 13.4492
445.256 11.8449
445.555 10.7144
446.154 9.23966
446.752 8.32934
447.351 7.71622
447.949 7.27820
449.146 6.70308
449.745 6.51186
450.343 6.37081
450.942 6.28892
451.241 6.28492
451.540 6.33209
451.839 6.49726
451.989 6.68395
452.139 7.03442
452.288 7.77083
452.363 8.47247
452.438 9.67543
452.513 11.9815
452.550 14.0125
452.587 17.2370
452.625 22.7697
452.662 33.3107
452.681 42.4206
452.700 56.3763
452.718 78.5298
452.737 113.990
452.760 179.022
452.783 222.127
452.806 178.721
452.829 113.984
452.852 72.3203
452.875 49.0903
452.898 35.6392
452.921 27.4538
452.944 22.1357
452.967 18.5409
453.013 14.1373
453.060 11.6551
453.106 10.1276
453.198 8.42757
453.290 7.55016
453.382 7.03828
453.474 6.71193
453.566 6.48986
453.751 6.21225
453.935 6.04830
454.303 5.86319
454.672 5.75800
455.040 5.68649
455.777 5.58783
456.514 5.51676
457.251 5.45972
458.726 5.36946
460.200 5.29881
461.674 5.24098
464.622 5.15078
467.570 5.08293
470.518 5.02958
476.415 4.95011
482.311 4.89267
488.207 4.84828
500.000 4.78169
516.475 4.71380
532.949 4.65896
541.186 4.63384
549.424 4.60969
553.542 4.59818
557.661 4.58803
559.720 4.58481
561.780 4.58693
562.809 4.59533
563.324 4.60521
563.839 4.62448
564.354 4.66711
564.611 4.70989
564.869 4.78751
564.997 4.85227
565.126 4.95004
565.255 5.10746
565.383 5.38470
565.448 5.61024
565.512 5.94200
565.576 6.46021
565.641 7.33110
565.705 8.96607
565.737 10.3764
565.769 12.5610
565.802 16.2104
565.834 22.8623
565.850 28.3565
565.866 36.4108
565.882 48.5003
565.898 66.5046
565.921 103.816
565.944 128.570
565.967 103.646
565.990 66.5089
566.011 44.2025
566.032 31.1393
566.053 23.2676
566.074 18.3401
566.116 12.8258
566.158 10.0285
566.199 8.43249
566.241 7.44108
566.325 6.32965
566.409 5.75393
566.493 5.41894
566.576 5.20670
566.660 5.06416
566.828 4.89010
566.995 4.79203
567.163 4.73127
567.330 4.69096
567.665 4.64229
568.000 4.61494
568.670 4.58630
569.340 4.57176
570.010 4.56287
571.351 4.55189
574.031 4.53866
576.711 4.52853
582.072 4.51020
587.432 4.49216
598.153 4.45473
608.874 4.41418
630.317 4.31841
651.759 4.19012
662.480 4.10531
673.201 3.99808
683.922 3.85602
694.643 3.65548
700.004 3.51930
705.364 3.34524
710.725 3.11406
716.085 2.79152
718.766 2.57751
721.446 2.31225
724.126 1.97797
726.806 1.55472
728.147 1.30808
729.487 1.04945
730.827 0.818575
731.497 0.747399
731.832 0.735758
732.167 0.748985
732.502 0.797202
732.837 0.894800
733.172 1.06277
733.507 1.33195
733.675 1.51843
733.842 1.74942
734.177 2.38789
734.512 3.36481
734.847 4.87659
735.182 7.26916
735.517 11.1853
735.852 17.9250
736.020 23.1449
736.187 30.3921
736.355 40.7518
736.522 56.0745
736.690 79.7839
736.857 118.646
737.025 187.385
737.109 242.651
737.192 322.105
737.276 440.767
737.360 624.505
737.444 919.894
737.527 1398.38
737.633 2321.67
737.738 3014.73
737.843 2504.11
737.949 1621.51
738.020 1188.94
738.091 890.728
738.163 686.152
738.234 543.222
738.376 364.606
738.519 263.088
738.661 200.215
738.804 158.678
739.089 108.773
739.374 80.8898
739.659 63.6182
739.944 52.0919
740.229 43.9710
740.799 33.4548
741.369 27.0677
741.940 22.8417
742.510 19.8688
743.650 16.0065
744.790 13.6364
745.930 12.0480
747.071 10.9154
749.351 9.41620
751.631 8.47343
753.912 7.82767
756.192 7.35819
760.753 6.72106
765.314 6.30768
769.875 6.01630
774.436 5.79843
783.558 5.49016
792.680 5.27693
797.240 5.19138
801.801 5.11617
804.082 5.08273
806.362 5.05481
807.503 5.04681
808.643 5.05457
809.213 5.07944
809.498 5.10794
809.783 5.16251
810.068 5.28092
810.211 5.39757
810.353 5.60513
810.424 5.77520
810.496 6.02724
810.567 6.42312
810.638 7.09451
810.709 8.37142
810.745 9.48593
810.781 11.2423
810.816 14.2367
810.852 19.8467
810.870 24.6225
810.888 31.8311
810.905 43.0575
810.923 60.6281
810.946 93.9751
810.969 116.187
810.992 93.9669
811.015 60.6175
811.033 42.8122
811.051 31.5728
811.069 24.3867
811.087 19.6412
811.123 14.0846
811.159 11.1337
811.195 9.39620
811.231 8.29872
811.303 7.04343
811.375 6.38148
811.447 5.99186
811.520 5.74286
811.592 5.57450
811.736 5.36732
811.880 5.24929
812.168 5.12579
812.456 5.06474
812.744 5.02920
813.321 4.98949
814.474 4.95100
815.626 4.92778
817.932 4.89245
820.237 4.86158
824.849 4.80381
829.460 4.74798
838.682 4.63642
847.904 4.51822
857.126 4.38397
866.348 4.21945
870.960 4.11897
875.571 4.00201
877.876 3.93835
879.029 3.90723
880.182 3.88013
881.335 3.86650
881.911 3.87359
882.487 3.90462
882.776 3.93852
883.064 3.99635
883.352 4.09849
883.640 4.29236
883.784 4.45783
883.928 4.71060
884.072 5.12160
884.217 5.85145
884.289 6.44845
884.361 7.33038
884.433 8.71435
884.505 11.0549
884.577 15.4869
884.613 19.3377
884.649 25.3774
884.685 35.5670
884.721 54.4920
884.739 70.4258
884.757 94.2193
884.775 130.772
884.793 187.092
884.817 297.121
884.841 370.442
884.865 297.046
884.889 186.996
884.909 126.260
884.929 88.6933
884.948 65.0962
884.968 49.7249
885.008 31.9410
885.047 22.6509
885.087 17.2273
885.126 13.8199
885.205 9.94351
885.284 7.90971
885.362 6.71612
885.441 5.95481
885.520 5.44058
885.678 4.80814
885.836 4.44749
885.993 4.22105
886.151 4.06840
886.466 3.87851
886.782 3.76553
887.413 3.63325
888.043 3.55079
888.674 3.48737
889.936 3.38106
891.198 3.28448
891.828 3.23996
892.459 3.20268
893.090 3.18639
893.405 3.19906
893.721 3.24680
894.036 3.38200
894.194 3.52926
894.352 3.80361
894.509 4.37980
894.588 4.93060
894.667 5.87689
894.746 7.70287
894.785 9.31784
894.825 11.8952
894.864 16.3663
894.904 24.9711
894.923 32.5007
894.943 44.1801
894.963 63.0242
894.982 93.7776
895.006 148.512
895.029 184.841
895.052 148.343
895.076 93.8743
895.103 54.7174
895.130 34.7793
895.158 24.0808
895.185 17.8589
895.212 13.9733
895.240 11.4017
895.294 8.33338
895.349 6.64948
895.403 5.62875
895.512 4.50636
895.622 3.93160
895.731 3.59595
895.949 3.23146
896.167 3.03968
896.386 2.91903
896.822 2.76468
897.259 2.65605
897.695 2.56382
898.569 2.39245
900.315 2.03002
902.062 1.60260
902.935 1.36753
903.808 1.13956
904.681 0.977673
905.118 0.967984
905.554 1.06247
905.773 1.17445
905.991 1.35188
906.209 1.62059
906.428 2.01840
906.646 2.60186
906.864 3.45795
907.083 4.72475
907.301 6.63008
907.519 9.56778
907.737 14.2591
907.956 22.1251
908.174 36.2448
908.283 47.6771
908.392 64.2028
908.502 89.0910
908.611 128.387
908.720 194.546
908.829 314.856
908.884 413.310
908.938 555.648
908.993 765.178
909.047 1072.40
909.134 1788.86
909.220 2333.00
909.307 1945.74
909.393 1265.79
909.481 801.619
909.570 537.443
909.658 383.048
909.747 287.313
909.835 224.455
909.924 181.116
910.101 126.911
910.278 95.4525
910.455 75.4949
910.809 52.3418
911.163 39.7425
911.517 32.0255
911.871 26.8960
912.224 23.2789
912.932 18.5737
913.640 15.6869
914.348 13.7549
915.056 12.3801
916.472 10.5652
917.887 9.42845
919.303 8.65268
920.719 8.09059
923.550 7.33130
926.382 6.84185
929.213 6.49921
932.045 6.24505
937.708 5.89053
943.371 5.65170
949.034 5.47676
954.697 5.34060
966.022 5.13542
977.348 4.97919
1000.00 4.72613
1013.22 4.58687
1026.44 4.43869
1033.05 4.35746
1039.67 4.26958
1042.97 4.22342
1046.28 4.17861
1047.93 4.16091
1048.76 4.15638
1049.58 4.15933
1050.41 4.18142
1050.82 4.21031
1051.23 4.26854
1051.44 4.31990
1051.65 4.39935
1051.85 4.53135
1052.06 4.76874
1052.16 4.96771
1052.27 5.26342
1052.37 5.73435
1052.47 6.55011
1052.58 8.16923
1052.63 9.64068
1052.68 11.9978
1052.73 16.3073
1052.76 19.8712
1052.78 24.9308
1052.81 33.1075
1052.84 46.7131
1052.86 70.8648
1052.89 112.978
1052.91 179.229
1052.94 223.776
1052.96 179.231
1052.99 112.980
1053.01 72.1208
1053.03 48.8245
1053.06 35.1919
1053.08 26.7660
1053.11 21.2715
1053.13 17.5184
1053.18 12.8978
1053.23 10.2859
1053.27 8.67330
1053.37 6.88694
1053.47 5.95493
1053.56 5.41830
1053.66 5.07502
1053.75 4.84639
1053.94 4.56392
1054.13 4.40460
1054.33 4.30483
1054.52 4.23769
1054.90 4.15417
1055.28 4.10477
1056.05 4.04720
1056.81 4.01183
1057.58 3.98513
1059.11 3.94164
1062.17 3.86436
1065.23 3.78571
1071.35 3.60757
1077.46 3.38694
1083.58 3.10190
1089.70 2.71711
1092.76 2.46981
1095.82 2.17360
1097.35 2.00565
1098.88 1.83131
1099.65 1.75339
1100.03 1.72545
1100.41 1.71757
1100.80 1.76120
1100.99 1.83052
1101.18 1.97653
1101.37 2.30694
1101.46 2.63683
1101.56 3.21207
1101.66 4.36400
1101.70 5.41300
1101.75 7.08837
1101.80 10.1449
1101.82 12.6617
1101.85 16.3936
1101.87 22.2119
1101.89 31.8348
1101.92 48.7630
1101.94 77.7945
1101.97 125.111
1101.99 155.069
1102.01 122.991
1102.04 77.7724
1102.06 45.1689
1102.09 28.4391
1102.12 19.4053
1102.14 14.1277
1102.17 10.8211
1102.20 8.62729
1102.25 6.03788
1102.30 4.57869
1102.36 3.69325
1102.47 2.72303
1102.57 2.21834
1102.68 1.92362
1102.89 1.59777
1103.11 1.42024
1103.32 1.30527
1103.75 1.15123
1104.61 0.943019
1105.47 0.774698
1107.19 0.507027
1108.05 0.437207
1108.47 0.433831
1108.90 0.462340
1109.33 0.535296
1109.76 0.669899
1110.19 0.891503
1110.62 1.23719
1111.05 1.76412
1111.48 2.55593
1111.91 3.75036
1112.34 5.57341
1112.77 8.42433
1113.20 13.0078
1113.63 20.7398
1114.05 34.6674
1114.27 45.9768
1114.48 62.2490
1114.70 86.7931
1114.91 125.230
1115.13 189.708
1115.34 305.041
1115.45 399.000
1115.56 531.904
1115.66 724.130
1115.77 1000.89
1115.95 1656.71
1116.12 2167.47
1116.30 1831.47
1116.48 1197.62
1116.66 769.927
1116.84 521.980
1117.02 375.121
1117.20 283.184
1117.38 222.388
1117.55 180.237
1117.91 127.285
1118.27 96.2628
1118.63 76.4843
1119.34 53.4296
1120.06 40.7868
1120.77 33.0114
1121.49 27.8195
1122.20 24.1441
1123.63 19.3384
1125.07 16.3744
1126.50 14.3822
1127.93 12.9601
1130.79 11.0736
1133.65 9.88653
1136.51 9.07310
1139.37 8.48210
1145.10 7.68079
1150.82 7.16222
1156.54 6.79809
1162.26 6.52730
1173.71 6.14858
1185.16 5.89313
1190.88 5.79385
1193.74 5.74995
1196.60 5.71017
1199.46 5.67611
1200.90 5.66298
1202.33 5.65542
1203.76 5.66108
1204.47 5.67594
1205.19 5.71050
1205.54 5.74272
1205.90 5.79428
1206.26 5.88161
1206.62 6.04258
1206.80 6.17882
1206.98 6.38629
1207.15 6.72369
1207.33 7.32092
1207.42 7.81715
1207.51 8.54780
1207.60 9.71711
1207.69 11.7030
1207.78 15.5892
1207.83 19.0650
1207.87 24.5189
1207.91 34.2639
1207.96 52.9054
1207.98 70.3134
1208.00 96.7137
1208.03 140.060
1208.05 212.316
1208.07 336.524
1208.10 419.392
1208.12 336.517
1208.15 212.307
1208.16 156.303
1208.18 117.585
1208.21 72.2274
1208.24 48.9302
1208.27 36.0885
1208.31 27.9196
1208.34 22.6018
1208.40 16.4326
1208.47 13.0382
1208.53 11.0350
1208.65 8.84962
1208.78 7.74154
1208.91 7.10860
1209.04 6.71333
1209.16 6.45166
1209.42 6.13220
1209.67 5.95371
1209.92 5.84302
1210.17 5.76927
1210.68 5.67898
1211.19 5.62691
1212.20 5.56905
1213.21 5.53625
1214.23 5.51356
1216.25 5.48061
1220.31 5.43177
1224.36 5.39060
1228.41 5.35286
1232.47 5.31735
1240.57 5.25104
1256.78 5.13056
1272.99 5.01853
1289.21 4.90798
1305.42 4.79270
1313.52 4.73151
1321.63 4.66831
1325.68 4.63806
1327.71 4.62508
1329.73 4.61630
1331.76 4.61882
1332.77 4.63095
1333.79 4.66129
1334.29 4.69042
1334.80 4.73761
1335.31 4.81866
1335.81 4.96986
1336.07 5.09907
1336.32 5.29621
1336.57 5.61881
1336.83 6.19876
1336.95 6.68165
1337.08 7.40758
1337.21 8.57073
1337.33 10.5839
1337.46 14.6073
1337.52 18.2617
1337.59 24.2994
1337.65 35.5420
1337.68 45.0449
1337.71 58.9530
1337.74 81.9624
1337.78 120.239
1337.81 193.859
1337.84 333.247
1337.87 529.305
1337.89 659.531
1337.92 529.370
1337.95 333.332
1337.97 229.325
1337.99 162.913
1338.01 120.306
1338.03 92.1016
1338.07 59.0006
1338.11 41.3851
1338.16 31.0230
1338.20 24.4507
1338.28 16.9930
1338.37 13.0037
1338.45 10.6771
1338.53 9.17290
1338.62 8.16692
1338.78 6.92310
1338.95 6.21761
1339.12 5.77906
1339.28 5.48775
1339.62 5.13629
1339.95 4.93960
1340.29 4.81779
1340.62 4.73657
1341.29 4.63690
1341.96 4.57867
1343.29 4.51233
1344.63 4.47268
1345.96 4.44345
1348.64 4.39671
1353.98 4.31417
1359.33 4.22855
1364.67 4.13315
1370.02 4.02363
1380.71 3.74070
1386.05 3.55067
1391.40 3.30968
1396.74 2.99284
1402.09 2.55752
1404.76 2.27369
1407.43 1.92881
1410.10 1.50752
1412.78 1.00513
1414.11 0.737414
1415.45 0.494509
1416.12 0.405460
1416.79 0.363740
1417.12 0.371276
1417.45 0.406296
1417.79 0.477979
1418.12 0.598784
1418.46 0.785836
1418.79 1.06301
1419.12 1.46415
1419.46 2.03816
1419.79 2.85725
1420.13 4.03083
1420.46 5.72973
1420.79 8.23032
1421.13 11.9993
1421.46 17.8666
1421.80 27.4074
1422.13 43.8651
1422.46 74.6643
1422.63 100.576
1422.80 139.338
1422.96 199.872
1423.13 299.185
1423.30 470.380
1423.47 772.416
1423.65 1306.20
1423.83 1724.80
1424.01 1454.35
1424.20 955.651
1424.41 578.719
1424.62 378.212
1424.83 266.181
1425.04 198.715
1425.25 155.241
1425.46 125.626
1425.89 88.9268
1426.31 67.7702
1426.73 54.3584
1427.57 38.7438
1428.42 30.1801
1429.26 24.8831
1430.11 21.3283
1430.95 18.7984
1432.64 15.4672
1434.33 13.3918
1436.01 11.9843
1437.70 10.9711
1441.08 9.61473
1444.46 8.75168
1447.83 8.15501
1451.21 7.71797
1457.96 7.11986
1464.71 6.72852
1471.46 6.45103
1478.22 6.24281
1491.72 5.94779
1505.23 5.74476
1532.23 5.47113
1559.24 5.27930
1586.25 5.11920
1599.76 5.04196
1613.26 4.96233
1620.02 4.92074
1626.77 4.87852
1630.14 4.85884
1633.52 4.84587
1635.21 4.84958
1636.05 4.85960
1636.90 4.88325
1637.74 4.94114
1638.16 5.00179
1638.58 5.11434
1638.79 5.20958
1639.01 5.35478
1639.22 5.59116
1639.43 6.01323
1639.53 6.36265
1639.64 6.87870
1639.74 7.70453
1639.85 9.11286
1639.96 11.8742
1640.01 14.3525
1640.06 18.2731
1640.11 25.3024
1640.17 39.3299
1640.19 52.3602
1640.22 72.5470
1640.25 106.390
1640.27 164.215
1640.30 259.072
1640.33 321.978
1640.36 259.082
1640.38 164.228
1640.42 95.4325
1640.45 61.2262
1640.48 42.1703
1640.51 31.3956
1640.55 24.4357
1640.58 19.9656
1640.64 14.5289
1640.71 11.5472
1640.77 9.74331
1640.90 7.76831
1641.03 6.76960
1641.16 6.19600
1641.29 5.83647
1641.42 5.59779
1641.68 5.30576
1641.94 5.14177
1642.46 4.97275
1642.98 4.89016
1643.50 4.84266
1644.54 4.79007
1646.62 4.73943
1648.70 4.70814
1652.85 4.65673
1657.01 4.60560
1665.32 4.48644
1673.63 4.32485
1677.78 4.21677
1681.94 4.07917
1686.10 3.89605
1690.25 3.63768
1692.33 3.46315
1694.41 3.24210
1696.49 2.95339
1698.56 2.56317
1699.60 2.31420
1700.64 2.01952
1701.68 1.67619
1702.72 1.30629
1703.24 1.14396
1703.76 1.05390
1704.02 1.06859
1704.28 1.15742
1704.54 1.36741
1704.80 1.77727
1704.93 2.09972
1705.06 2.53475
1705.19 3.12122
1705.32 3.91433
1705.45 4.99424
1705.58 6.48014
1705.71 8.55441
1705.84 11.4783
1705.97 15.7674
1706.10 22.2164
1706.23 32.3088
1706.35 48.7792
1706.48 77.9988
1706.55 101.270
1706.61 134.379
1706.68 182.911
1706.74 256.280
1706.81 370.106
1706.87 543.958
1706.97 924.323
1707.06 1221.52
1707.15 1033.92
1707.24 684.811
1707.35 417.274
1707.45 274.714
1707.56 194.009
1707.66 145.755
1707.77 114.292
1707.87 93.0238
1708.08 66.4587
1708.29 51.0995
1708.51 41.3375
1708.93 29.9544
1709.35 23.6675
1709.77 19.7738
1710.19 17.1461
1710.61 15.2754
1711.46 12.8008
1712.30 11.2532
1713.14 10.2005
1713.98 9.44085
1715.67 8.42081
1717.36 7.77004
1719.04 7.31913
1720.73 6.98830
1724.10 6.53470
1727.47 6.23750
1730.85 6.02662
1734.22 5.86835
1740.96 5.64430
1747.71 5.49063
1761.20 5.28600
1774.69 5.14779
1788.18 5.04147
1794.92 4.99559
1801.67 4.95409
1805.04 4.93611
1808.41 4.92406
1810.10 4.92568
1811.78 4.94874
1812.63 4.98935
1813.05 5.03215
1813.47 5.11157
1813.89 5.28218
1814.10 5.45058
1814.31 5.75066
1814.42 6.00096
1814.52 6.37210
1814.63 6.96931
1814.73 7.99595
1814.84 10.0345
1814.89 11.8892
1814.94 14.8660
1815.00 20.3194
1815.02 24.7379
1815.05 31.2792
1815.08 41.9611
1815.10 59.1420
1815.13 89.4724
1815.15 144.852
1815.18 228.719
1815.20 284.578
1815.23 228.703
1815.25 144.830
1815.27 106.961
1815.29 80.7610
1815.32 50.7205
1815.35 34.6298
1815.38 25.7826
1815.41 20.1662
1815.44 16.6099
1815.51 12.3861
1815.57 10.0517
1815.63 8.67045
1815.76 7.15140
1815.88 6.38725
1816.01 5.94983
1816.13 5.67632
1816.26 5.49394
1816.51 5.27324
1816.76 5.14959
1817.26 5.02242
1817.76 4.96074
1818.26 4.92560
1819.26 4.88742
1821.26 4.85251
1823.26 4.83284
1827.26 4.80423
1831.26 4.77961
1847.27 4.68731
1863.27 4.59356
1879.28 4.49313
1895.29 4.38155
1911.29 4.25347
1919.29 4.18141
1927.30 4.10410
1931.30 4.06539
1935.30 4.03378
1937.30 4.03027
1938.30 4.03868
1939.30 4.06421
1940.30 4.13307
1940.80 4.20774
1941.30 4.34854
1941.55 4.46878
1941.80 4.65312
1942.05 4.95498
1942.30 5.49752
1942.43 5.94672
1942.55 6.62001
1942.68 7.69432
1942.80 9.56216
1942.93 13.2425
1942.99 16.6221
1943.05 22.0903
1943.12 32.1508
1943.15 40.3880
1943.18 52.6829
1943.21 72.8375
1943.24 105.922
1943.27 165.661
1943.30 279.596
1943.33 447.162
1943.36 555.247
1943.39 447.206
1943.42 279.652
1943.44 176.547
1943.47 116.433
1943.50 81.6359
1943.53 60.9234
1943.56 46.9107
1943.58 37.4043
1943.64 25.9375
1943.69 19.3577
1943.75 15.3803
1943.86 10.9334
1943.97 8.62496
1944.08 7.29759
1944.19 6.45193
1944.30 5.88939
1944.52 5.20054
1944.74 4.81242
1944.96 4.57185
1945.19 4.41203
1945.63 4.21838
1946.07 4.10855
1946.95 3.99131
1947.84 3.92931
1948.72 3.88926
1950.49 3.83533
1954.03 3.75914
1957.56 3.69148
1961.10 3.62290
1964.64 3.55061
1971.71 3.38926
1978.78 3.19778
1985.85 2.96489
1992.93 2.67455
2000.00 2.30265
2004.49 2.00847
2008.98 1.65537
2013.47 1.23254
2017.96 0.746663
2020.20 0.503040
2022.44 0.305865
2023.57 0.253120
2024.69 0.261583
2025.25 0.301109
2025.81 0.373952
2026.37 0.490490
2026.93 0.664667
2027.50 0.915976
2028.06 1.26973
2028.62 1.76298
2029.18 2.44809
2029.74 3.40136
2030.30 4.73670
2030.86 6.62900
2031.42 9.35569
2031.98 13.3745
2032.54 19.4763
2033.11 29.1084
2033.67 45.1089
2034.23 73.5476
2034.51 96.3682
2034.79 128.849
2035.07 176.835
2035.35 249.460
2035.63 363.185
2035.91 540.834
2036.31 926.560
2036.70 1233.41
2037.09 1047.83
2037.48 696.594
2037.85 464.145
2038.22 324.339
2038.59 238.568
2038.96 183.676
2039.70 120.515
2040.44 87.0905
2041.19 67.2014
2041.93 54.3286
2043.41 39.0629
2044.89 30.5411
2046.37 25.2188
2047.85 21.6200
2049.33 19.0481
2052.30 15.6433
2055.26 13.5133
2058.22 12.0642
2061.19 11.0186
2067.11 9.61501
2073.04 8.71850
2078.97 8.09626
2084.89 7.63860
2096.75 7.00752
2108.60 6.58883
2120.45 6.28652
2132.30 6.05425
2156.01 5.70949
2179.72 5.44964
2191.57 5.33607
2203.42 5.22882
2209.35 5.17761
2215.28 5.13088
2218.24 5.11350
2221.20 5.11354
2222.68 5.13758
2223.43 5.16833
2224.17 5.22993
2224.91 5.36885
2225.28 5.50986
2225.65 5.76656
2225.83 5.98304
2226.02 6.30951
2226.20 6.83752
2226.39 7.77298
2226.48 8.54265
2226.57 9.67054
2226.67 11.4627
2226.76 14.4782
2226.85 20.2904
2226.90 25.3389
2226.94 33.3105
2226.99 47.2879
2227.04 73.3051
2227.06 95.6247
2227.08 129.571
2227.11 182.955
2227.13 267.464
2227.16 424.788
2227.19 529.620
2227.22 424.839
2227.24 267.527
2227.27 171.858
2227.30 116.092
2227.33 82.9174
2227.35 62.1737
2227.41 39.1599
2227.46 27.5479
2227.51 20.9449
2227.57 16.8525
2227.68 12.2708
2227.78 9.90565
2227.89 8.52974
2228.00 7.65995
2228.11 7.07996
2228.32 6.36549
2228.54 5.96311
2228.76 5.71400
2228.97 5.54949
2229.40 5.34998
2229.83 5.23812
2230.70 5.12101
2231.56 5.06155
2232.42 5.02525
2234.15 4.98048
2237.60 4.92642
2241.05 4.88473
2247.95 4.80757
2254.85 4.72866
2268.65 4.55041
2282.45 4.32236
2289.35 4.17606
2296.25 3.99477
2303.15 3.75954
2310.05 3.43549
2313.51 3.22027
2316.96 2.95097
2320.41 2.60361
2323.86 2.14107
2325.58 1.85016
2327.31 1.51094
2329.03 1.12457
2330.76 0.727651
2331.62 0.570650
2332.48 0.515735
2332.91 0.568079
2333.35 0.715769
2333.78 1.01590
2333.99 1.25159
2334.21 1.56489
2334.42 1.98254
2334.64 2.53581
2334.86 3.26963
2335.07 4.24187
2335.29 5.55161
2335.50 7.31769
2335.72 9.75462
2335.93 13.1445
2336.15 18.0104
2336.36 25.1631
2336.58 36.0485
2336.80 53.2535
2337.01 82.2545
2337.23 134.085
2337.33 175.874
2337.44 235.175
2337.55 320.432
2337.66 441.209
2337.85 756.573
2338.04 1013.40
2338.22 867.704
2338.41 578.467
2338.53 442.877
2338.65 345.471
2338.88 224.311
2339.11 158.015
2339.35 118.575
2339.58 93.3268
2339.81 76.1809
2340.28 54.9843
2340.74 42.7025
2341.21 34.8827
2342.14 25.7157
2343.07 20.6237
2344.00 17.4426
2344.93 15.2836
2345.87 13.7344
2347.73 11.6689
2349.59 10.3630
2351.45 9.46588
2353.32 8.81255
2357.04 7.92473
2360.77 7.34819
2364.50 6.94174
2368.22 6.63808
2375.67 6.20938
2383.12 5.91508
2398.03 5.51843
2412.93 5.24102
2427.83 5.01473
2435.28 4.91059
2442.74 4.80947
2450.19 4.71334
2452.05 4.69375
2453.91 4.68522
2454.85 4.69621
2455.78 4.75032
2456.24 4.83549
2456.48 4.92237
2456.71 5.07985
2456.94 5.41032
2457.06 5.73064
2457.17 6.28600
2457.29 7.39922
2457.35 8.41146
2457.41 10.0862
2457.46 13.1434
2457.49 15.7074
2457.52 19.5824
2457.55 25.7872
2457.58 36.4555
2457.61 56.3416
2457.64 96.3995
2457.66 150.957
2457.69 188.354
2457.71 150.972
2457.74 96.4181
2457.77 57.3095
2457.79 37.4640
2457.82 26.3535
2457.85 20.0981
2457.88 16.0393
2457.91 13.4437
2457.97 10.2786
2458.02 8.54259
2458.08 7.49222
2458.19 6.34873
2458.31 5.76344
2458.42 5.42947
2458.65 5.07700
2458.87 4.90409
2459.10 4.80657
2459.56 4.70393
2460.46 4.62021
2461.37 4.58188
2463.19 4.53723
2465.01 4.50412
2472.28 4.38773
2479.54 4.26910
2486.81 4.14141
2501.35 3.84397
2515.89 3.45637
2523.16 3.20795
2530.43 2.90387
2537.70 2.51980
2544.96 2.01750
2548.60 1.70517
2552.23 1.34259
2555.87 0.929440
2559.50 0.498869
2561.32 0.319512
2562.23 0.259135
2563.14 0.234784
2563.59 0.242281
2564.05 0.267468
2564.95 0.390585
2565.41 0.502236
2565.86 0.659234
2566.32 0.874642
2566.77 1.16550
2567.23 1.55564
2567.68 2.07447
2568.13 2.76563
2568.59 3.68937
2569.04 4.93511
2569.50 6.62400
2569.95 8.94835
2570.41 12.2022
2570.86 16.8690
2571.31 23.7165
2571.77 34.1319
2572.22 50.6715
2572.68 78.4817
2573.13 128.284
2573.36 168.213
2573.59 224.761
2573.81 305.888
2574.04 421.874
2574.44 725.729
2574.84 974.872
2575.24 836.642
2575.64 558.596
2576.07 355.574
2576.50 240.662
2576.93 173.778
2577.36 132.318
2577.79 105.027
2578.22 86.1284
2579.07 62.2917
2579.93 48.2875
2580.79 39.2813
2582.51 28.6290
2584.22 22.6819
2585.94 18.9496
2587.65 16.4125
2589.37 14.5852
2592.80 12.1389
2596.23 10.5780
2599.67 9.49124
2603.10 8.68527
2609.96 7.54722
2616.82 6.74914
2623.69 6.11976
2630.55 5.57165
2644.28 4.50626
2651.14 3.89449
2658.00 3.14818
2661.44 2.69561
2664.87 2.17054
2668.30 1.56094
2671.73 0.882353
2673.45 0.552301
2674.31 0.408544
2675.16 0.295130
2676.02 0.233223
2676.88 0.257027
2677.31 0.317495
2677.74 0.423180
2678.17 0.587540
2678.60 0.828469
2679.02 1.17003
2679.45 1.64502
2679.88 2.29876
2680.31 3.19493
2680.74 4.42473
2681.17 6.12154
2681.60 8.48526
2682.03 11.8241
2682.46 16.6288
2682.89 23.7116
2683.31 34.4779
2683.74 51.4885
2684.17 79.6957
2684.60 129.292
2685.03 222.243
2685.24 297.685
2685.46 402.625
2685.87 702.590
2686.29 949.000
2686.71 817.542
2687.12 551.355
2687.42 408.970
2687.72 311.018
2688.01 243.566
2688.31 196.442
2688.91 137.151
2689.50 102.994
2690.10 81.5270
2690.69 67.1003
2691.88 49.3601
2693.07 39.1382
2694.26 32.6472
2694.86 30.2774
2695.15 29.2751
2695.45 28.4149
2695.75 27.7591
2695.90 27.5754
2696.05 27.5933
2696.19 28.0622
2696.27 28.6821
2696.34 29.8522
2696.42 32.2662
2696.46 34.4078
2696.49 37.8061
2696.53 43.5718
2696.57 54.2746
2696.59 63.5413
2696.60 76.5736
2696.62 97.5751
2696.64 128.775
2696.67 191.865
2696.69 232.588
2696.72 191.734
2696.74 128.518
2696.77 84.9860
2696.80 61.8658
2696.83 49.3372
2696.86 41.9925
2696.89 37.3700
2696.92 34.2850
2696.97 30.5976
2697.03 28.4747
2697.09 27.1630
2697.20 25.6024
2697.32 24.6997
2697.43 24.0873
2697.66 23.2463
2697.89 22.6310
2698.12 22.1239
2698.58 21.2699
2699.50 19.8851
2700.42 18.7544
2702.27 16.9723
2704.11 15.6242
2707.79 13.7156
2711.47 12.4301
2715.16 11.5051
2718.84 10.8071
2726.21 9.82113
2733.57 9.15480
2740.94 8.67143
2755.67 8.01038
2770.40 7.57281
2785.13 7.25731
2792.50 7.13046
2796.18 7.07378
2799.87 7.02209
2803.55 6.97719
2807.23 6.94538
2809.07 6.94130
2810.91 6.96038
2811.84 6.99402
2812.76 7.08232
2813.22 7.19238
2813.45 7.29478
2813.68 7.47195
2813.91 7.82744
2814.02 8.16237
2814.14 8.74049
2814.25 9.87573
2814.31 10.9197
2814.37 12.6110
2814.42 15.7450
2814.45 18.3793
2814.48 22.2002
2814.51 28.4968
2814.54 39.3255
2814.57 59.4825
2814.60 97.0311
2814.62 150.957
2814.65 186.882
2814.67 150.941
2814.70 97.0140
2814.71 72.6744
2814.73 56.7156
2814.76 36.9803
2814.79 26.6859
2814.82 20.8137
2814.85 17.1969
2814.88 14.8282
2814.94 12.0350
2815.01 10.5234
2815.07 9.61954
2815.19 8.65249
2815.32 8.17485
2815.44 7.91539
2815.69 7.68324
2815.93 7.62335
2816.18 7.65341
2816.68 7.92447
2816.92 8.19755
2817.17 8.62557
2817.42 9.32723
2817.66 10.5704
2817.91 13.0798
2818.04 15.4058
2818.16 19.2651
2818.28 26.4885
2818.35 32.6652
2818.41 41.9914
2818.47 57.5120
2818.53 85.2019
2818.59 139.714
2818.62 186.711
2818.65 252.555
2818.70 401.901
2818.75 498.819
2818.80 398.571
2818.84 252.504
2818.87 184.831
2818.90 139.642
2818.97 85.7365
2819.03 58.0979
2819.09 42.5051
2819.15 32.9700
2819.21 26.7553
2819.33 19.4546
2819.45 15.5112
2819.58 13.1489
2819.82 10.5853
2820.06 9.29897
2820.31 8.56325
2820.55 8.10307
2820.79 7.79687
2821.28 7.42338
2821.77 7.21270
2822.75 6.99291
2823.72 6.88293
2824.70 6.81748
2826.65 6.74090
2830.55 6.65896
2834.45 6.60423
2842.25 6.51640
2850.06 6.43889
2865.66 6.29513
2881.27 6.15397
2896.88 6.00085
2904.68 5.91225
2912.49 5.80777
2920.29 5.67508
2924.19 5.59096
2928.09 5.48790
2931.99 5.35625
2933.95 5.27511
2935.90 5.18048
2937.85 5.07063
2939.80 4.95296
2940.77 4.90988
2941.26 4.90782
2941.75 4.94196
2942.24 5.07111
2942.48 5.22458
2942.72 5.52100
2942.97 6.16745
2943.09 6.80026
2943.21 7.91252
2943.33 10.1209
2943.40 12.1366
2943.46 15.4583
2943.52 21.4785
2943.55 26.5864
2943.58 33.9925
2943.61 46.1149
2943.64 65.9222
2943.67 101.500
2943.70 169.864
2943.73 267.870
2943.76 335.063
2943.78 267.796
2943.81 169.754
2943.83 125.257
2943.85 95.2670
2943.88 58.6742
2943.92 39.7734
2943.95 29.2975
2943.98 22.6405
2944.02 18.4004
2944.09 13.2973
2944.16 10.5209
2944.23 8.84728
2944.36 7.01468
2944.50 6.07546
2944.64 5.53138
2944.92 4.93713
2945.19 4.61734
2945.47 4.41010
2946.02 4.12547
2946.57 3.89905
2947.13 3.68144
2948.23 3.19507
2948.78 2.90398
2949.34 2.57206
2949.89 2.20171
2950.44 1.83666
2950.72 1.70419
2950.99 1.68244
2951.27 1.92317
2951.41 2.24382
2951.55 2.80786
2951.69 3.78245
2951.82 5.44315
2951.89 6.68959
2951.96 8.35270
2952.03 10.5985
2952.10 13.6771
2952.17 17.9762
2952.24 24.1179
2952.31 33.1378
2952.38 46.8354
2952.44 68.4824
2952.51 104.286
2952.58 166.235
2952.65 275.583
2952.73 481.098
2952.81 649.774
2952.89 561.266
2952.97 380.205
2953.02 287.256
2953.07 221.593
2953.12 175.611
2953.18 142.857
2953.28 101.050
2953.39 76.7688
2953.49 61.1842
2953.60 50.6501
2953.81 37.6760
2954.02 30.1211
2954.23 25.3094
2954.45 21.9901
2954.66 19.6009
2955.08 16.3967
2955.50 14.3715
2955.93 12.9856
2956.35 11.9840
2957.19 10.6328
2958.04 9.77001
2958.89 9.17161
2959.73 8.73353
2961.42 8.13405
2963.11 7.74283
2964.80 7.46668
2966.49 7.26065
2969.88 6.97182
2973.26 6.77686
2976.64 6.63433
2980.02 6.52403
2986.79 6.36041
2993.55 6.24066
2996.94 6.19153
3000.32 6.15032
3002.01 6.13593
3003.70 6.13628
3004.55 6.15580
3005.39 6.22901
3005.81 6.33745
3006.03 6.44642
3006.24 6.64213
3006.45 7.04967
3006.55 7.44017
3006.66 8.11073
3006.77 9.43899
3006.82 10.6440
3006.87 12.5720
3006.92 16.0880
3006.95 19.0557
3006.98 23.3040
3007.00 30.2195
3007.03 41.2971
3007.06 60.7544
3007.08 97.0132
3007.11 152.229
3007.13 188.104
3007.16 152.221
3007.18 97.0018
3007.21 63.8304
3007.23 44.1994
3007.25 32.6430
3007.28 25.4750
3007.30 20.7902
3007.33 17.5855
3007.37 13.6953
3007.42 11.4352
3007.47 10.0412
3007.56 8.49887
3007.66 7.69531
3007.76 7.23323
3007.95 6.74165
3008.14 6.50046
3008.33 6.36405
3008.71 6.22248
3009.47 6.11216
3010.24 6.06707
3011.76 6.02340
3013.29 5.99705
3019.40 5.92150
3031.61 5.78699
3043.82 5.64140
3056.04 5.46115
3062.14 5.34622
3068.25 5.20314
3074.36 5.01535
3080.46 4.75157
3083.52 4.57268
3086.57 4.34424
3089.62 4.04111
3092.67 3.61890
3094.20 3.33928
3095.73 2.99348
3097.26 2.55901
3098.78 2.01101
3099.55 1.69142
3100.31 1.35486
3101.07 1.04535
3101.45 0.937717
3101.83 0.907882
3102.22 1.02969
3102.60 1.45045
3102.79 1.85915
3102.98 2.48194
3103.17 3.42269
3103.36 4.83820
3103.55 7.01688
3103.74 10.4283
3103.93 15.9421
3104.12 25.1936
3104.32 41.8525
3104.41 55.2895
3104.51 74.2236
3104.60 102.198
3104.70 143.751
3104.79 207.332
3104.89 304.721
3105.03 531.926
3105.18 721.928
3105.32 625.837
3105.46 423.639
3105.60 289.481
3105.73 206.766
3105.87 155.239
3106.00 121.682
3106.27 82.4831
3106.54 61.3378
3106.80 48.5603
3107.07 40.1825
3107.61 30.0883
3108.14 24.3553
3108.68 20.7193
3109.22 18.2321
3109.75 16.4374
3110.82 14.0283
3111.89 12.4991
3112.97 11.4473
3114.04 10.6824
3116.18 9.64480
3118.32 8.97616
3120.47 8.50962
3122.61 8.16561
3126.90 7.69210
3131.18 7.38253
3133.33 7.26638
3135.47 7.17290
3136.54 7.13845
3137.61 7.12608
3138.15 7.14603
3138.69 7.23508
3138.95 7.36900
3139.22 7.73818
3139.36 8.21493
3139.42 8.65795
3139.49 9.40292
3139.56 10.7965
3139.59 12.0175
3139.62 13.8558
3139.66 17.0074
3139.69 22.5587
3139.71 27.2591
3139.72 33.6794
3139.74 43.8187
3139.76 58.8294
3139.78 89.9296
3139.81 110.327
3139.83 89.6626
3139.85 58.4866
3139.87 44.2223
3139.89 34.3562
3139.92 23.2534
3139.95 17.4225
3139.98 14.2592
3140.01 12.2697
3140.04 11.0187
3140.11 9.52615
3140.17 8.72328
3140.23 8.24365
3140.36 7.72697
3140.61 7.31473
3140.86 7.15659
3141.36 7.02981
3141.86 6.97543
3142.87 6.91916
3143.88 6.88362
3145.89 6.83188
3147.90 6.79587
3149.91 6.78159
3151.92 6.82747
3152.92 6.92840
3153.43 7.03854
3153.93 7.24579
3154.43 7.69455
3154.68 8.13799
3154.93 8.93369
3155.06 9.59466
3155.19 10.5858
3155.31 12.1683
3155.44 14.8926
3155.56 20.2918
3155.63 25.1996
3155.69 33.1002
3155.75 47.5268
3155.78 59.7056
3155.81 77.3079
3155.85 105.922
3155.88 152.339
3155.91 234.733
3155.94 386.948
3155.97 618.739
3156.00 767.067
3156.03 618.875
3156.06 387.104
3156.09 224.529
3156.12 141.378
3156.16 96.4860
3156.19 70.2723
3156.23 53.4739
3156.26 42.7155
3156.33 29.8429
3156.40 22.6865
3156.47 18.4260
3156.60 13.7477
3156.74 11.3625
3156.88 9.99468
3157.01 9.13835
3157.15 8.57024
3157.42 7.87629
3157.70 7.48839
3158.24 7.08814
3158.79 6.89435
3159.34 6.78398
3160.43 6.66510
3162.62 6.56018
3164.81 6.50541
3169.18 6.43467
3173.56 6.38186
3177.93 6.33716
3182.31 6.29763
3191.06 6.22909
3199.81 6.17050
3208.56 6.11992
3212.94 6.09861
3217.31 6.08463
3219.50 6.08668
3221.69 6.11359
3222.78 6.16045
3223.87 6.30038
3224.42 6.49414
3224.69 6.68493
3224.97 7.02434
3225.24 7.72401
3225.38 8.39002
3225.51 9.53073
3225.65 11.7712
3225.72 13.7718
3225.79 17.0170
3225.86 22.8860
3225.89 27.6211
3225.92 34.5796
3225.96 45.3049
3225.99 62.7783
3226.03 92.9182
3226.06 146.775
3226.10 232.165
3226.13 287.299
3226.16 232.012
3226.20 146.542
3226.23 92.6793
3226.27 62.5590
3226.30 44.7180
3226.34 34.1578
3226.37 27.1368
3226.40 22.5168
3226.47 16.8389
3226.54 13.5989
3226.61 11.6134
3226.75 9.42557
3226.89 8.29765
3227.02 7.65030
3227.30 6.96699
3227.57 6.63424
3227.85 6.44746
3228.40 6.25592
3229.50 6.11170
3230.60 6.05682
3232.79 6.01020
3234.99 5.98675
3239.39 5.95836
3241.59 5.95921
3242.69 6.00797
3242.96 6.06095
3243.24 6.20553
3243.37 6.39394
3243.51 6.86469
3243.58 7.42801
3243.65 8.66215
3243.68 9.96980
3243.72 12.3269
3243.75 17.2128
3243.77 21.6546
3243.79 28.6800
3243.81 42.4654
3243.83 51.3856
3243.86 42.4620
3243.88 28.6752
3243.90 19.8605
3243.93 15.0296
3243.95 12.2278
3243.97 10.5072
3244.02 8.63012
3244.06 7.69740
3244.16 6.84267
3244.25 6.48512
3244.43 6.19315
3244.62 6.07995
3244.99 5.99255
3245.36 5.95907
3246.84 5.91898
3249.80 5.89310
3255.71 5.85395
3261.63 5.81285
3267.55 5.76610
3273.46 5.71024
3279.38 5.64022
3282.34 5.59838
3285.30 5.55483
3286.78 5.53911
3288.26 5.55032
3289.00 5.59647
3289.74 5.76018
3290.11 6.00125
3290.29 6.24296
3290.48 6.67976
3290.66 7.58678
3290.75 8.46233
3290.85 9.96926
3290.94 12.9750
3290.98 15.6820
3291.03 20.1225
3291.08 28.1248
3291.10 34.7482
3291.12 44.6264
3291.15 60.1591
3291.17 86.1824
3291.19 132.895
3291.21 222.274
3291.24 354.599
3291.26 439.677
3291.28 354.653
3291.30 222.316
3291.32 154.007
3291.33 109.044
3291.35 80.5668
3291.37 62.8153
3291.40 41.1603
3291.43 29.6151
3291.47 22.8143
3291.50 18.4960
3291.56 13.5488
3291.63 10.9095
3291.70 9.38076
3291.83 7.74142
3291.96 6.92234
3292.09 6.46030
3292.36 5.97671
3292.89 5.60325
3293.42 5.45333
3294.48 5.30968
3295.54 5.21807
3297.66 5.04566
3299.77 4.82387
3300.83 4.67523
3301.89 4.48611
3302.95 4.23616
3304.01 3.89091
3304.54 3.66474
3305.07 3.38891
3305.60 3.05042
3306.13 2.64309
3306.39 2.42120
3306.66 2.21061
3306.92 2.06958
3307.19 2.16389
3307.32 2.43530
3307.45 3.02669
3307.59 4.25275
3307.72 6.76992
3307.79 9.00312
3307.85 12.3284
3307.92 17.4977
3307.98 25.8631
3308.05 40.1187
3308.08 51.0499
3308.12 66.0373
3308.15 86.9820
3308.18 116.779
3308.21 159.684
3308.25 221.214
3308.31 385.760
3308.37 524.321
3308.42 456.258
3308.48 310.191
3308.54 215.492
3308.59 156.849
3308.64 118.879
3308.69 94.2800
3308.80 64.8216
3308.90 48.7391
3309.01 38.9505
3309.11 32.5024
3309.32 24.7285
3309.53 20.2721
3309.74 17.4528
3309.95 15.5122
3310.16 14.1155
3310.58 12.2352
3311.00 11.0455
3311.42 10.2282
3311.84 9.63431
3312.68 8.83255
3313.51 8.32172
3314.35 7.97155
3315.19 7.72240
3316.03 7.54323
3316.87 7.42063
3317.71 7.35398
3318.55 7.36333
3319.38 7.52315
3319.80 7.73075
3320.22 8.14045
3320.43 8.49594
3320.64 9.04232
3320.85 9.93439
3321.06 11.5128
3321.17 12.8088
3321.27 14.7271
3321.38 17.7342
3321.48 22.7639
3321.59 32.3297
3321.64 40.7351
3321.69 53.6474
3321.74 75.8169
3321.80 116.039
3321.82 149.595
3321.85 199.267
3321.87 274.763
3321.90 391.907
3321.94 621.895
3321.97 777.676
3322.01 622.113
3322.04 392.179
3322.08 227.574
3322.13 142.315
3322.17 96.7014
3322.21 70.2400
3322.25 53.7480
3322.29 42.8521
3322.38 29.9907
3322.46 22.8462
3322.54 18.5745
3322.71 13.8587
3322.88 11.4595
3323.05 10.0886
3323.21 9.22624
3323.38 8.64775
3323.72 7.93964
3324.05 7.53834
3324.72 7.11410
3325.39 6.89905
3326.06 6.76965
3327.39 6.61825
3328.73 6.52796
3330.07 6.46464
3332.75 6.37624
3335.42 6.31370
3338.10 6.26528
3343.45 6.19283
3348.80 6.13962
3354.15 6.09799
3364.85 6.03540
3375.56 5.98907
3386.26 5.95233
3407.66 5.89566
3429.07 5.85257
3439.77 5.83478
3450.47 5.81970
3461.18 5.80903
3466.53 5.80710
3471.88 5.81048
3477.23 5.82698
3479.91 5.84741
3482.58 5.88801
3483.92 5.92368
3485.26 5.97932
3486.60 6.07202
3487.93 6.24180
3488.60 6.38489
3489.27 6.60271
3489.94 6.95740
3490.61 7.59193
3490.94 8.11659
3491.28 8.89874
3491.61 10.1470
3491.95 12.3020
3492.28 16.5360
3492.45 20.3496
3492.62 26.5708
3492.78 37.6885
3492.87 46.8762
3492.95 60.2968
3493.03 81.4065
3493.12 115.753
3493.20 176.641
3493.28 285.318
3493.37 453.718
3493.45 566.280
3493.53 453.929
3493.61 285.619
3493.67 207.979
3493.72 155.722
3493.82 94.7789
3493.93 63.3852
3494.04 45.9007
3494.14 35.1273
3494.25 28.1821
3494.46 19.9878
3494.68 15.5672
3494.89 12.9214
3495.32 10.0525
3495.74 8.61449
3496.17 7.79320
3496.59 7.28047
3497.02 6.93900
3497.87 6.52647
3498.72 6.29597
3499.58 6.15400
3500.43 6.06030
3502.13 5.94750
3503.83 5.88435
3507.24 5.81859
3510.65 5.78553
3514.06 5.76558
3520.87 5.74165
3527.69 5.72644
3534.50 5.71480
3548.13 5.69614
3575.39 5.66587
3602.65 5.63946
3629.91 5.61524
3657.17 5.59283
3684.43 5.57366
3698.06 5.57188
3701.46 5.57732
3704.87 5.59523
3706.58 5.61952
3708.28 5.68230
3709.13 5.76116
3709.98 5.96202
3710.41 6.21704
3710.62 6.45820
3710.83 6.87856
3711.05 7.72310
3711.15 8.51935
3711.26 9.86743
3711.37 12.4923
3711.42 14.8092
3711.47 18.5297
3711.53 25.0311
3711.58 37.7942
3711.61 49.4517
3711.63 67.2170
3711.66 97.8519
3711.69 148.094
3711.72 234.876
3711.74 290.782
3711.77 235.177
3711.80 148.530
3711.84 90.0061
3711.87 58.3879
3711.90 41.1254
3711.93 31.2172
3711.97 24.7511
3712.00 20.5683
3712.06 15.4509
3712.13 12.6037
3712.19 10.9195
3712.32 9.10822
3712.46 8.24640
3712.59 7.83215
3712.85 7.69301
3713.11 8.32222
3713.24 9.10488
3713.37 10.5342
3713.50 13.4372
3713.56 16.0690
3713.63 20.3799
3713.69 28.1102
3713.73 34.5868
3713.76 43.8909
3713.79 58.8578
3713.82 82.8532
3713.86 126.509
3713.89 204.550
3713.92 325.013
3713.95 402.837
3713.98 324.605
3714.01 203.955
3714.05 127.687
3714.08 85.2743
3714.11 60.1053
3714.14 45.2594
3714.17 35.3655
3714.20 28.8749
3714.27 20.8947
3714.33 16.3330
3714.39 13.5372
3714.52 10.4557
3714.64 8.86287
3714.77 7.94709
3715.02 6.97831
3715.27 6.50058
3715.52 6.23128
3716.02 5.95113
3716.52 5.81507
3717.02 5.73825
3718.02 5.65834
3720.03 5.59694
3722.03 5.57332
3726.04 5.55405
3730.05 5.54553
3738.07 5.53679
3746.09 5.53238
3754.10 5.53246
3762.12 5.54533
3766.13 5.56892
3768.13 5.59407
3770.14 5.64129
3772.14 5.74398
3773.15 5.84668
3774.15 6.03362
3774.65 6.19051
3775.15 6.42890
3775.65 6.81656
3776.15 7.50958
3776.40 8.08293
3776.65 8.93708
3776.90 10.3027
3777.15 12.6617
3777.40 17.3143
3777.53 21.5154
3777.65 28.3930
3777.78 40.8888
3777.84 51.2517
3777.91 66.4319
3777.97 90.6374
3778.03 130.392
3778.09 202.560
3778.16 336.799
3778.21 533.847
3778.27 667.929
3778.33 533.961
3778.39 336.630
3778.43 238.626
3778.47 173.506
3778.52 130.458
3778.56 101.854
3778.64 66.7773
3778.72 47.5621
3778.81 35.9314
3778.89 28.5616
3779.06 20.0125
3779.22 15.4291
3779.39 12.7252
3779.56 10.9899
3779.72 9.81110
3780.05 8.35583
3780.39 7.52916
3780.72 7.01516
3781.05 6.67481
3781.72 6.26381
3782.38 6.03557
3783.71 5.80331
3785.05 5.69329
3786.38 5.63238
3789.04 5.57023
3794.36 5.52282
3799.68 5.50359
3810.33 5.48492
3820.98 5.47358
3842.27 5.45717
3852.92 5.45490
3855.58 5.45882
3858.24 5.47343
3859.57 5.49532
3860.91 5.55864
3861.57 5.64663
3862.24 5.89188
3862.57 6.22478
3862.74 6.54876
3862.90 7.12452
3863.07 8.31046
3863.15 9.42825
3863.23 11.3492
3863.32 15.0682
3863.36 18.4370
3863.40 23.7373
3863.44 33.2862
3863.48 51.7139
3863.50 68.6749
3863.53 95.9108
3863.55 141.898
3863.57 216.715
3863.59 346.361
3863.61 428.365
3863.63 346.377
3863.66 216.713
3863.68 133.680
3863.70 88.1149
3863.73 62.1390
3863.75 46.3861
3863.77 35.9008
3863.80 29.1609
3863.84 20.9328
3863.89 16.2433
3863.93 13.4386
3864.03 10.3208
3864.12 8.70917
3864.21 7.78811
3864.40 6.81426
3864.58 6.33866
3864.77 6.07398
3865.14 5.80336
3865.88 5.60367
3866.62 5.53203
3868.10 5.47963
3869.58 5.46078
3872.54 5.44703
3875.51 5.44325
3878.47 5.44572
3881.43 5.46255
3882.92 5.48991
3884.40 5.57142
3885.14 5.68625
3885.51 5.80066
3885.88 6.00812
3886.25 6.44535
3886.43 6.86965
3886.62 7.61986
3886.71 8.23576
3886.80 9.13621
3886.90 10.5621
3886.99 12.9488
3887.08 17.5092
3887.13 21.4330
3887.17 27.5666
3887.22 38.1621
3887.27 57.4376
3887.29 73.5916
3887.31 97.6105
3887.34 134.326
3887.36 192.437
3887.39 305.706
3887.42 380.125
3887.45 306.161
3887.48 193.051
3887.50 143.111
3887.52 107.731
3887.56 66.2965
3887.60 45.0311
3887.64 33.0272
3887.68 25.6836
3887.72 20.8953
3887.80 15.2671
3887.88 12.2247
3887.96 10.4008
3888.12 8.41983
3888.28 7.42490
3888.44 6.85568
3888.76 6.26245
3889.08 5.97528
3889.40 5.81454
3890.04 5.65009
3891.32 5.52749
3892.60 5.48240
3895.16 5.44807
3897.72 5.43499
3902.83 5.43072
3904.11 5.43829
3905.39 5.46489
3906.03 5.50432
3906.67 5.61746
3906.99 5.77289
3907.31 6.19602
3907.47 6.74805
3907.55 7.26754
3907.63 8.15336
3907.71 9.84468
3907.75 11.3303
3907.79 13.6831
3907.83 17.7062
3907.87 25.3253
3907.89 31.8647
3907.91 41.8071
3907.93 57.4183
3907.95 80.6799
3907.98 126.865
3908.00 156.369
3908.03 127.223
3908.05 81.1468
3908.08 55.0380
3908.10 39.2981
3908.12 29.6255
3908.14 23.4280
3908.19 16.2752
3908.23 12.6875
3908.28 10.5757
3908.32 9.28623
3908.41 7.81098
3908.50 7.04337
3908.59 6.59418
3908.76 6.11820
3909.12 5.74773
3909.47 5.60937
3910.19 5.50478
3910.90 5.46590
3912.32 5.43590
3913.74 5.42397
3919.42 5.40781
3930.80 5.39526
3953.54 5.37694
3999.03 5.34271
4044.51 5.30832
4067.26 5.29214
4078.63 5.28705
4084.32 5.29053
4087.16 5.30828
4088.58 5.37106
4088.94 5.43154
4089.29 5.59213
4089.47 5.80053
4089.65 6.32895
4089.74 6.97557
4089.82 8.48153
4089.87 10.1400
4089.91 13.3526
4089.94 16.2311
4089.96 20.8085
4089.98 28.4474
4090.00 41.5170
4090.03 63.0636
4090.05 77.3982
4090.07 62.8058
4090.10 41.1889
4090.12 30.0169
4090.13 22.8449
4090.15 18.1924
4090.17 15.0854
4090.21 11.4068
4090.24 9.43325
4090.31 7.50848
4090.39 6.66653
4090.53 5.95722
4090.68 5.67799
4090.97 5.46405
4091.26 5.38591
4091.83 5.32933
4092.41 5.31019
4094.73 5.29729
4099.36 5.32653
4101.68 5.37670
4102.84 5.42849
4103.99 5.52447
4105.15 5.73120
4105.73 5.93696
4106.31 6.30984
4106.60 6.62207
4106.89 7.09279
4107.18 7.85619
4107.47 9.20316
4107.61 10.3074
4107.76 11.9439
4107.90 14.5158
4108.05 18.8523
4108.19 27.1489
4108.27 34.4789
4108.34 45.9022
4108.41 65.6655
4108.48 102.446
4108.52 133.808
4108.55 181.229
4108.59 255.265
4108.63 373.561
4108.67 596.168
4108.72 742.639
4108.77 596.655
4108.81 374.253
4108.86 236.458
4108.90 156.912
4108.95 110.515
4108.99 82.4277
4109.04 63.6562
4109.08 51.1072
4109.17 35.4302
4109.26 26.4814
4109.35 21.0266
4109.53 14.9303
4109.70 11.7746
4109.88 9.95258
4110.06 8.79547
4110.24 8.02295
4110.60 7.07913
4110.95 6.54803
4111.31 6.21970
4111.67 6.00253
4112.38 5.74184
4113.10 5.59700
4114.52 5.44943
4115.95 5.37898
4117.38 5.33952
4120.24 5.29834
4125.95 5.26494
4131.66 5.24980
4143.08 5.23446
4148.79 5.23769
4151.65 5.27234
4152.36 5.30937
4153.08 5.41319
4153.43 5.55434
4153.79 5.94023
4153.97 6.45400
4154.15 7.79917
4154.24 9.49366
4154.28 11.0677
4154.33 13.6201
4154.37 18.4145
4154.39 22.3751
4154.41 28.3688
4154.44 38.5579
4154.46 55.6310
4154.48 87.8743
4154.49 114.643
4154.50 155.021
4154.52 245.873
4154.54 304.674
4154.56 245.718
4154.58 154.746
4154.59 111.498
4154.60 81.7813
4154.62 62.1278
4154.63 48.8059
4154.65 32.7905
4154.68 24.0684
4154.71 18.8612
4154.73 15.5251
4154.78 11.7242
4154.84 9.65464
4154.89 8.43105
4154.99 7.12865
4155.20 6.10915
4155.40 5.72997
4155.82 5.44698
4156.23 5.34497
4157.06 5.27068
4157.88 5.24414
4161.19 5.21646
4167.80 5.20491
4174.41 5.20287
4177.72 5.22191
4178.54 5.24443
4179.37 5.30964
4179.78 5.39983
4180.20 5.64831
4180.40 5.97883
4180.51 6.29305
4180.61 6.83703
4180.71 7.91581
4180.76 8.89508
4180.82 10.4614
4180.87 13.3172
4180.89 15.6715
4180.92 19.0028
4180.94 24.3610
4180.97 33.2133
4181.00 48.7600
4181.02 75.6114
4181.05 118.764
4181.07 146.288
4181.10 118.994
4181.12 75.9103
4181.14 53.2528
4181.16 38.9613
4181.18 29.8347
4181.20 23.8129
4181.24 16.6439
4181.28 12.9569
4181.33 10.7439
4181.37 9.38002
4181.45 7.81439
4181.53 6.97875
4181.61 6.48748
4181.77 5.96530
4182.09 5.55832
4182.41 5.40618
4183.06 5.29165
4183.70 5.24964
4184.99 5.21840
4186.28 5.20722
4191.45 5.20342
4194.03 5.21825
4196.61 5.26966
4197.90 5.34472
4198.54 5.42029
4199.19 5.55816
4199.83 5.84958
4200.16 6.13520
4200.48 6.64200
4200.80 7.68090
4200.96 8.65992
4201.12 10.3373
4201.29 13.5962
4201.37 16.4995
4201.45 21.0952
4201.53 29.2020
4201.61 44.8130
4201.65 59.0227
4201.69 80.8662
4201.73 116.633
4201.77 177.232
4201.82 279.899
4201.86 349.640
4201.91 280.130
4201.95 177.554
4201.98 129.155
4202.01 95.9109
4202.05 73.4769
4202.08 58.0156
4202.14 39.0930
4202.20 28.7283
4202.26 22.3369
4202.32 18.2087
4202.45 13.4291
4202.57 10.8424
4202.69 9.31204
4202.94 7.65381
4203.19 6.82047
4203.43 6.34539
4203.93 5.85259
4204.42 5.61415
4204.91 5.48116
4205.90 5.34484
4207.87 5.24289
4209.85 5.20459
4213.80 5.17343
4217.74 5.15909
4233.54 5.12983
4249.33 5.10869
4257.22 5.10621
4259.20 5.11336
4261.17 5.14011
4262.16 5.18075
4263.15 5.29911
4263.64 5.46317
4264.13 5.91280
4264.38 6.50655
4264.50 7.06773
4264.63 8.03211
4264.75 9.91779
4264.81 11.6057
4264.87 14.2763
4264.94 19.0291
4265.00 28.2112
4265.03 36.5355
4265.06 49.7694
4265.09 71.8299
4265.12 109.124
4265.15 171.867
4265.19 213.669
4265.22 172.244
4265.26 109.645
4265.29 71.4336
4265.32 49.1687
4265.35 35.9701
4265.38 27.9441
4265.45 18.8186
4265.51 14.1903
4265.57 11.5160
4265.64 9.88478
4265.76 8.04988
4265.89 7.09200
4266.02 6.53777
4266.27 5.94863
4266.77 5.49301
4267.28 5.32258
4268.29 5.19381
4269.30 5.14567
4271.32 5.10779
4273.34 5.09188
4281.42 5.06593
4297.59 5.03536
4313.76 5.00554
4329.92 4.97343
4346.09 4.93807
4362.26 4.89888
4378.42 4.85765
4386.51 4.84959
4388.53 4.86086
4390.55 4.90494
4391.56 4.97204
4392.57 5.16625
4393.08 5.43420
4393.33 5.69883
4393.58 6.17156
4393.83 7.15341
4393.96 8.09050
4394.09 9.72032
4394.21 12.9714
4394.28 15.9183
4394.34 20.7761
4394.40 29.5958
4394.43 37.0928
4394.46 48.0041
4394.50 65.9164
4394.53 95.3900
4394.56 151.181
4394.59 254.628
4394.62 404.462
4394.65 504.367
4394.67 404.616
4394.70 254.806
4394.72 177.825
4394.74 129.853
4394.76 96.7735
4394.78 75.5529
4394.83 49.4232
4394.87 35.5272
4394.91 27.0010
4394.95 21.5568
4395.03 15.3415
4395.11 11.9960
4395.19 10.0381
4395.35 7.91834
4395.52 6.86502
4395.68 6.26673
4396.01 5.64876
4396.33 5.35041
4396.66 5.18416
4397.31 5.01450
4398.61 4.88724
4399.91 4.83868
4402.52 4.79715
4405.13 4.77581
4415.55 4.72150
4425.97 4.67055
4436.40 4.61410
4446.82 4.54957
4457.24 4.47498
4467.67 4.39182
4472.88 4.36471
4474.18 4.37433
4475.49 4.42283
4476.14 4.49883
4476.79 4.71588
4477.12 5.00915
4477.28 5.29274
4477.44 5.78748
4477.60 6.78511
4477.69 7.71887
4477.77 9.27255
4477.85 12.2301
4477.89 14.7985
4477.93 18.6984
4477.97 25.3830
4478.01 37.3190
4478.03 47.7668
4478.05 62.5083
4478.07 84.7131
4478.09 119.855
4478.12 189.192
4478.15 234.799
4478.18 188.696
4478.20 119.180
4478.23 84.0453
4478.25 61.8851
4478.27 46.6037
4478.29 36.8028
4478.33 24.7414
4478.37 18.3336
4478.41 14.4065
4478.45 11.9019
4478.53 9.04761
4478.61 7.51500
4478.69 6.62022
4478.86 5.65851
4479.02 5.17880
4479.18 4.90748
4479.51 4.62847
4480.16 4.41966
4480.81 4.34301
4482.11 4.28638
4483.41 4.27302
4484.71 4.29443
4486.02 4.40767
4486.67 4.58582
4486.99 4.76839
4487.32 5.10139
4487.64 5.80398
4487.81 6.48500
4487.97 7.67183
4488.13 10.0510
4488.21 12.2230
4488.29 15.8229
4488.38 22.5192
4488.42 28.1858
4488.46 36.5597
4488.50 50.3578
4488.54 73.5814
4488.58 118.223
4488.62 205.156
4488.65 327.567
4488.69 407.271
4488.72 328.326
4488.76 206.215
4488.79 135.674
4488.82 92.6038
4488.85 66.6428
4488.88 50.6823
4488.94 32.3181
4489.00 22.9061
4489.06 17.4296
4489.12 14.0766
4489.25 10.2887
4489.37 8.30272
4489.49 7.15057
4489.74 5.91830
4489.98 5.30921
4490.23 4.96284
4490.72 4.60099
4491.21 4.42262
4491.70 4.31934
4492.68 4.20535
4494.64 4.09843
4496.60 4.03582
4500.52 3.93808
4504.43 3.84387
4508.35 3.74248
4512.27 3.62962
4516.19 3.50433
4518.15 3.44962
4519.13 3.47951
4519.38 3.53722
4519.62 3.70758
4519.75 3.93434
4519.87 4.49822
4519.93 5.15553
4519.99 6.57789
4520.02 8.01836
4520.05 10.4912
4520.08 15.4968
4520.10 19.6628
4520.11 26.1211
4520.14 39.5583
4520.16 49.0257
4520.18 39.6517
4520.21 26.2362
4520.23 18.5016
4520.25 13.7421
4520.29 8.97870
4520.33 6.77359
4520.36 5.65432
4520.44 4.57725
4520.52 4.10794
4520.68 3.70827
4520.84 3.54756
4521.47 3.35591
4522.72 3.25350
4525.24 3.11854
4530.28 2.82266
4535.31 2.44369
4540.35 1.94040
4542.86 1.62586
4545.38 1.26226
4547.90 0.854818
4550.41 0.451026
4551.67 0.303688
4552.30 0.267556
4552.93 0.275190
4553.56 0.349931
4554.19 0.527710
4554.82 0.866157
4555.14 1.12355
4555.45 1.45988
4556.08 2.47237
4556.71 4.18930
4557.34 7.15785
4557.97 12.4870
4558.28 16.7186
4558.60 22.6644
4558.91 31.2156
4559.23 43.8081
4559.54 63.0693
4559.85 93.3566
4560.17 142.792
4560.48 223.677
4560.90 396.533
4561.32 547.275
4561.74 481.223
4562.16 328.858
4562.47 242.965
4562.78 184.337
4563.09 144.436
4563.40 116.650
4564.02 81.9759
4564.64 62.0910
4565.27 49.6119
4565.89 41.2244
4567.13 30.8973
4568.38 24.9436
4569.62 21.2089
4570.24 19.9225
4570.55 19.4413
4570.86 19.1295
4571.18 19.1529
4571.33 19.4406
4571.49 20.1399
4571.64 21.7940
4571.72 23.4206
4571.80 26.1641
4571.88 31.3666
4571.91 35.8111
4571.95 42.6204
4571.99 53.6960
4572.03 73.1148
4572.07 110.258
4572.09 140.426
4572.11 183.771
4572.14 283.959
4572.17 351.789
4572.20 284.318
4572.24 184.196
4572.26 126.760
4572.29 91.1125
4572.32 69.3840
4572.35 55.5485
4572.40 39.9127
4572.46 31.9732
4572.51 27.2818
4572.57 24.3327
4572.68 20.9774
4572.79 19.1551
4572.90 18.0488
4573.13 16.7613
4573.35 16.0107
4573.57 15.4953
4574.02 14.7767
4574.91 13.8117
4575.80 13.0962
4576.69 12.5093
4577.58 12.0094
4579.36 11.1935
4582.93 10.0323
4586.49 9.24262
4590.05 8.67037
4593.62 8.23681
4600.75 7.62347
4607.87 7.20989
4615.00 6.91162
4629.26 6.50814
4643.51 6.24522
4657.77 6.05761
4686.28 5.79984
4714.79 5.61978
4743.29 5.47341
4771.80 5.33848
4786.06 5.27987
4789.62 5.27530
4793.19 5.29661
4794.97 5.34287
4796.75 5.48932
4797.64 5.69642
4798.09 5.90152
4798.53 6.26822
4798.98 7.02493
4799.20 7.74577
4799.42 8.98507
4799.65 11.4134
4799.76 13.5880
4799.87 17.1178
4799.98 23.4579
4800.04 28.6500
4800.09 36.1436
4800.15 47.9112
4800.20 66.7390
4800.26 99.8421
4800.31 158.625
4800.37 250.896
4800.43 312.168
4800.48 250.933
4800.54 158.628
4800.59 100.603
4800.65 67.5935
4800.70 48.4075
4800.76 36.7832
4800.81 29.0664
4800.87 23.8960
4800.98 17.4659
4801.08 13.8346
4801.19 11.5943
4801.41 9.09694
4801.63 7.81282
4801.85 7.06752
4802.28 6.28112
4802.72 5.89611
4803.16 5.67888
4804.03 5.45402
4805.77 5.28137
4807.52 5.21240
4811.01 5.14766
4814.49 5.10908
4828.45 4.98698
4835.43 4.92163
4842.40 4.85010
4845.89 4.81442
4849.38 4.78950
4851.12 4.79611
4852.87 4.86169
4853.74 4.97629
4854.61 5.31982
4855.05 5.79229
4855.27 6.25075
4855.48 7.05533
4855.70 8.65642
4855.81 10.1238
4855.92 12.5538
4856.03 16.9901
4856.08 20.7496
4856.14 26.3205
4856.19 35.3923
4856.25 50.6432
4856.30 79.4297
4856.36 134.656
4856.40 213.654
4856.45 265.298
4856.50 214.157
4856.55 135.396
4856.60 82.3640
4856.65 54.0203
4856.70 37.9559
4856.75 28.5791
4856.80 22.5062
4856.85 18.5182
4856.96 13.6476
4857.06 10.9455
4857.16 9.29700
4857.37 7.48188
4857.57 6.54857
4857.78 6.00990
4858.19 5.43740
4858.60 5.15302
4859.01 4.98981
4859.84 4.81374
4861.48 4.66063
4863.12 4.58159
4866.41 4.47191
4869.70 4.37228
4872.99 4.26537
4876.28 4.14383
4882.86 3.82953
4886.15 3.61786
4889.44 3.34969
4892.73 2.99870
4896.02 2.52233
4897.66 2.21675
4899.31 1.85227
4900.95 1.42066
4902.60 0.935080
4904.24 0.516606
4905.07 0.495487
4905.48 0.619343
4905.89 0.914291
4906.30 1.50123
4906.51 1.96650
4906.71 2.59580
4906.92 3.45539
4907.12 4.62272
4907.33 6.23599
4907.53 8.46897
4907.74 11.6383
4907.94 16.1803
4908.15 22.9163
4908.36 33.1067
4908.56 49.2398
4908.77 75.5627
4908.97 120.651
4909.18 198.292
4909.43 353.678
4909.67 489.457
4909.92 432.027
4910.17 297.086
4910.45 190.208
4910.74 130.515
4911.02 95.8608
4911.30 74.4781
4911.58 60.3175
4911.87 50.5036
4912.43 38.0154
4913.00 30.5702
4913.56 25.7232
4914.69 19.9045
4915.82 16.6007
4916.95 14.5405
4917.51 13.8295
4918.08 13.3871
4918.36 13.3915
4918.50 13.5409
4918.64 13.9125
4918.78 14.7916
4918.85 15.6659
4918.92 17.1471
4919.00 19.9838
4919.03 22.3879
4919.07 26.0803
4919.10 32.3352
4919.14 43.1717
4919.17 64.2219
4919.19 82.7540
4919.21 107.977
4919.23 166.583
4919.26 203.735
4919.29 164.242
4919.32 107.618
4919.34 77.7785
4919.36 59.2184
4919.38 46.5031
4919.40 38.3867
4919.44 28.4379
4919.48 23.0646
4919.52 19.8666
4919.56 17.8163
4919.64 15.4333
4919.73 14.1449
4919.81 13.3603
4919.97 12.4688
4920.30 11.6503
4920.63 11.2260
4921.28 10.6963
4921.94 10.3182
4923.25 9.74152
4924.56 9.29785
4927.18 8.64094
4929.80 8.17412
4935.05 7.55196
4940.29 7.15541
4945.53 6.88003
4950.77 6.67725
4961.26 6.39787
4971.75 6.21451
4976.99 6.14557
4982.23 6.08914
4987.47 6.04714
4992.72 6.03409
4995.34 6.06069
4996.65 6.09870
4997.96 6.17698
4999.27 6.35552
4999.92 6.53679
5000.58 6.86753
5001.24 7.56459
5001.56 8.24216
5001.89 9.43403
5002.05 10.4070
5002.22 11.8432
5002.38 14.0880
5002.55 17.8480
5002.71 24.9537
5002.79 31.1028
5002.87 40.6973
5002.96 56.7637
5003.04 86.2636
5003.08 110.810
5003.12 147.048
5003.16 201.921
5003.20 284.833
5003.26 452.471
5003.32 564.080
5003.37 452.726
5003.43 285.138
5003.49 177.987
5003.54 118.590
5003.60 84.0390
5003.65 62.7761
5003.71 48.9539
5003.77 39.5345
5003.88 27.9649
5003.99 21.3952
5004.10 17.3889
5004.33 12.9224
5004.55 10.6177
5004.78 9.28700
5005.00 8.44652
5005.22 7.88195
5005.67 7.19268
5006.12 6.80504
5007.02 6.40442
5007.92 6.21072
5008.81 6.10108
5010.61 5.98485
5014.20 5.88696
5017.78 5.83962
5024.96 5.78297
5032.14 5.74271
5046.49 5.67970
5060.84 5.62864
5075.20 5.58502
5089.55 5.54714
5103.91 5.51606
5111.08 5.51037
5114.67 5.53526
5115.57 5.56420
5116.46 5.64551
5116.91 5.75548
5117.36 6.05198
5117.59 6.44218
5117.81 7.44870
5117.92 8.69336
5117.98 9.81578
5118.03 11.6468
5118.09 14.9220
5118.12 17.6137
5118.15 21.6006
5118.17 27.8129
5118.20 38.0893
5118.23 56.1996
5118.26 89.2082
5118.29 139.316
5118.31 172.617
5118.34 138.977
5118.37 88.7558
5118.39 63.2740
5118.41 46.6979
5118.43 35.8854
5118.45 28.6331
5118.49 20.0070
5118.53 15.4454
5118.57 12.6549
5118.61 10.8786
5118.68 8.85828
5118.76 7.77487
5118.84 7.14325
5119.00 6.46519
5119.32 5.93783
5119.64 5.74211
5120.27 5.59771
5120.90 5.54626
5122.17 5.50964
5123.44 5.49768
5125.98 5.49345
5128.51 5.50357
5131.05 5.53731
5133.59 5.64795
5134.86 5.80809
5135.49 5.96892
5136.12 6.26162
5136.76 6.87714
5137.08 7.47530
5137.39 8.53131
5137.55 9.39422
5137.71 10.6587
5137.87 12.6451
5138.03 15.9687
5138.19 22.2380
5138.26 27.6072
5138.34 35.9308
5138.42 49.9683
5138.50 75.1704
5138.54 96.1783
5138.58 126.031
5138.62 171.691
5138.66 238.372
5138.72 379.642
5138.78 472.348
5138.83 380.370
5138.89 239.412
5138.94 160.771
5138.99 111.789
5139.04 81.5601
5139.09 62.1363
5139.18 40.0076
5139.28 28.6446
5139.38 21.9938
5139.48 17.8623
5139.67 13.1493
5139.87 10.6865
5140.06 9.24152
5140.26 8.32219
5140.45 7.70126
5140.84 6.93870
5141.23 6.50771
5142.01 6.06113
5142.79 5.84513
5143.57 5.72403
5145.13 5.59857
5148.26 5.50143
5151.38 5.46205
5157.62 5.42523
5163.87 5.40441
5176.35 5.37497
5188.84 5.35080
5213.82 5.31062
5220.06 5.30503
5226.31 5.30988
5229.43 5.32693
5232.55 5.38638
5234.11 5.47427
5234.89 5.56330
5235.67 5.72583
5236.45 6.06979
5236.84 6.40518
5237.23 6.99988
5237.43 7.48913
5237.62 8.21082
5237.82 9.34408
5238.01 11.2693
5238.21 14.9258
5238.31 18.1413
5238.40 23.1562
5238.50 31.7637
5238.60 47.7348
5238.65 61.4430
5238.70 82.1460
5238.75 114.395
5238.79 163.575
5238.86 259.632
5238.92 322.467
5238.98 258.398
5239.05 164.118
5239.10 114.953
5239.14 83.1997
5239.19 62.6157
5239.24 48.8749
5239.34 32.6052
5239.43 23.8690
5239.53 18.6984
5239.62 15.4039
5239.81 11.6303
5240.01 9.61907
5240.20 8.43475
5240.39 7.67259
5240.58 7.15833
5240.96 6.52336
5241.35 6.16200
5242.11 5.78666
5242.88 5.60505
5243.64 5.50307
5245.18 5.39759
5248.24 5.31613
5251.30 5.28320
5257.43 5.25237
5263.56 5.23489
5275.82 5.21411
5278.88 5.21500
5281.95 5.22982
5283.48 5.25664
5285.01 5.33952
5285.78 5.45759
5286.54 5.79019
5286.92 6.24040
5287.12 6.67896
5287.31 7.44875
5287.50 9.00799
5287.60 10.4610
5287.69 12.8797
5287.79 17.4573
5287.83 21.4094
5287.88 27.5586
5287.93 37.8112
5287.98 56.5020
5288.00 71.9343
5288.03 94.5377
5288.05 128.405
5288.07 176.784
5288.11 281.518
5288.14 349.151
5288.18 282.006
5288.21 177.451
5288.25 110.384
5288.28 72.5040
5288.32 51.1179
5288.35 38.5263
5288.39 30.1943
5288.43 24.5913
5288.50 17.8709
5288.57 14.0647
5288.64 11.7674
5288.78 9.21369
5288.92 7.89640
5289.07 7.13481
5289.35 6.33553
5289.64 5.94349
5289.92 5.72351
5290.49 5.49644
5291.64 5.32600
5292.78 5.26255
5295.06 5.21276
5297.34 5.19186
5306.48 5.15769
5324.75 5.11809
5343.01 5.08078
5361.28 5.04177
5397.81 4.95363
5416.08 4.90194
5425.21 4.87383
5429.78 4.86097
5432.06 4.86248
5433.21 4.89491
5433.78 5.02703
5434.06 5.47135
5434.13 5.85701
5434.20 6.71365
5434.28 9.25396
5434.31 12.8258
5434.33 16.1692
5434.35 21.1048
5434.37 31.0558
5434.39 37.4077
5434.42 31.0944
5434.44 21.1538
5434.47 13.8211
5434.50 10.2600
5434.56 7.30819
5434.62 6.22592
5434.67 5.72868
5434.79 5.28875
5434.91 5.11072
5435.38 4.91449
5436.32 4.85588
5438.20 4.83417
5441.95 4.81626
5449.46 4.78572
5464.48 4.71878
5479.50 4.63824
5494.52 4.53728
5509.54 4.40396
5517.05 4.31852
5524.56 4.21431
5532.07 4.08330
5535.83 4.00395
5539.58 3.91252
5543.34 3.80658
5547.09 3.68610
5548.97 3.62562
5550.85 3.58625
5551.79 3.60365
5552.72 3.73369
5553.19 3.95287
5553.66 4.59442
5553.90 5.46407
5554.02 6.29472
5554.13 7.73411
5554.25 10.5819
5554.31 13.1608
5554.37 17.2863
5554.43 24.7652
5554.46 30.7817
5554.48 39.6133
5554.51 53.7961
5554.54 76.2967
5554.57 115.114
5554.60 184.903
5554.63 295.302
5554.66 366.664
5554.69 295.547
5554.72 185.213
5554.74 128.636
5554.76 91.2764
5554.79 67.4200
5554.81 52.2536
5554.86 33.5896
5554.90 23.8840
5554.95 18.0440
5554.99 14.4214
5555.08 10.2510
5555.17 8.02051
5555.26 6.71638
5555.44 5.30483
5555.62 4.59942
5555.81 4.19415
5556.17 3.76325
5556.89 3.40836
5557.62 3.24419
5559.07 3.04521
5560.51 2.88280
5561.96 2.71736
5563.41 2.53572
5566.31 2.09165
5567.76 1.81356
5569.21 1.48759
5570.66 1.11104
5572.11 0.707040
5572.83 0.527273
5573.56 0.417209
5574.28 0.488616
5574.64 0.667885
5575.00 1.02447
5575.37 1.67797
5575.73 2.83697
5575.91 3.72073
5576.09 4.90772
5576.27 6.51617
5576.45 8.72192
5576.64 11.8134
5576.82 16.1811
5577.00 22.5256
5577.18 32.0014
5577.36 46.6201
5577.54 69.9920
5577.72 108.615
5577.90 173.167
5578.14 309.109
5578.37 430.554
5578.60 381.951
5578.84 262.553
5578.99 202.786
5579.14 159.608
5579.44 106.001
5579.73 76.5065
5580.03 58.8275
5580.33 47.4111
5580.63 39.5870
5581.22 29.7719
5581.82 23.9919
5582.42 20.2591
5583.61 15.7919
5584.80 13.2587
5585.99 11.6735
5586.59 11.1203
5587.19 10.7636
5587.48 10.7475
5587.78 11.1034
5587.93 11.7313
5588.01 12.3640
5588.08 13.4472
5588.16 15.5448
5588.19 17.3432
5588.23 20.1346
5588.27 24.9239
5588.30 33.4090
5588.32 40.5771
5588.34 50.4390
5588.36 65.9110
5588.38 88.6660
5588.41 136.470
5588.43 167.976
5588.46 136.732
5588.49 88.9847
5588.51 64.2479
5588.53 48.1404
5588.55 37.7892
5588.57 30.9261
5588.61 22.8527
5588.66 18.5396
5588.70 15.9901
5588.74 14.3630
5588.82 12.4795
5588.99 10.8480
5589.16 10.1486
5589.50 9.50843
5589.83 9.17807
5590.50 8.76807
5591.17 8.47545
5592.52 8.02793
5593.86 7.68118
5596.54 7.16141
5599.23 6.78470
5604.60 6.26627
5609.97 5.91686
5615.34 5.65585
5620.71 5.44468
5631.45 5.09365
5642.19 4.76145
5652.93 4.36938
5658.30 4.11531
5663.67 3.78666
5666.35 3.57894
5669.04 3.32951
5671.72 3.02977
5673.07 2.88918
5673.74 2.95377
5673.90 3.08642
5674.07 3.46826
5674.16 3.95317
5674.24 5.09432
5674.28 6.32862
5674.32 8.74816
5674.37 14.2829
5674.39 19.8416
5674.41 28.5889
5674.43 44.1466
5674.46 54.5902
5674.48 44.1834
5674.50 28.6291
5674.53 17.9795
5674.56 12.3218
5674.58 9.08533
5674.61 7.24397
5674.66 5.25647
5674.71 4.31040
5674.82 3.44147
5674.92 3.07305
5675.14 2.75358
5675.35 2.60785
5676.19 2.33381
5677.87 1.93296
5679.56 1.48608
5681.25 0.979548
5682.93 0.511613
5683.77 0.434741
5684.20 0.513190
5684.62 0.742269
5685.04 1.22986
5685.46 2.16863
5685.67 2.91570
5685.88 3.94220
5686.09 5.36089
5686.30 7.32978
5686.51 10.1267
5686.72 14.1559
5686.94 20.0939
5687.15 29.0393
5687.36 43.1013
5687.57 65.8120
5687.78 104.153
5687.99 169.045
5688.25 304.179
5688.52 425.077
5688.79 378.072
5689.05 261.390
5689.24 198.010
5689.43 153.309
5689.61 122.109
5689.80 99.9372
5690.17 71.6612
5690.55 55.1197
5690.92 44.5441
5691.29 37.3545
5692.04 28.3994
5692.79 23.1424
5693.54 19.7455
5694.28 17.3863
5695.03 15.6665
5696.53 13.3371
5698.02 11.8433
5699.52 10.8084
5701.01 10.0508
5704.00 9.01757
5706.99 8.34636
5709.98 7.87488
5712.97 7.52508
5718.95 7.03905
5724.93 6.71755
5727.92 6.59706
5730.91 6.50423
5732.41 6.47746
5733.90 6.49460
5734.65 6.55987
5735.40 6.78156
5735.77 7.10096
5736.14 7.98282
5736.33 9.14814
5736.42 10.2619
5736.52 12.1588
5736.61 15.8810
5736.66 19.2198
5736.70 24.4806
5736.75 33.9142
5736.80 52.1076
5736.82 69.1923
5736.84 95.3513
5736.87 138.761
5736.89 212.483
5736.92 338.418
5736.94 418.507
5736.97 338.571
5736.99 212.643
5737.02 127.414
5737.05 82.5074
5737.08 57.7088
5737.10 43.0024
5737.13 33.4274
5737.16 27.2908
5737.22 19.8879
5737.27 15.7293
5737.33 13.2495
5737.44 10.5117
5737.55 9.10674
5737.67 8.29847
5737.89 7.45385
5738.34 6.80647
5738.79 6.56264
5739.70 6.36985
5740.60 6.28765
5742.40 6.20381
5744.21 6.15244
5747.81 6.09678
5748.71 6.10793
5749.62 6.17513
5750.07 6.28463
5750.52 6.60409
5750.74 7.03857
5750.97 8.17905
5751.08 9.60905
5751.14 10.8902
5751.19 12.9745
5751.25 16.7706
5751.28 19.8331
5751.31 24.3407
5751.33 31.2993
5751.36 42.6559
5751.39 62.2859
5751.42 97.8546
5751.45 153.975
5751.48 190.600
5751.50 154.594
5751.53 98.6781
5751.56 66.9318
5751.58 47.2898
5751.61 35.3376
5751.63 27.9856
5751.68 19.4100
5751.73 14.9770
5751.78 12.3747
5751.83 10.7822
5751.93 8.97474
5752.02 8.02076
5752.12 7.46638
5752.32 6.86994
5752.71 6.40323
5753.11 6.22397
5753.89 6.08006
5754.68 6.01894
5757.83 5.92081
5764.13 5.82134
5770.43 5.74391
5776.73 5.67640
5789.32 5.55994
5801.92 5.45938
5827.12 5.28201
5852.31 5.11035
5877.51 4.91346
5890.10 4.78971
5902.70 4.63087
5915.30 4.40322
5921.60 4.23972
5927.90 4.01315
5931.05 3.86110
5934.20 3.66822
5937.35 3.41359
5940.49 3.06011
5942.07 2.82588
5943.64 2.53522
5945.22 2.16708
5946.79 1.69408
5947.58 1.41010
5948.37 1.09790
5949.16 0.779289
5949.94 0.537607
5950.34 0.521659
5950.53 0.571072
5950.73 0.681754
5951.12 1.21132
5951.32 1.73592
5951.52 2.55179
5951.71 3.83348
5951.91 5.86264
5952.11 9.15010
5952.30 14.6295
5952.50 24.3156
5952.60 31.9575
5952.70 42.4954
5952.80 57.6224
5952.90 79.3003
5952.99 111.052
5953.09 157.453
5953.26 282.594
5953.44 395.205
5953.61 351.968
5953.78 243.091
5953.91 179.006
5954.05 135.494
5954.18 106.150
5954.31 85.9874
5954.58 60.8385
5954.84 46.4633
5955.11 37.4466
5955.37 31.3802
5955.90 23.8864
5956.43 19.5220
5956.96 16.7169
5957.49 14.7761
5958.02 13.3614
5959.08 11.4471
5960.14 10.2213
5961.20 9.37162
5962.26 8.74906
5964.38 7.89822
5966.50 7.34370
5968.63 6.95243
5970.75 6.66046
5974.99 6.24968
5979.23 5.96988
5987.71 5.59813
5996.19 5.34361
6004.68 5.13959
6021.64 4.77317
6030.13 4.57711
6038.61 4.35040
6047.09 4.06869
6055.58 3.69033
6059.82 3.44192
6064.06 3.13269
6068.30 2.73540
6072.54 2.20773
6074.66 1.87620
6076.78 1.48874
6078.90 1.04425
6081.02 0.574552
6082.09 0.371068
6083.15 0.255454
6083.68 0.267045
6084.21 0.361295
6084.74 0.585983
6085.27 1.01959
6085.80 1.79742
6086.33 3.15369
6086.86 5.53242
6087.39 9.81774
6087.65 13.2017
6087.92 17.9230
6088.18 24.6398
6088.45 34.4154
6088.71 49.0123
6088.98 71.3975
6089.24 106.499
6089.51 161.708
6089.90 292.750
6090.30 410.621
6090.69 366.382
6091.09 254.214
6091.46 175.920
6091.83 127.408
6092.21 97.0120
6092.58 77.1029
6093.33 53.6495
6094.08 40.8453
6094.83 33.0111
6095.58 27.8280
6097.07 21.4979
6098.57 17.8406
6100.06 15.4907
6101.56 13.8646
6103.06 12.6786
6106.05 11.0769
6107.55 10.5193
6109.04 10.0753
6110.54 9.73798
6112.03 9.56186
6112.78 9.62871
6113.16 9.77032
6113.53 10.0826
6113.90 10.8037
6114.09 11.5260
6114.28 12.8091
6114.47 15.3784
6114.56 17.7529
6114.65 21.6423
6114.75 28.8165
6114.79 34.8403
6114.84 43.7082
6114.89 58.1330
6114.93 82.8586
6114.98 128.674
6115.03 215.980
6115.07 339.954
6115.11 423.529
6115.15 340.243
6115.19 216.332
6115.22 161.687
6115.24 123.790
6115.29 77.7933
6115.34 53.8932
6115.39 40.2934
6115.44 31.9276
6115.50 26.4508
6115.60 19.9858
6115.70 16.4739
6115.80 14.3591
6116.01 12.0461
6116.21 10.8695
6116.41 10.1846
6116.82 9.44675
6117.23 9.06234
6117.64 8.82629
6118.45 8.53924
6120.08 8.22021
6121.71 8.01002
6123.34 7.84278
6124.97 7.70037
6128.23 7.46297
6131.49 7.26902
6134.76 7.10585
6141.28 6.84432
6147.80 6.64212
6154.32 6.47983
6167.36 6.23220
6180.41 6.04820
6193.45 5.90247
6199.97 5.83960
6206.49 5.78273
6213.01 5.73855
6216.28 5.75673
6217.09 5.79629
6217.91 5.91904
6218.31 6.09181
6218.72 6.56516
6218.92 7.18781
6219.03 7.77696
6219.13 8.78770
6219.23 10.7367
6219.28 12.4672
6219.33 15.2401
6219.38 20.0643
6219.43 29.4545
6219.46 37.9526
6219.49 50.7407
6219.51 71.4073
6219.54 105.197
6219.57 166.030
6219.59 204.844
6219.62 164.085
6219.65 105.472
6219.69 62.1492
6219.72 40.2779
6219.76 28.6166
6219.79 22.0147
6219.83 17.7575
6219.86 14.9509
6219.93 11.6509
6220.00 9.81577
6220.07 8.72232
6220.21 7.52034
6220.49 6.55369
6220.76 6.18504
6221.32 5.90267
6221.87 5.79643
6222.98 5.71236
6224.09 5.67659
6228.53 5.61615
6237.40 5.54493
6255.15 5.41948
6272.89 5.29317
6290.64 5.15213
6308.39 4.97292
6317.26 4.85318
6326.13 4.69340
6335.01 4.45568
6339.44 4.28054
6343.88 4.03417
6346.10 3.86733
6348.32 3.65488
6350.53 3.37414
6352.75 2.98556
6353.86 2.72975
6354.97 2.41568
6356.08 2.02461
6357.19 1.53767
6358.30 0.969208
6358.85 0.711739
6359.41 0.615833
6359.68 0.736066
6359.96 1.10797
6360.24 1.97420
6360.38 2.74220
6360.52 3.86770
6360.65 5.55537
6360.79 8.11085
6360.93 12.0712
6361.07 18.3464
6361.21 28.8492
6361.35 47.0297
6361.49 80.6602
6361.62 143.689
6361.77 259.734
6361.92 363.982
6362.06 325.356
6362.21 226.280
6362.36 154.499
6362.50 111.003
6362.64 83.9799
6362.79 66.6024
6362.93 54.6849
6363.08 46.2633
6363.37 35.2637
6363.66 28.5775
6363.94 24.1619
6364.52 18.7915
6365.10 15.6906
6365.68 13.6987
6366.26 12.3205
6366.83 11.3159
6367.99 9.95065
6369.14 9.07170
6370.30 8.45940
6371.45 8.00873
6373.76 7.38938
6376.08 6.98316
6378.39 6.69517
6380.70 6.47951
6385.32 6.17525
6389.94 5.96793
6399.18 5.69485
6408.43 5.51399
6413.05 5.44247
6417.67 5.38042
6422.29 5.32877
6426.91 5.29817
6429.22 5.30734
6431.53 5.38308
6432.69 5.51042
6433.27 5.64258
6433.84 5.88547
6434.42 6.40036
6434.71 6.90230
6435.00 7.78644
6435.29 9.57841
6435.43 11.2598
6435.58 14.0869
6435.72 19.4733
6435.79 24.1321
6435.87 31.4348
6435.94 43.7467
6436.01 66.5937
6436.05 85.8170
6436.08 114.511
6436.12 158.587
6436.15 228.167
6436.20 362.352
6436.25 451.117
6436.30 362.471
6436.35 228.232
6436.39 144.354
6436.44 96.3296
6436.49 68.3598
6436.53 51.4332
6436.58 40.1431
6436.63 32.4577
6436.72 23.1042
6436.81 17.7666
6436.91 14.5112
6437.09 10.8736
6437.28 8.99150
6437.47 7.90465
6437.84 6.75349
6438.21 6.18963
6438.59 5.87133
6439.33 5.54162
6440.82 5.28826
6442.32 5.18701
6445.30 5.09297
6448.28 5.03882
6460.22 4.88639
6472.16 4.74268
6484.10 4.58527
6496.03 4.40288
6502.00 4.29858
6507.97 4.18367
6513.94 4.05847
6519.91 3.93404
6522.89 3.89240
6525.88 3.93017
6527.37 4.06440
6528.12 4.22173
6528.86 4.52643
6529.61 5.19087
6529.98 5.84523
6530.35 7.00442
6530.73 9.33559
6530.91 11.5001
6531.10 15.1005
6531.29 21.8096
6531.38 27.4916
6531.47 36.1935
6531.57 50.5805
6531.66 75.7847
6531.75 124.663
6531.80 166.764
6531.85 226.938
6531.92 361.763
6531.99 451.006
6532.07 362.309
6532.14 227.537
6532.18 168.595
6532.23 127.614
6532.32 78.2434
6532.41 52.4994
6532.50 37.8122
6532.59 28.7607
6532.68 22.8269
6532.87 15.8412
6533.05 12.0163
6533.23 9.71389
6533.59 7.20436
6533.96 5.92864
6534.32 5.19258
6535.05 4.40707
6535.77 4.00873
6536.50 3.77009
6537.95 3.48964
6540.86 3.17925
6543.77 2.94872
6546.68 2.72504
6549.58 2.48627
6555.40 1.91993
6558.31 1.57612
6561.21 1.18584
6564.12 0.758481
6567.03 0.353047
6568.48 0.219196
6569.94 0.220981
6570.66 0.319407
6571.39 0.527952
6572.12 0.904348
6572.84 1.54007
6573.57 2.59015
6574.30 4.31850
6575.02 7.20396
6575.75 12.1554
6576.48 21.0679
6576.84 28.1652
6577.20 38.1162
6577.57 52.4243
6577.93 73.2754
6578.29 104.153
6578.66 149.778
6579.29 272.505
6579.91 384.308
6580.54 344.496
6581.17 239.878
6581.77 166.263
6582.37 120.533
6582.98 91.9066
6583.58 73.1654
6584.18 60.2996
6584.78 51.0877
6585.98 39.0342
6587.18 31.6519
6588.38 26.7546
6590.79 20.7659
6593.19 17.2983
6595.59 15.0645
6598.00 13.5144
6600.40 12.3811
6605.21 10.8406
6610.01 9.84922
6612.42 9.48112
6614.82 9.18746
6616.02 9.08272
6617.22 9.05937
6617.83 9.14829
6618.43 9.50906
6618.73 10.0440
6618.88 10.5699
6619.03 11.4971
6619.18 13.3407
6619.25 15.0235
6619.33 17.7940
6619.40 22.8040
6619.44 27.0275
6619.48 33.1707
6619.52 43.1205
6619.55 59.3846
6619.59 89.4980
6619.63 146.295
6619.66 228.144
6619.70 284.887
6619.73 228.755
6619.77 147.117
6619.79 107.251
6619.81 81.3216
6619.86 51.4392
6619.91 36.0865
6619.95 27.7224
6620.00 22.5350
6620.05 19.2443
6620.14 15.3739
6620.23 13.2599
6620.32 11.9942
6620.51 10.6211
6620.69 9.92005
6620.88 9.51425
6621.25 9.07438
6621.99 8.70328
6622.73 8.52931
6624.22 8.33064
6625.70 8.19369
6628.67 7.97930
6631.64 7.80268
6637.57 7.51382
6643.51 7.28283
6655.38 6.93146
6667.25 6.67329
6690.99 6.30975
6714.73 6.05413
6738.47 5.85232
6762.21 5.67750
6785.95 5.51374
6797.82 5.43465
6803.75 5.40603
6806.72 5.43668
6807.46 5.48380
6808.20 5.62368
6808.58 5.81639
6808.95 6.33869
6809.13 7.01930
6809.32 8.73426
6809.41 10.8020
6809.46 12.5939
6809.50 15.4166
6809.55 20.3487
6809.60 29.4804
6809.62 37.2717
6809.64 49.0580
6809.66 67.4659
6809.69 96.3731
6809.72 151.898
6809.75 187.256
6809.78 149.934
6809.81 96.3660
6809.84 57.5967
6809.87 38.0891
6809.91 27.3808
6809.94 21.0528
6810.00 14.3898
6810.07 11.1842
6810.14 9.41350
6810.20 8.33713
6810.33 7.15336
6810.60 6.20388
6810.86 5.84190
6811.39 5.56548
6811.92 5.46220
6812.98 5.38137
6814.03 5.34747
6818.26 5.29035
6826.72 5.21867
6835.18 5.14891
6843.64 5.07589
6852.09 4.99853
6860.55 4.91770
6869.01 4.84913
6871.12 4.84941
6873.24 4.89325
6874.29 4.97394
6875.35 5.21695
6875.88 5.55250
6876.14 5.87936
6876.41 6.45807
6876.67 7.63681
6876.80 8.73910
6876.94 10.6143
6877.07 14.1896
6877.13 17.3303
6877.20 22.3107
6877.27 30.8527
6877.33 47.1366
6877.37 61.2291
6877.40 82.8594
6877.43 117.301
6877.46 173.733
6877.51 275.549
6877.55 342.234
6877.59 275.222
6877.63 173.163
6877.67 103.326
6877.71 66.8248
6877.76 46.6248
6877.80 34.6279
6877.85 26.8886
6877.89 21.8509
6877.98 15.7766
6878.07 12.3842
6878.16 10.3477
6878.33 8.09603
6878.51 6.95534
6878.69 6.29984
6879.04 5.61450
6879.75 5.09442
6880.46 4.90037
6881.87 4.74709
6883.29 4.68037
6886.12 4.60624
6888.95 4.55206
6894.61 4.45283
6900.27 4.35150
6905.93 4.24757
6911.60 4.15914
6914.43 4.14978
6915.84 4.17536
6917.26 4.25220
6918.67 4.45791
6919.38 4.67917
6920.09 5.09089
6920.44 5.43860
6920.80 5.96526
6921.15 6.81335
6921.50 8.29543
6921.86 11.2512
6922.03 13.9639
6922.21 18.4679
6922.39 26.7332
6922.48 33.7514
6922.57 44.2965
6922.65 61.5138
6922.74 91.1024
6922.83 146.927
6922.87 193.182
6922.92 259.576
6922.99 413.333
6923.07 515.176
6923.14 413.292
6923.21 259.258
6923.28 167.567
6923.35 113.265
6923.41 80.7569
6923.48 60.5838
6923.61 37.7105
6923.75 26.2033
6923.88 19.5893
6924.01 15.5135
6924.28 10.9205
6924.55 8.54438
6924.81 7.15874
6925.08 6.28006
6925.35 5.68898
6925.88 4.95932
6926.41 4.54162
6927.48 4.09360
6928.55 3.85846
6929.61 3.70893
6931.75 3.51352
6933.88 3.37850
6936.02 3.30250
6937.08 3.33416
6938.15 3.57522
6938.68 3.98937
6938.95 4.42377
6939.22 5.22160
6939.48 6.89932
6939.62 8.51106
6939.75 11.2626
6939.89 16.5912
6939.95 21.2927
6940.02 28.6113
6940.09 41.2576
6940.15 64.6016
6940.19 85.0549
6940.22 114.977
6940.25 161.157
6940.28 234.862
6940.33 376.998
6940.37 472.122
6940.42 380.172
6940.46 240.085
6940.50 159.980
6940.54 110.830
6940.58 80.4875
6940.61 61.3844
6940.69 38.8727
6940.76 27.3048
6940.84 20.4823
6940.91 16.2361
6941.07 11.3468
6941.22 8.76235
6941.37 7.22710
6941.67 5.55911
6941.97 4.70897
6942.27 4.20938
6942.88 3.66017
6943.48 3.36414
6944.08 3.17480
6945.29 2.92928
6947.70 2.61300
6950.12 2.35261
6954.95 1.82237
6959.78 1.21161
6964.60 0.540477
6967.02 0.267380
6968.23 0.199846
6969.43 0.231549
6970.64 0.443076
6971.24 0.659051
6971.85 0.984671
6972.45 1.46326
6973.05 2.15426
6973.66 3.15036
6974.26 4.58473
6974.87 6.67455
6975.47 9.75233
6976.07 14.3918
6976.68 21.5446
6977.28 32.9681
6977.88 51.8266
6978.49 84.1817
6979.09 140.224
6979.84 257.012
6980.59 363.912
6981.34 327.463
6982.09 229.269
6982.83 158.231
6983.56 114.551
6984.30 87.3895
6985.04 69.6826
6985.77 57.5574
6986.51 48.8879
6987.98 37.5455
6989.45 30.6010
6990.93 25.9935
6993.87 20.3470
6996.81 17.0691
6999.76 14.9519
7002.70 13.4793
7005.65 12.4001
7011.54 10.9281
7017.43 9.97322
7023.31 9.30398
7029.20 8.80831
7040.98 8.12053
7052.76 7.66155
7064.54 7.32827
7076.31 7.06976
7099.87 6.67110
7111.65 6.49638
7123.43 6.31545
7135.20 6.09894
7141.09 5.95813
7146.98 5.77168
7149.93 5.64906
7152.87 5.49432
7155.82 5.28934
7158.76 5.00020
7160.23 4.80401
7161.71 4.55406
7163.18 4.22381
7164.65 3.76743
7165.39 3.46804
7166.12 3.10134
7166.86 2.64699
7167.59 2.08592
7168.33 1.44125
7168.70 1.15752
7169.07 1.06452
7169.25 1.20903
7169.43 1.63250
7169.62 2.58967
7169.80 4.62062
7169.89 6.37845
7169.99 8.97809
7170.08 12.8920
7170.17 18.9259
7170.26 28.5056
7170.35 44.2316
7170.45 70.8721
7170.54 116.451
7170.66 214.895
7170.78 305.792
7170.89 276.258
7171.01 194.682
7171.13 135.814
7171.24 99.5437
7171.36 76.6072
7171.48 61.6905
7171.59 51.3326
7171.71 43.9604
7171.94 34.2527
7172.17 28.2502
7172.40 24.2641
7172.86 19.3436
7173.32 16.4697
7173.78 14.6114
7174.24 13.3162
7174.70 12.3652
7175.63 11.0654
7176.55 10.2232
7177.47 9.63295
7178.39 9.19747
7180.24 8.59675
7182.08 8.20164
7183.93 7.92132
7185.77 7.71163
7189.46 7.41695
7193.15 7.21816
7196.84 7.07352
7200.53 6.96254
7207.91 6.80087
7215.29 6.68627
7230.05 6.52856
7244.81 6.41997
7259.57 6.33722
7289.08 6.21362
7348.12 6.04622
7407.16 5.92727
7466.19 5.83167
7525.23 5.74863
7584.26 5.67193
7613.78 5.63531
7628.54 5.62225
7635.92 5.64066
7637.76 5.66878
7639.61 5.75507
7640.53 5.87810
7641.45 6.22472
7641.91 6.69392
7642.15 7.15039
7642.38 7.95131
7642.61 9.56801
7642.72 11.0612
7642.84 13.5647
7642.95 18.2808
7643.01 22.3370
7643.07 28.4865
7643.13 38.8033
7643.18 56.9599
7643.21 71.9402
7643.24 93.6088
7643.27 125.585
7643.30 171.078
7643.34 271.777
7643.38 337.531
7643.43 272.395
7643.47 171.936
7643.52 107.237
7643.56 70.8743
7643.61 50.2573
7643.65 37.8060
7643.70 29.8218
7643.74 24.4357
7643.83 17.9399
7643.92 14.2605
7644.01 12.0084
7644.19 9.52402
7644.37 8.24443
7644.55 7.50739
7644.91 6.72908
7645.62 6.13118
7646.34 5.90897
7647.78 5.74144
7649.21 5.67883
7652.08 5.62971
7654.95 5.60921
7666.43 5.57672
7689.39 5.54117
7735.30 5.47562
7781.22 5.40373
7827.13 5.31831
7873.05 5.20682
7896.00 5.13290
7918.96 5.03673
7941.92 4.89979
7953.40 4.80331
7964.88 4.67259
7976.35 4.47945
7982.09 4.34016
7987.83 4.14892
7990.70 4.02226
7993.57 3.86347
7996.44 3.65674
7999.31 3.37338
8000.75 3.18666
8002.18 2.95467
8003.62 2.65781
8005.05 2.26492
8006.49 1.72723
8007.20 1.38870
8007.92 1.01594
8008.64 0.705623
8009.00 0.698043
8009.18 0.795288
8009.36 1.01812
8009.54 1.45297
8009.71 2.24478
8009.89 3.67693
8010.07 6.31707
8010.16 8.44514
8010.25 11.4477
8010.34 15.7686
8010.43 22.0488
8010.52 31.6377
8010.61 46.3604
8010.70 70.0607
8010.79 107.561
8010.92 195.344
8011.05 277.391
8011.11 277.783
8011.18 250.710
8011.31 174.907
8011.39 136.070
8011.47 107.661
8011.64 72.4325
8011.80 52.8327
8011.97 41.1048
8012.13 33.4508
8012.30 28.2147
8012.63 21.5833
8012.96 17.6512
8013.29 15.0859
8013.95 11.9823
8014.61 10.1834
8015.28 9.01410
8015.94 8.18745
8016.60 7.56887
8017.92 6.68485
8019.25 6.05824
8021.89 5.12191
8024.54 4.26320
8025.86 3.76824
8027.18 3.16578
8027.85 2.80221
8028.51 2.38385
8029.17 1.90216
8029.83 1.37366
8030.49 0.919284
8030.82 0.875484
8030.99 0.978852
8031.15 1.23664
8031.32 1.75276
8031.48 2.69742
8031.65 4.41007
8031.82 7.50595
8031.90 9.96027
8031.98 13.3666
8032.06 18.1663
8032.15 24.9512
8032.23 34.9709
8032.31 49.6853
8032.39 72.1456
8032.48 105.528
8032.62 196.275
8032.76 280.544
8032.83 281.393
8032.90 254.655
8033.04 180.280
8033.15 135.879
8033.25 105.328
8033.36 84.1124
8033.46 69.3367
8033.68 50.5574
8033.89 39.6058
8034.10 32.6264
8034.32 27.8682
8034.74 21.8986
8035.17 18.3642
8035.59 16.0537
8036.02 14.4353
8036.45 13.2426
8037.30 11.6079
8038.15 10.5425
8039.00 9.79345
8039.85 9.23821
8041.56 8.46651
8043.26 7.95418
8044.96 7.58686
8046.67 7.30950
8050.08 6.91488
8053.48 6.64478
8060.30 6.29192
8067.11 6.06536
8073.93 5.90297
8087.55 5.67520
8101.18 5.51093
8114.81 5.37505
8142.07 5.12599
8169.33 4.83781
8182.96 4.64655
8196.58 4.38923
8203.40 4.21896
8210.21 4.00428
8217.03 3.72209
8223.84 3.33087
8227.25 3.07138
8230.66 2.74864
8234.06 2.33766
8237.47 1.80306
8239.17 1.47680
8240.88 1.10913
8244.28 0.355773
8245.14 0.254302
8245.99 0.294637
8246.41 0.413719
8246.84 0.642098
8247.27 1.03428
8247.69 1.67425
8248.12 2.70418
8248.54 4.35746
8248.97 7.04594
8249.40 11.5294
8249.82 19.2905
8250.25 33.4003
8250.46 44.6822
8250.67 60.5099
8250.89 82.8862
8251.10 114.193
8251.53 210.935
8251.95 301.777
8252.38 274.149
8252.81 193.094
8253.31 125.560
8253.81 87.5195
8254.31 65.3964
8254.80 51.6140
8255.30 42.4614
8255.80 36.0542
8256.80 27.8332
8257.79 22.8834
8258.79 19.6248
8260.78 15.6528
8262.77 13.3520
8264.76 11.8632
8266.76 10.8250
8268.75 10.0612
8272.73 9.01304
8276.72 8.32691
8280.70 7.84075
8284.68 7.47615
8292.65 6.95884
8300.62 6.59956
8308.59 6.32412
8316.56 6.09454
8332.50 5.68408
8340.46 5.46560
8348.43 5.20378
8356.40 4.84347
8360.39 4.58924
8364.37 4.24074
8366.36 4.00929
8368.35 3.71910
8370.35 3.34302
8372.34 2.83658
8373.33 2.51321
8374.33 2.12795
8375.33 1.67058
8376.32 1.14838
8377.32 0.661576
8377.82 0.567948
8378.07 0.630885
8378.31 0.833003
8378.56 1.26824
8378.81 2.10353
8379.06 3.65027
8379.19 4.86890
8379.31 6.52506
8379.44 8.83411
8379.56 12.0415
8379.68 16.6407
8379.81 23.2506
8379.93 33.1083
8380.06 47.8792
8380.18 70.7475
8380.31 105.557
8380.51 196.541
8380.71 281.656
8380.81 282.878
8380.91 256.255
8381.12 181.503
8381.26 140.551
8381.39 111.191
8381.53 90.1264
8381.67 75.0139
8381.95 55.2852
8382.22 43.4752
8382.50 35.8271
8382.78 30.5595
8383.33 23.9031
8383.89 19.9289
8384.44 17.3251
8384.99 15.5008
8385.55 14.1599
8386.65 12.3229
8387.76 11.1324
8388.87 10.2990
8389.98 9.68474
8392.19 8.83854
8394.41 8.28242
8396.62 7.88766
8398.84 7.59178
8403.27 7.17394
8407.69 6.88895
8412.12 6.67816
8416.55 6.51291
8425.41 6.26178
8434.27 6.06893
8451.99 5.75227
8469.71 5.43556
8478.57 5.24511
8487.43 5.00506
8496.29 4.66954
8500.72 4.43606
8505.15 4.12414
8509.58 3.67432
8511.79 3.35963
8514.00 2.94338
8515.11 2.67874
8516.22 2.36171
8517.33 1.97588
8518.43 1.50578
8519.54 0.961225
8520.65 0.580506
8520.93 0.649912
8521.20 0.918839
8521.48 1.57793
8521.76 3.03454
8521.90 4.33888
8522.03 6.29236
8522.17 9.32186
8522.31 14.0824
8522.45 21.9524
8522.59 35.3377
8522.73 59.2715
8522.86 103.053
8523.02 188.353
8523.17 268.190
8523.25 269.203
8523.33 243.124
8523.49 170.215
8523.62 123.353
8523.75 92.3076
8523.88 71.8481
8524.00 58.0342
8524.26 41.0765
8524.52 31.5038
8524.78 25.5285
8525.04 21.5099
8525.56 16.5234
8526.08 13.5873
8526.59 11.6606
8527.63 9.26924
8528.67 7.80089
8529.70 6.75476
8531.77 5.18530
8533.85 3.77049
8534.88 2.99879
8535.92 2.14073
8536.96 1.23442
8537.47 0.860270
8537.99 0.752066
8538.12 0.817463
8538.25 0.944863
8538.51 1.48151
8538.77 2.65045
8538.90 3.63923
8539.03 5.03417
8539.16 7.03892
8539.29 9.89788
8539.42 14.0903
8539.55 20.2410
8539.68 29.5834
8539.80 43.8338
8539.93 66.2579
8540.06 100.925
8540.27 191.660
8540.48 277.190
8540.69 253.544
8540.90 181.576
8541.03 146.182
8541.15 119.545
8541.40 84.5574
8541.65 64.1664
8541.90 51.4473
8542.15 42.9142
8542.40 36.9270
8542.90 29.1584
8543.41 24.4182
8543.91 21.2708
8544.91 17.3801
8545.91 15.0842
8546.91 13.5771
8547.92 12.5107
8548.92 11.7173
8550.92 10.6115
8552.93 9.87514
8554.93 9.34724
8556.94 8.94889
8560.95 8.38395
8564.96 7.99989
8572.98 7.50518
8581.00 7.19572
8589.01 6.98099
8605.05 6.69767
8621.09 6.51525
8629.11 6.44575
8637.13 6.38678
8645.15 6.33772
8653.17 6.30328
8657.18 6.30025
8661.19 6.33444
8663.19 6.40195
8665.20 6.61201
8666.20 6.90884
8666.70 7.20252
8667.20 7.72930
8667.70 8.81417
8667.95 9.84863
8668.20 11.6258
8668.45 15.0954
8668.58 18.1911
8668.70 23.1914
8668.83 32.0897
8668.96 49.6628
8669.02 65.6931
8669.08 90.9678
8669.14 134.277
8669.21 208.084
8669.27 329.283
8669.34 410.806
8669.41 329.906
8669.47 208.924
8669.52 151.512
8669.56 112.177
8669.61 85.7636
8669.66 67.6327
8669.75 45.5360
8669.84 33.3317
8669.93 25.9733
8670.02 21.2240
8670.21 15.7173
8670.39 12.7470
8670.58 10.9773
8670.76 9.83949
8670.94 9.06864
8671.31 8.11056
8671.68 7.56460
8672.41 6.99415
8673.15 6.71674
8673.88 6.56017
8675.35 6.39688
8678.29 6.26793
8681.23 6.21343
8687.11 6.15881
8692.99 6.12544
8704.75 6.07646
8716.51 6.03658
8740.03 5.96921
8763.54 5.91153
8787.06 5.85998
8810.58 5.81251
8857.62 5.72440
8904.65 5.63836
8928.17 5.59356
8951.69 5.54595
8975.21 5.49392
8998.72 5.43560
9022.24 5.37308
9028.12 5.36232
9034.00 5.36920
9036.94 5.39883
9039.88 5.50556
9041.35 5.66496
9042.09 5.82648
9042.82 6.12129
9043.56 6.74138
9043.92 7.34391
9044.29 8.40139
9044.66 10.5259
9044.84 12.4908
9045.03 15.7550
9045.21 21.8306
9045.30 27.0044
9045.39 34.8333
9045.48 47.7270
9045.58 70.5145
9045.67 114.731
9045.71 152.337
9045.76 206.419
9045.83 326.776
9045.91 408.623
9045.98 327.530
9046.05 207.481
9046.11 142.201
9046.17 101.564
9046.22 75.5982
9046.28 58.4544
9046.39 38.3760
9046.51 27.7051
9046.62 21.3870
9046.74 17.4207
9046.96 12.8755
9047.19 10.4676
9047.42 9.05272
9047.65 8.14451
9047.88 7.53172
9048.34 6.77573
9048.79 6.34515
9049.71 5.89651
9050.62 5.67777
9051.53 5.55351
9053.36 5.42196
9057.02 5.31243
9060.67 5.26009
9067.98 5.19444
9075.29 5.13970
9082.60 5.08350
9089.91 5.02122
9104.53 4.86375
9111.84 4.75869
9119.15 4.62506
9126.46 4.44729
9133.77 4.19601
9137.43 4.02559
9141.08 3.80828
9144.74 3.52077
9148.39 3.12180
9150.22 2.85828
9152.05 2.53297
9153.88 2.12373
9155.70 1.60423
9157.53 0.964180
9158.44 0.633572
9159.36 0.400477
9159.81 0.402241
9160.27 0.591776
9160.73 1.15826
9160.96 1.69793
9161.19 2.51518
9161.41 3.76068
9161.64 5.65562
9161.87 8.61006
9162.10 13.2843
9162.33 20.9834
9162.56 34.0347
9162.78 57.0930
9163.01 98.5085
9163.28 183.432
9163.56 264.009
9163.69 265.929
9163.83 241.315
9164.10 171.032
9164.36 120.633
9164.61 88.8821
9164.87 68.7224
9165.12 55.3783
9165.64 39.4482
9166.15 30.6544
9166.66 25.2116
9167.17 21.5801
9168.20 17.0965
9169.22 14.4724
9170.25 12.7677
9171.27 11.5773
9172.30 10.7019
9174.35 9.50050
9176.40 8.71582
9178.44 8.16122
9180.49 7.74637
9184.59 7.15972
9188.69 6.75374
9192.79 6.44256
9196.89 6.18215
9205.08 5.70789
9209.18 5.44763
9213.28 5.12809
9215.33 4.92672
9217.38 4.67931
9219.43 4.36066
9221.48 3.92618
9222.50 3.64118
9223.53 3.28953
9224.55 2.84619
9225.58 2.27838
9226.60 1.55979
9227.63 0.841017
9228.14 0.876744
9228.40 1.31820
9228.65 2.48641
9228.78 3.59340
9228.91 5.31176
9229.04 8.00871
9229.16 12.3269
9229.29 19.4381
9229.42 31.5599
9229.55 52.9495
9229.68 91.1887
9229.83 171.250
9229.99 247.531
9230.07 249.456
9230.14 226.765
9230.30 161.941
9230.47 110.437
9230.64 79.7133
9230.80 61.0789
9230.97 49.1783
9231.14 41.0480
9231.31 35.2667
9231.64 27.7450
9231.98 23.1270
9232.31 20.0614
9232.98 16.2772
9233.66 14.0626
9234.33 12.6203
9235.00 11.6103
9235.67 10.8661
9237.01 9.84145
9238.35 9.17083
9239.69 8.69747
9241.03 8.34522
9243.72 7.85375
9246.40 7.52569
9249.08 7.28953
9251.77 7.11029
9257.13 6.85370
9262.50 6.67641
9273.23 6.44166
9283.97 6.28837
9294.70 6.17709
9316.17 6.01990
9337.63 5.90771
9359.10 5.81797
9402.03 5.66639
9444.97 5.51261
9466.43 5.41879
9487.90 5.29735
9498.63 5.21818
9509.37 5.11841
9520.10 4.98594
9530.83 4.79745
9536.20 4.66817
9541.56 4.50126
9546.93 4.27642
9552.30 3.95606
9554.98 3.73839
9557.66 3.46190
9560.35 3.09968
9563.03 2.60771
9564.37 2.29197
9565.71 1.91488
9567.06 1.46651
9568.40 0.954663
9569.74 0.477169
9570.41 0.384486
9571.08 0.638305
9571.42 1.05689
9571.75 1.85532
9572.09 3.33080
9572.26 4.48286
9572.42 6.04409
9572.59 8.20353
9572.76 11.2092
9572.93 15.4524
9573.09 21.5000
9573.26 30.3857
9573.43 43.5210
9573.60 63.4403
9573.76 93.2213
9574.05 175.237
9574.34 253.584
9574.49 255.814
9574.63 232.625
9574.92 165.721
9575.25 110.065
9575.57 78.0497
9575.90 59.0690
9576.23 47.1415
9576.56 39.1253
9576.89 33.4918
9577.55 26.1955
9578.20 21.7671
9578.86 18.8344
9580.17 15.2405
9581.49 13.1447
9582.80 11.7841
9584.11 10.8337
9585.43 10.1347
9588.06 9.17601
9590.68 8.55163
9593.31 8.11287
9595.94 7.78797
9601.19 7.33854
9606.45 7.04202
9611.70 6.83120
9616.96 6.67320
9627.47 6.45101
9637.98 6.30092
9648.49 6.19155
9659.00 6.10743
9680.02 5.98436
9690.53 5.93721
9701.04 5.89668
9711.55 5.86200
9722.06 5.83525
9727.31 5.82929
9732.57 5.84297
9735.20 5.87683
9737.82 5.98837
9739.14 6.15017
9739.79 6.31261
9740.45 6.60752
9741.11 7.22480
9741.44 7.82252
9741.76 8.86779
9742.09 10.9589
9742.26 12.8767
9742.42 16.0643
9742.59 21.9186
9742.67 26.8571
9742.75 34.3610
9742.83 46.4622
9742.91 67.4706
9743.00 107.163
9743.04 140.082
9743.08 187.278
9743.15 296.969
9743.21 369.622
9743.28 297.671
9743.35 188.113
9743.41 122.721
9743.48 83.9222
9743.54 60.7444
9743.60 46.3917
9743.73 30.1143
9743.85 21.9308
9743.98 17.2224
9744.10 14.3200
9744.35 11.0533
9744.60 9.35205
9744.86 8.35940
9745.36 7.30753
9745.86 6.78817
9746.36 6.49456
9747.36 6.18990
9749.37 5.95817
9751.37 5.87001
9755.38 5.79822
9759.39 5.76589
9767.41 5.73033
9775.43 5.70623
9791.47 5.66754
9807.51 5.63335
9871.68 5.50419
9903.76 5.43268
9935.84 5.34524
9951.88 5.28992
9967.92 5.22057
9983.96 5.12679
9991.98 5.06434
10000.0 4.98475
10005.9 4.90984
10011.8 4.81360
10017.7 4.68398
10023.6 4.49818
10026.5 4.36984
10029.4 4.20456
10032.4 3.98139
10035.3 3.66555
10036.8 3.45059
10038.3 3.18070
10039.8 2.83032
10041.2 2.36158
10042.7 1.72080
10044.2 0.902515
10044.9 0.599964
10045.3 0.665423
10045.6 1.15072
10045.8 1.75955
10046.0 2.75849
10046.2 4.57953
10046.4 7.59701
10046.5 10.1848
10046.6 13.3746
10046.7 17.7304
10046.7 23.7609
10046.8 32.2301
10046.9 44.2798
10047.0 61.5582
10047.1 86.2007
10047.3 162.618
10047.5 230.763
10047.5 233.032
10047.6 211.494
10047.8 152.836
10047.9 121.577
10048.0 98.1191
10048.2 69.0545
10048.5 51.5173
10048.7 41.1680
10048.9 33.9862
10049.1 29.1978
10049.5 22.9986
10049.9 19.1565
10050.4 16.6765
10051.2 13.5958
10052.1 11.7855
10052.9 10.6260
10053.8 9.81516
10054.6 9.21769
10056.3 8.39413
10058.0 7.86030
10059.7 7.48270
10061.4 7.20433
10064.9 6.81738
10068.3 6.56131
10071.7 6.37858
10075.1 6.24101
10081.9 6.04595
10088.7 5.91217
10095.5 5.81273
10102.4 5.73428
10116.0 5.61372
10129.6 5.51915
10156.9 5.35726
10184.2 5.18369
10197.8 5.07287
10211.5 4.92577
10218.3 4.82858
10225.1 4.70537
10231.9 4.54138
10238.8 4.30848
10242.2 4.14956
10245.6 3.94574
10249.0 3.67412
10252.4 3.29373
10254.1 3.03959
10255.8 2.72511
10257.5 2.32320
10259.2 1.80733
10260.9 1.14654
10262.6 0.480292
10263.1 0.415687
10263.5 0.504524
10263.9 0.913609
10264.3 1.97618
10264.6 3.03870
10264.8 4.62401
10265.0 7.10594
10265.2 11.0702
10265.4 17.9854
10265.6 29.3585
10265.8 49.4370
10266.0 85.4061
10266.3 162.599
10266.6 233.988
10266.7 236.433
10266.8 214.536
10267.1 153.925
10267.3 115.650
10267.5 89.2531
10267.7 71.2420
10267.9 59.1938
10268.3 43.1514
10268.6 34.0500
10269.0 28.0983
10269.4 24.1422
10270.2 19.1481
10271.0 16.1426
10271.8 14.1789
10272.6 12.8042
10273.4 11.8032
10274.9 10.4144
10276.5 9.51774
10278.1 8.88920
10279.7 8.42473
10282.8 7.78309
10286.0 7.36220
10289.1 7.06447
10292.2 6.84295
10298.5 6.53215
10304.8 6.32399
10311.1 6.17301
10317.4 6.05772
10330.0 5.88993
10342.6 5.77035
10367.8 5.60125
10393.0 5.47584
10418.1 5.36896
10443.3 5.27347
10449.6 5.25545
10455.9 5.25206
10459.1 5.27082
10462.2 5.34787
10463.8 5.46654
10464.6 5.58756
10465.4 5.80546
10466.1 6.26953
10466.5 6.71416
10466.9 7.49401
10467.3 9.10859
10467.5 10.6248
10467.7 13.0367
10467.9 17.7775
10468.0 21.9002
10468.1 27.5636
10468.2 37.8473
10468.3 56.6390
10468.4 72.1918
10468.4 95.0225
10468.5 129.319
10468.5 178.277
10468.6 283.320
10468.6 350.751
10468.7 283.742
10468.8 178.726
10468.8 121.662
10468.9 85.1041
10469.0 62.4474
10469.0 49.8861
10469.1 32.1772
10469.2 23.6696
10469.4 18.2347
10469.5 15.0964
10469.7 11.3261
10469.9 9.35038
10470.2 8.18966
10470.6 6.95156
10471.1 6.33964
10471.5 5.99268
10472.5 5.63299
10474.3 5.35992
10476.1 5.25566
10479.8 5.16859
10483.5 5.12639
10498.2 5.03043
10512.9 4.94799
10527.6 4.85987
10542.4 4.76130
10557.1 4.65056
10564.4 4.59343
10571.8 4.54950
10575.5 4.55325
10579.1 4.63922
10581.0 4.79779
10581.9 4.96697
10582.8 5.28297
10583.7 5.95755
10584.2 6.61588
10584.7 7.77667
10585.1 10.1003
10585.4 12.2415
10585.6 15.8057
10585.8 22.3592
10585.9 28.1836
10586.0 36.2895
10586.2 50.5832
10586.3 73.2363
10586.4 114.565
10586.5 196.490
10586.6 310.585
10586.7 390.122
10586.8 311.577
10586.9 197.963
10587.0 126.902
10587.1 86.7514
10587.2 62.6075
10587.3 47.3751
10587.4 36.3845
10587.4 29.6747
10587.6 21.2651
10587.8 16.2147
10588.0 13.2541
10588.4 9.82464
10588.7 8.05067
10589.1 7.01469
10589.5 6.35639
10589.8 5.92125
10590.6 5.36792
10591.3 5.05370
10592.8 4.71433
10594.2 4.53845
10595.7 4.42940
10598.7 4.29309
10604.5 4.12255
10610.4 3.98085
10616.3 3.83490
10622.2 3.67333
10634.0 3.26720
10639.9 3.00100
10645.7 2.67211
10651.6 2.25434
10657.5 1.71403
10660.5 1.38421
10663.4 1.01411
10666.3 0.616151
10669.3 0.252767
10670.8 0.143370
10672.2 0.167719
10673.0 0.272692
10673.7 0.476137
10674.4 0.832858
10675.2 1.40831
10675.9 2.34034
10676.6 3.80129
10677.4 6.17512
10678.1 9.99940
10678.8 16.5222
10679.6 27.7544
10680.3 48.4507
10681.0 86.2236
10681.9 163.286
10682.7 237.303
10683.2 240.163
10683.6 218.990
10684.4 156.804
10685.3 108.740
10686.1 79.4685
10687.0 61.2429
10687.8 49.3371
10688.7 41.0817
10689.5 35.2395
10691.2 27.5548
10693.0 22.7949
10694.7 19.6341
10698.1 15.7159
10701.5 13.4186
10704.9 11.9206
10708.3 10.8704
10711.7 10.0963
10718.5 9.02529
10725.3 8.32045
10732.1 7.81700
10739.0 7.43722
10752.6 6.89062
10766.2 6.50223
10793.5 5.92793
10820.8 5.41271
10834.4 5.11510
10848.0 4.74054
10854.8 4.50181
10861.7 4.20741
10868.5 3.82862
10875.3 3.31654
10878.7 2.98386
10882.1 2.57836
10885.5 2.07690
10888.9 1.45711
10892.3 0.725732
10894.0 0.376724
10895.7 0.186753
10896.6 0.257459
10897.4 0.570715
10897.9 0.884213
10898.3 1.34483
10898.7 2.03982
10899.1 3.03070
10899.6 4.51136
10900.0 6.63339
10900.4 9.86002
10900.8 14.6148
10901.3 22.1162
10901.7 33.6518
10902.1 52.6135
10902.5 82.3443
10903.2 158.176
10903.8 230.733
10904.2 233.699
10904.5 213.497
10905.1 154.139
10905.6 119.603
10906.0 94.7402
10906.5 77.1125
10907.0 64.4165
10907.9 47.9521
10908.8 38.0999
10909.7 31.7085
10910.6 27.2944
10912.5 21.7057
10914.3 18.3315
10916.2 16.1073
10918.0 14.5402
10919.8 13.3859
10923.5 11.7875
10927.2 10.7447
10930.9 10.0079
10934.5 9.46202
10941.9 8.70254
10949.2 8.19750
10956.6 7.83488
10963.9 7.56021
10978.6 7.16548
10986.0 7.01726
10993.3 6.89149
11000.7 6.78544
11008.0 6.70589
11011.7 6.69054
11015.4 6.73851
11017.2 6.84823
11018.1 6.96939
11019.0 7.19564
11020.0 7.68755
11020.4 8.17115
11020.9 9.02952
11021.1 9.73012
11021.3 10.7644
11021.6 12.3793
11021.8 15.0971
11022.0 20.1789
11022.1 24.7772
11022.3 31.2933
11022.4 43.0869
11022.5 62.4985
11022.6 99.9451
11022.7 135.222
11022.7 183.613
11022.8 286.652
11022.9 362.309
11023.0 287.560
11023.1 184.887
11023.1 129.594
11023.2 92.2329
11023.3 68.6311
11023.3 55.0473
11023.5 37.1966
11023.6 27.5201
11023.7 21.4094
11023.9 17.8297
11024.1 13.6690
11024.4 11.3762
11024.6 10.0699
11025.2 8.64881
11025.7 7.92112
11026.2 7.51111
11027.3 7.07312
11028.3 6.85484
11029.4 6.72737
11031.5 6.58557
11035.7 6.45254
11039.9 6.37731
11048.3 6.27067
11056.7 6.18144
11073.5 6.01226
11090.3 5.82902
11107.1 5.59633
11115.5 5.43967
11123.9 5.22904
11128.1 5.08973
11132.3 4.91374
11136.5 4.68117
11140.7 4.35485
11142.8 4.13513
11144.9 3.85705
11147.0 3.49336
11149.1 2.99845
11150.1 2.67920
11151.2 2.29487
11152.2 1.83086
11153.3 1.28276
11154.3 0.713899
11154.9 0.521496
11155.4 0.592698
11155.6 0.868292
11155.9 1.44380
11156.2 2.56277
11156.4 4.68670
11156.6 6.54744
11156.7 8.99160
11156.8 12.4481
11157.0 17.4059
11157.1 24.6309
11157.2 35.3265
11157.3 51.3384
11157.5 75.2398
11157.7 146.487
11157.9 213.335
11158.1 216.226
11158.2 196.614
11158.4 142.030
11158.7 97.8117
11158.9 71.1912
11159.2 54.9289
11159.4 44.7769
11159.7 37.5193
11159.9 32.3457
11160.4 25.6833
11160.9 21.4924
11161.4 18.7454
11162.4 15.3279
11163.4 13.2928
11164.3 11.9747
11165.3 11.0387
11166.3 10.3533
11168.3 9.40267
11170.2 8.77830
11172.2 8.33619
11174.2 8.00593
11178.1 7.54203
11182.1 7.23007
11186.0 7.00229
11190.0 6.82608
11197.8 6.56354
11205.7 6.36782
11221.5 6.05846
11237.3 5.76102
11245.2 5.58372
11253.0 5.35793
11260.9 5.03115
11264.9 4.79434
11268.8 4.46458
11270.8 4.24339
11272.7 3.96393
11274.7 3.59878
11276.7 3.10186
11277.7 2.77923
11278.7 2.39417
11279.6 1.92321
11280.6 1.36933
11281.6 0.779383
11282.1 0.571997
11282.6 0.611795
11282.8 0.857345
11283.1 1.41229
11283.3 2.52677
11283.6 4.57970
11283.7 6.38665
11283.8 8.74272
11284.0 12.0647
11284.1 16.8123
11284.2 24.4036
11284.3 34.8922
11284.4 50.5248
11284.6 73.7463
11284.8 142.074
11285.0 209.629
11285.1 212.794
11285.2 194.537
11285.4 140.037
11285.6 106.495
11285.8 84.2688
11285.9 68.6292
11286.1 57.4165
11286.4 42.5889
11286.7 34.0637
11287.1 28.3830
11287.4 24.5909
11288.0 19.7501
11288.7 16.7970
11289.3 14.8536
11290.6 12.4874
11291.9 11.0909
11293.2 10.1848
11294.5 9.54626
11295.8 9.07207
11298.4 8.41239
11301.0 7.97617
11303.6 7.66545
11306.1 7.43337
11311.3 7.11026
11313.9 6.99942
11316.5 6.92140
11319.1 6.89317
11320.4 6.91758
11321.7 7.00080
11323.0 7.22973
11323.6 7.47701
11324.3 7.92902
11324.9 8.89709
11325.2 9.81412
11325.6 11.3963
11325.9 14.5974
11326.0 17.3978
11326.2 21.9084
11326.4 29.8074
11326.5 45.3301
11326.6 59.1823
11326.7 81.0992
11326.8 117.412
11326.8 180.637
11326.9 284.328
11327.0 355.799
11327.1 285.366
11327.2 182.186
11327.3 131.503
11327.3 98.4346
11327.4 73.0342
11327.5 58.4029
11327.6 39.2077
11327.7 28.8405
11327.8 22.6824
11328.0 18.7483
11328.2 14.3354
11328.5 11.8701
11328.7 10.4109
11329.3 8.85972
11329.8 8.06240
11330.3 7.61098
11331.3 7.12360
11332.3 6.87570
11333.4 6.72718
11335.4 6.55478
11339.6 6.37898
11343.7 6.27106
11351.9 6.11209
11360.1 5.97841
11376.6 5.72118
11393.1 5.42487
11401.3 5.24039
11409.6 5.01339
11417.8 4.71824
11426.0 4.31009
11430.1 4.03754
11434.3 3.69528
11438.4 3.25243
11442.5 2.66157
11444.6 2.28714
11446.6 1.84614
11448.7 1.33236
11450.7 0.766014
11452.8 0.287160
11453.8 0.248812
11454.3 0.364942
11454.9 0.638607
11455.4 1.18018
11455.9 2.13373
11456.4 3.83548
11456.9 6.75745
11457.4 12.0863
11457.9 21.7531
11458.2 29.6622
11458.5 40.2784
11458.7 55.7698
11459.0 76.5186
11459.5 148.720
11460.1 218.206
11460.4 221.581
11460.6 202.610
11461.2 147.019
11461.8 100.841
11462.4 73.2640
11463.0 56.5293
11463.6 45.9168
11464.2 38.5598
11464.8 33.3172
11466.0 26.5009
11467.3 22.2693
11468.5 19.4612
11470.9 15.9738
11473.3 13.9087
11475.7 12.5616
11478.2 11.6102
11480.6 10.9088
11485.4 9.93889
11490.3 9.30193
11495.1 8.85146
11500.0 8.51571
11500.0 7.32887
14000.0 7.25545
15000.0 7.23583
17000.0 7.20806
20000.0 7.18650
25000.0 7.18213
30000.0 7.19873
35000.0 7.22578
40000.0 7.25803
45000.0 7.29268
50000.0 7.32812
60000.0 7.39799
67500.0 7.44788
72000.0 7.47645
85000.0 7.55277
99999.9 7.62943
100000 7.61200
150000 7.69100
200000 7.70500
400000 7.55600
600000 7.35400
620000 7.32700
623000 7.32260
623571 7.31872
640000 7.29626
660000 7.26961
680000 7.24237
800000 7.08130
1.00000E+06 6.80090
1.20000E+06 6.55030
1.24000E+06 6.49816
1.24008E+06 6.49798
1.32000E+06 6.39459
1.40000E+06 6.29110
1.43000E+06 6.25230
1.45000E+06 6.22559
1.48000E+06 6.18629
1.48022E+06 6.18567
1.60000E+06 6.02862
1.80000E+06 5.76860
1.89000E+06 5.65562
2.00000E+06 5.51731
2.00017E+06 5.51674
2.02000E+06 5.49385
2.02005E+06 5.49379
2.05000E+06 5.46066
2.20000E+06 5.28964
2.40000E+06 5.06362
2.50000E+06 4.94951
2.60000E+06 4.86092
2.80000E+06 4.68383
3.00000E+06 4.50535
3.20000E+06 4.39411
3.20400E+06 4.39165
3.20463E+06 4.39130
3.50000E+06 4.22575
3.51100E+06 4.22241
3.51127E+06 4.22233
4.00000E+06 4.07386
4.50000E+06 4.02050
5.00000E+06 4.03060
6.00000E+06 4.10438
7.00000E+06 4.25525
7.48300E+06 4.30373
7.48366E+06 4.30379
8.00000E+06 4.35602
9.00000E+06 4.47594
9.18600E+06 4.48910
9.18677E+06 4.48916
9.48100E+06 4.51018
9.48181E+06 4.51011
9.72800E+06 4.52865
9.72881E+06 4.52870
1.00000E+07 4.54804
1.00900E+07 4.55002
1.00932E+07 4.55009
1.10000E+07 4.56958
1.20000E+07 4.59208
1.30000E+07 4.52501
1.40000E+07 4.45803
1.50000E+07 4.39304
1.60000E+07 4.32801
1.64100E+07 4.29553
1.64116E+07 4.29541
1.65200E+07 4.28732
1.65216E+07 4.28716
1.69600E+07 4.25234
1.69615E+07 4.25223
1.70000E+07 4.24951
1.80000E+07 4.17103
1.90000E+07 4.08697
2.00000E+07 4.00198