In-113(n,tot) ENDF/B-VII.1
Energy(eV) XS(b)
1.00000E-05 599.962
1.25000E-05 537.011
1.50000E-05 490.542
2.00000E-05 425.316
2.75000E-05 363.253
3.50000E-05 322.408
4.25000E-05 292.922
5.00000E-05 270.349
6.25000E-05 242.198
7.50000E-05 221.417
0.000100000 192.249
0.000125000 172.344
0.000150000 157.651
0.000200000 137.027
0.000275000 117.405
0.000350000 104.492
0.000425000 95.1702
0.000500000 88.0346
0.000625000 79.1363
0.000750000 72.5686
0.00100000 63.3511
0.00125000 57.0622
0.00150000 52.4210
0.00200000 45.9082
0.00275000 39.7148
0.00350000 35.6415
0.00425000 32.7029
0.00500000 30.4548
0.00625000 27.6536
0.00750000 25.5882
0.0100000 22.6938
0.0125000 20.7231
0.0150000 19.2719
0.0200000 17.2418
0.0253000 15.7939
0.0314750 14.5999
0.0376500 13.7189
0.0500000 12.4875
0.0625000 11.6464
0.0750000 11.0351
0.100000 10.1974
0.125000 9.64699
0.150000 9.25817
0.200000 8.75317
0.275000 8.35358
0.350000 8.17773
0.500000 8.19521
0.750000 9.02872
1.00000 11.3067
1.19023 15.4017
1.28534 19.3508
1.38045 26.2296
1.47556 39.8192
1.52312 52.2272
1.57068 72.7562
1.61823 110.306
1.64201 141.905
1.66579 189.866
1.68957 267.176
1.71334 401.479
1.73712 655.787
1.74901 867.208
1.76090 1166.47
1.77068 1488.64
1.78045 1855.64
1.80000 2308.87
1.81955 1841.77
1.83910 1149.17
1.85921 697.241
1.87933 448.857
1.89944 307.799
1.91955 222.554
1.93966 167.895
1.95978 131.049
2.00000 86.3282
2.04160 60.7872
2.08320 45.4259
2.12480 35.5047
2.16640 28.7419
2.24960 20.3975
2.33280 15.6553
2.41600 12.7140
2.49920 10.7700
2.66560 8.45215
2.83200 7.18789
2.99840 6.43704
3.33120 5.68256
3.66400 5.47872
3.83040 5.57004
3.99680 5.88010
4.16320 6.66520
4.24640 7.46509
4.32960 8.88926
4.41280 11.7362
4.45440 14.3419
4.49600 18.6416
4.53760 26.4430
4.55840 32.9387
4.57920 42.6792
4.60000 58.1030
4.62080 84.1885
4.64160 131.617
4.66240 221.676
4.68120 352.458
4.70000 439.878
4.71880 352.744
4.73760 222.026
4.75400 146.493
4.77040 100.976
4.78680 73.1478
4.80320 55.3875
4.83600 35.2847
4.86880 24.9456
4.90160 18.9927
4.93440 15.2703
5.00000 11.0642
5.07813 8.57377
5.15625 7.22964
5.23438 6.42086
5.31250 5.89511
5.46875 5.27208
5.62500 4.92720
5.93750 4.57032
6.25000 4.39226
6.87500 4.21701
7.50000 4.13118
8.75000 4.05811
10.0000 4.07793
11.1417 4.25505
11.7125 4.49387
12.2833 4.99705
12.5687 5.45798
12.8541 6.19975
13.1395 7.47587
13.4250 9.89325
13.5677 11.9778
13.7104 15.2053
13.8531 20.5514
13.9958 30.2838
14.0671 38.4205
14.1385 50.6990
14.2098 70.4240
14.2812 104.943
14.3169 132.767
14.3526 173.366
14.3882 235.779
14.4239 338.508
14.4596 524.345
14.4774 678.513
14.4953 908.592
14.5131 1270.87
14.5309 1877.97
14.5488 2966.51
14.5666 4993.22
14.5833 8023.09
14.6000 10070.4
14.6167 8084.15
14.6334 5070.19
14.6439 3727.80
14.6544 2792.18
14.6753 1683.57
14.6963 1106.86
14.7173 778.389
14.7382 575.907
14.7592 443.199
14.8011 286.197
14.8430 200.677
14.8850 149.100
14.9688 92.6760
15.0527 64.0718
15.1365 47.5723
15.2204 37.1754
15.3042 30.1903
15.4719 21.6524
15.6396 16.8085
15.8074 13.7830
15.9751 11.7594
16.3105 9.28974
16.6459 7.88583
16.9813 7.00614
17.3167 6.41730
17.9875 5.71076
18.6584 5.35773
19.3292 5.27124
19.6646 5.36559
20.0000 5.63781
20.3777 6.42940
20.5666 7.28337
20.7555 8.88644
20.9443 12.3305
21.0388 15.7110
21.1332 21.7025
21.2276 33.7704
21.2748 44.9479
21.3220 63.6277
21.3693 98.1547
21.3929 127.420
21.4165 172.034
21.4401 244.316
21.4637 370.442
21.4755 470.157
21.4873 610.260
21.4991 810.129
21.5109 1093.79
21.5305 1757.95
21.5500 2209.15
21.5696 1777.00
21.5891 1117.63
21.6022 806.961
21.6153 595.692
21.6284 452.236
21.6416 352.819
21.6678 230.309
21.6940 161.882
21.7202 120.246
21.7465 93.1972
21.7989 61.4569
21.8514 44.3007
21.9038 34.0002
22.0087 22.7776
22.1136 17.1173
22.2185 13.8752
22.4283 10.5289
22.6381 8.99762
22.8479 8.28079
23.2675 8.18119
23.4773 8.72644
23.6870 9.84186
23.8968 11.9330
24.1066 15.9964
24.2115 19.4965
24.3164 24.8674
24.4213 33.6265
24.5262 49.1850
24.5787 61.8706
24.6311 80.5542
24.6836 109.597
24.7360 158.085
24.7622 195.413
24.7885 247.521
24.8147 323.162
24.8409 438.186
24.8671 623.853
24.8934 945.884
24.9065 1198.90
24.9196 1552.85
24.9327 2054.69
24.9458 2762.06
24.9679 4440.70
24.9900 5580.49
25.0121 4492.26
25.0342 2826.81
25.0477 2099.26
25.0612 1586.09
25.0882 969.361
25.1152 643.762
25.1422 456.407
25.1692 340.084
25.1962 263.418
25.2502 172.187
25.3042 122.180
25.3582 91.8781
25.4663 58.5374
25.5743 41.5273
25.6823 31.6663
25.7903 25.4321
25.8983 21.2424
26.1143 16.1899
26.3304 13.6582
26.4384 13.2262
26.5464 13.9444
26.6004 15.4533
26.6544 19.3122
26.6814 23.4640
26.7084 31.2581
26.7354 47.5582
26.7489 62.3830
26.7624 84.9512
26.7812 130.768
26.8000 161.920
26.8188 132.176
26.8376 86.5809
26.8532 61.0498
26.8687 45.1605
26.8843 35.1729
26.8999 28.6547
26.9310 21.0725
26.9621 17.0383
27.0244 13.0822
27.0867 11.2249
27.2112 9.47290
27.3357 8.60493
27.5848 7.66170
27.8338 7.10579
28.3319 6.43136
28.8301 6.04220
29.3282 5.83363
29.8263 5.80823
30.3244 6.09530
30.5735 6.51855
30.6980 6.99143
30.7602 7.58407
30.7914 8.28990
30.8225 9.94276
30.8600 12.9474
30.8975 10.2420
30.9379 8.64161
30.9783 8.29378
31.0591 8.45825
31.2206 9.74430
31.3822 12.1386
31.5437 16.6525
31.6245 20.4876
31.7053 26.3276
31.7860 35.7824
31.8668 52.4240
31.9072 65.8756
31.9476 85.5211
31.9880 115.712
32.0284 165.293
32.0486 202.852
32.0687 254.487
32.0889 327.985
32.1091 436.843
32.1293 606.339
32.1495 885.578
32.1697 1374.23
32.1899 2256.07
32.2100 3637.66
32.2300 4583.42
32.2501 3694.54
32.2701 2327.29
32.2914 1405.45
32.3126 904.087
32.3339 621.378
32.3552 451.072
32.3765 341.943
32.3977 268.293
32.4403 178.594
32.4828 128.282
32.5253 97.3119
32.6104 62.7338
32.6955 44.8307
32.7806 34.3409
32.8656 27.6455
32.9507 23.0980
33.1209 17.4624
33.2910 14.2083
33.4612 12.1427
33.6313 10.7394
33.9716 8.99009
34.3119 7.96710
34.6522 7.32237
34.8224 7.13743
34.9074 7.19026
34.9500 7.42394
34.9712 7.72965
34.9925 8.34219
35.0300 9.81368
35.0675 8.26020
35.0863 7.65781
35.1050 7.31199
35.1425 6.97074
35.2176 6.71087
35.3676 6.49711
35.6677 6.24415
36.2680 5.90026
37.4685 5.48001
38.6689 5.22462
39.8694 5.05042
41.0699 4.93142
41.6701 4.89679
42.2704 4.89483
42.8706 4.97246
43.1707 5.08575
43.4708 5.32220
43.7710 5.86320
43.9210 6.40981
44.0711 7.39616
44.2211 9.42949
44.2962 11.3620
44.3712 14.6953
44.4462 21.1866
44.4837 27.0201
44.5213 36.4921
44.5588 53.3167
44.5963 87.1610
44.6150 118.158
44.6338 168.495
44.6526 254.985
44.6713 407.351
44.6907 652.427
44.7100 819.501
44.7294 661.240
44.7487 418.620
44.7654 279.015
44.7820 194.025
44.7987 141.674
44.8153 108.129
44.8486 70.1080
44.8819 50.7879
44.9152 40.0630
44.9485 33.9088
45.0151 29.1710
45.0816 31.8263
45.1149 36.6973
45.1482 45.7570
45.1815 62.7173
45.2148 96.9730
45.2315 127.705
45.2481 176.124
45.2648 255.635
45.2814 387.726
45.2911 496.016
45.3007 620.646
45.3200 781.030
45.3393 632.923
45.3586 402.740
45.3767 260.153
45.3949 176.836
45.4130 127.104
45.4311 95.8743
45.4674 60.9702
45.5037 43.1350
45.5399 32.8450
45.5762 26.3653
45.6487 18.9323
45.7212 14.9510
45.7937 12.5451
45.9388 9.86130
46.0838 8.44362
46.2289 7.58633
46.5190 6.62040
46.8090 6.10031
47.0991 5.77924
47.6793 5.40633
48.2595 5.19599
48.8397 5.05942
50.0000 4.88877
50.5313 4.83870
50.7969 4.83161
50.8633 4.84082
50.9297 4.86976
50.9629 4.90413
50.9961 4.97395
51.0127 5.03702
51.0293 5.13711
51.0459 5.30271
51.0625 5.58044
51.0813 6.05616
51.1000 6.37299
51.1188 6.05362
51.1375 5.57501
51.1540 5.29574
51.1705 5.12773
51.1870 5.02480
51.2035 4.95887
51.2365 4.88333
51.2695 4.84337
51.3356 4.80343
51.4016 4.78337
51.6656 4.74708
52.1938 4.70714
53.2500 4.64576
54.3063 4.59514
54.8344 4.57482
55.0984 4.57251
55.2305 4.59146
55.2635 4.60821
55.2965 4.64207
55.3295 4.72084
55.3460 4.80046
55.3625 4.93355
55.3813 5.16254
55.4000 5.31507
55.4188 5.16140
55.4375 4.93111
55.4510 4.81665
55.4645 4.74095
55.4914 4.65669
55.5184 4.61529
55.5453 4.59233
55.6531 4.55738
55.8688 4.53928
56.3000 4.52691
56.7313 4.53204
56.9469 4.55915
57.0547 4.61663
57.1086 4.71894
57.1356 4.85049
57.1625 5.14476
57.1813 5.50019
57.2000 5.73859
57.2188 5.50773
57.2375 5.15965
57.2520 4.97816
57.2664 4.86340
57.2953 4.74460
57.3531 4.67209
57.4687 4.68228
57.5843 4.76443
57.6999 4.93450
57.8155 5.30199
57.8733 5.65698
57.9311 6.27103
57.9889 7.45674
58.0178 8.50427
58.0467 10.1674
58.0756 13.0122
58.1045 18.3853
58.1190 22.9761
58.1334 29.9201
58.1479 40.7549
58.1623 57.7534
58.1812 90.6252
58.2000 113.267
58.2189 92.3175
58.2377 59.8668
58.2506 44.2722
58.2635 33.7152
58.2764 26.5824
58.2893 21.6617
58.3150 15.6163
58.3408 12.2485
58.3666 10.2008
58.3924 8.86992
58.4439 7.30546
58.4955 6.45662
58.5470 5.94465
58.6501 5.38357
58.7532 5.10125
58.8563 4.95111
58.9594 4.91856
59.0110 5.02835
59.0367 5.20638
59.0625 5.62028
59.0813 6.14713
59.1000 6.49536
59.1188 6.12676
59.1375 5.57912
59.1526 5.27946
59.1677 5.08905
59.1979 4.88398
59.2280 4.78363
59.2582 4.72587
59.3186 4.66112
59.3789 4.62364
59.6203 4.54671
60.1031 4.47519
61.0688 4.40201
63.0000 4.30959
64.9313 4.22939
65.8969 4.19346
66.3797 4.18063
66.6211 4.18077
66.7418 4.19391
66.8022 4.22487
66.8323 4.26976
66.8625 4.38154
66.9000 4.59270
66.9375 4.38132
66.9634 4.27957
66.9892 4.23338
67.0410 4.19801
67.1444 4.18065
67.3514 4.17844
67.7652 4.20332
68.1791 4.27532
68.5929 4.45435
68.7998 4.63144
69.0068 4.92853
69.2137 5.45680
69.4206 6.48230
69.5241 7.37696
69.6275 8.76747
69.7310 11.0689
69.8345 15.2244
69.9379 23.7555
69.9897 31.7644
70.0414 45.2929
70.0931 70.5869
70.1190 92.2347
70.1448 125.502
70.1707 179.920
70.1966 276.001
70.2095 352.823
70.2224 461.801
70.2354 618.991
70.2483 844.749
70.2692 1363.35
70.2900 1721.15
70.3109 1392.79
70.3317 881.599
70.3556 515.233
70.3795 324.673
70.4035 220.737
70.4274 159.521
70.4513 120.892
70.4752 95.0995
70.5231 63.9983
70.5709 46.7028
70.6187 36.1048
70.7144 24.3030
70.8101 18.1943
70.9058 14.6084
71.0014 12.3131
71.0971 10.7494
71.2885 8.80467
71.4798 7.68528
71.6712 7.03030
71.7668 6.94584
71.8147 7.17508
71.8386 7.55105
71.8625 8.39578
71.9000 10.2825
71.9375 8.24304
71.9549 7.49525
71.9723 7.04594
72.0070 6.57991
72.0766 6.20582
72.2156 5.89505
72.4938 5.55815
73.0500 5.17128
73.6063 4.95019
73.8844 4.89022
74.0234 4.91380
74.0582 4.94889
74.0930 5.02579
74.1277 5.21522
74.1451 5.41431
74.1625 5.75749
74.1813 6.32593
74.2000 6.70409
74.2188 6.32049
74.2375 5.74641
74.2602 5.32396
74.2828 5.11225
74.3281 4.93388
74.3734 4.86555
74.4188 4.83358
74.5094 4.81210
74.6000 4.82478
74.6906 4.88412
74.7359 4.94903
74.7813 5.06385
74.8266 5.28284
74.8719 5.75850
74.8945 6.22571
74.9172 7.04051
74.9399 8.58742
74.9625 11.6937
74.9813 15.9270
75.0000 18.7475
75.0188 15.9237
75.0375 11.6849
75.0513 9.53849
75.0651 8.13602
75.0789 7.21616
75.0927 6.59697
75.1203 5.85590
75.1479 5.45304
75.1755 5.21182
75.2030 5.05619
75.2582 4.87348
75.3134 4.77292
75.3686 4.71034
75.4789 4.63648
75.6996 4.56245
75.9203 4.51912
76.8031 4.41177
78.5688 4.26741
80.3344 4.14871
82.1000 4.03477
83.8656 3.91646
85.6313 3.79398
86.5141 3.73950
87.3969 3.70959
88.2797 3.76422
88.7211 3.89924
88.9418 4.10852
89.0522 4.49828
89.1073 5.20010
89.1349 6.12150
89.1625 8.22611
89.1813 10.7335
89.2000 12.4097
89.2188 10.7634
89.2375 8.28491
89.2555 6.74871
89.2735 5.87502
89.3094 5.06149
89.3814 4.59893
89.5252 4.54009
89.8130 4.99010
90.1007 5.93120
90.3885 7.81206
90.5323 9.47085
90.6762 12.0657
90.8201 16.3880
90.9639 24.2520
91.0359 30.7889
91.1078 40.5688
91.1797 56.0618
91.2517 82.5495
91.2876 103.376
91.3236 133.016
91.3596 177.055
91.3955 246.121
91.4315 362.365
91.4675 576.565
91.4855 755.242
91.5034 1019.08
91.5214 1418.67
91.5394 2024.52
91.5647 3267.97
91.5900 4122.43
91.6153 3328.94
91.6406 2100.91
91.6612 1421.40
91.6818 995.448
91.7024 726.071
91.7230 549.725
91.7642 344.613
91.8054 236.193
91.8466 172.518
91.8878 132.115
91.9703 85.7445
92.0527 61.2054
92.1351 46.7370
92.2999 31.6333
92.4647 25.6083
92.5471 25.1189
92.6296 26.9799
92.7120 33.4201
92.7532 40.2729
92.7944 52.2529
92.8356 74.7462
92.8562 93.6992
92.8768 122.161
92.8974 167.016
92.9077 199.375
92.9180 241.753
92.9283 298.102
92.9386 374.019
92.9489 477.008
92.9592 615.627
92.9694 792.919
92.9796 998.635
93.0000 1271.58
93.0102 1209.66
93.0204 1040.24
93.0408 667.330
93.0647 393.183
93.0886 251.361
93.1125 174.189
93.1364 128.695
93.1604 99.8951
93.1843 80.5719
93.2321 57.0547
93.2799 43.7708
93.3277 35.4773
93.4234 25.9578
93.5190 20.7861
93.6146 17.5866
93.8059 13.8673
93.9972 11.7718
94.1885 10.4204
94.5710 8.76381
94.9536 7.77470
95.3361 7.11041
96.1012 6.26380
96.8663 5.74037
97.6314 5.40220
98.0140 5.31767
98.2052 5.32421
98.3965 5.40788
98.5878 5.68306
98.6834 5.99635
98.7791 6.59126
98.8747 7.85305
98.9225 9.05644
98.9703 11.1064
99.0182 14.9661
99.0421 18.2831
99.0660 23.3978
99.0899 31.7869
99.1138 46.6568
99.1377 75.5248
99.1497 100.039
99.1616 135.360
99.1712 173.042
99.1808 216.530
99.2000 272.999
99.2192 222.023
99.2384 142.214
99.2503 106.765
99.2622 81.8045
99.2860 51.9024
99.3098 36.1549
99.3336 27.0888
99.3574 21.4531
99.3812 17.7279
99.4288 13.2744
99.4764 10.8139
99.5240 9.30858
99.6192 7.62676
99.7144 6.74634
99.8096 6.22006
100.000 5.63350
100.241 5.25766
100.482 5.04433
100.963 4.82012
101.445 4.75948
101.926 4.91664
102.167 5.15836
102.408 5.62397
102.648 6.52869
102.889 8.39584
103.009 10.0811
103.130 12.7547
103.250 17.2618
103.371 25.5292
103.431 32.4347
103.491 42.7803
103.551 59.1516
103.611 87.0233
103.641 108.799
103.672 139.574
103.702 184.834
103.732 254.785
103.762 369.888
103.792 574.824
103.807 740.374
103.822 975.300
103.837 1316.34
103.852 1809.95
103.876 2946.74
103.900 3745.55
103.924 3034.51
103.948 1919.42
103.973 1171.04
103.998 761.744
104.023 528.740
104.049 387.268
104.074 296.011
104.099 234.064
104.149 158.063
104.199 114.996
104.249 88.3368
104.350 58.2594
104.450 42.4659
104.551 33.1080
104.651 27.0667
104.752 22.9185
104.952 17.7020
105.153 14.6342
105.354 12.6544
105.555 11.2898
105.957 9.55600
106.359 8.52308
106.760 7.88491
106.961 7.78820
107.011 7.86694
107.062 8.11019
107.087 8.38256
107.112 8.89310
107.137 9.93362
107.150 10.8540
107.162 12.2045
107.181 15.1713
107.200 17.1685
107.219 15.1345
107.238 12.1297
107.261 9.92160
107.285 8.82986
107.308 8.24933
107.331 7.90858
107.378 7.54036
107.424 7.34682
107.518 7.13595
107.611 7.00830
107.983 6.69376
108.729 6.29772
110.219 5.81854
111.710 5.52248
113.200 5.31049
114.691 5.14130
116.181 4.99311
117.672 4.85329
118.417 4.79137
118.790 4.79077
118.883 4.81446
118.976 4.88551
119.023 4.97327
119.069 5.16628
119.093 5.35785
119.116 5.69561
119.139 6.34597
119.163 7.67023
119.181 9.45117
119.200 10.6292
119.219 9.43823
119.238 7.66402
119.260 6.34706
119.283 5.69424
119.306 5.35011
119.329 5.15254
119.375 4.94728
119.420 4.84861
119.512 4.75788
119.603 4.71593
119.969 4.64873
120.700 4.60801
121.066 4.63378
121.431 4.73996
121.797 5.05809
121.980 5.43813
122.071 5.82759
122.117 6.24321
122.163 7.37938
122.200 8.99432
122.238 7.74282
122.266 7.16668
122.295 7.04102
122.352 7.25640
122.467 8.41583
122.582 10.5418
122.696 14.5139
122.811 22.8740
122.868 30.8615
122.926 44.4941
122.954 55.1991
122.983 70.3736
123.012 92.7700
123.040 127.382
123.069 184.793
123.098 287.259
123.112 370.798
123.126 490.000
123.141 664.250
123.155 918.427
123.178 1497.18
123.200 1906.17
123.223 1546.03
123.245 979.256
123.266 628.244
123.287 424.330
123.308 302.549
123.330 226.018
123.372 140.276
123.414 96.5922
123.456 71.3688
123.499 55.5683
123.583 37.5219
123.668 27.9596
123.752 22.2525
123.837 18.5538
123.921 16.0072
124.090 12.7982
124.259 10.9067
124.428 9.68465
124.597 8.84190
124.935 7.77004
125.273 7.12734
125.611 6.70320
125.949 6.40390
126.625 6.00992
127.301 5.76112
127.977 5.58769
128.652 5.45784
130.004 5.27071
130.680 5.19975
131.356 5.14239
132.032 5.11071
132.370 5.12016
132.708 5.17662
132.877 5.24352
133.046 5.36369
133.215 5.58694
133.384 6.03221
133.468 6.42569
133.553 7.04056
133.637 8.06059
133.722 9.89954
133.806 13.6457
133.849 17.1291
133.891 22.9184
133.933 33.5283
133.954 42.3701
133.975 55.6215
133.997 76.5320
134.018 111.614
134.039 174.468
134.049 224.286
134.060 291.326
134.080 470.219
134.100 595.363
134.120 484.096
134.140 308.665
134.156 212.410
134.172 151.388
134.189 112.460
134.205 86.9010
134.237 56.7802
134.269 40.6853
134.301 31.1320
134.333 25.0472
134.397 17.9959
134.462 14.2051
134.526 11.9312
134.590 10.4519
134.654 9.43151
134.783 8.14402
134.911 7.38592
135.040 6.89697
135.168 6.56040
135.425 6.13302
135.682 5.87701
135.939 5.70781
136.196 5.58801
136.710 5.42906
137.224 5.32721
138.251 5.20039
139.279 5.12050
140.307 5.06262
141.335 5.01768
141.849 5.00175
141.977 5.00093
142.106 5.00635
142.170 5.01631
142.234 5.04222
142.266 5.07112
142.298 5.12813
142.330 5.25765
142.347 5.38670
142.363 5.59776
142.381 5.97040
142.400 6.21687
142.419 5.96710
142.438 5.59531
142.458 5.34355
142.478 5.20837
142.518 5.08657
142.558 5.03706
142.598 5.01236
142.678 4.98874
142.758 4.97731
143.078 4.95705
143.719 4.93417
144.359 4.91478
145.000 4.89744
145.640 4.88430
145.961 4.88222
146.281 4.88876
146.601 4.91961
146.761 4.95940
146.922 5.04112
147.002 5.11435
147.082 5.22963
147.162 5.42202
147.242 5.77000
147.322 6.48242
147.362 7.14457
147.402 8.24881
147.442 10.2761
147.462 11.9674
147.482 14.5045
147.502 18.5118
147.522 25.2425
147.542 37.3166
147.562 59.7933
147.581 94.1062
147.600 118.132
147.619 96.9166
147.638 63.3077
147.650 48.1835
147.662 37.5516
147.686 24.8460
147.709 18.1712
147.733 14.3336
147.757 11.9496
147.781 10.3742
147.828 8.49091
147.876 7.45057
147.924 6.81438
148.019 6.10542
148.114 5.73578
148.209 5.51682
148.304 5.37516
148.399 5.27749
148.590 5.15326
148.780 5.07873
149.161 4.99424
149.541 4.94722
149.922 4.91654
150.683 4.87690
151.445 4.85035
152.206 4.82983
153.729 4.79751
156.774 4.74766
159.819 4.70605
165.910 4.63216
172.000 4.56083
178.091 4.48353
184.181 4.38887
187.226 4.32843
190.272 4.25186
191.794 4.20409
193.317 4.14706
194.078 4.11480
194.840 4.08389
195.220 4.07684
195.411 4.08215
195.601 4.10396
195.791 4.17006
195.886 4.24535
195.982 4.38981
196.077 4.70129
196.124 5.00209
196.172 5.51805
196.219 6.50094
196.243 7.35214
196.267 8.67244
196.291 10.8522
196.315 14.7453
196.338 22.3732
196.350 28.9041
196.362 38.2781
196.381 59.9899
196.400 75.2679
196.419 62.0101
196.438 40.9508
196.452 30.0466
196.466 22.9039
196.480 18.1802
196.494 14.9729
196.522 11.0890
196.549 8.96387
196.577 7.67710
196.605 6.84614
196.661 5.86849
196.716 5.33400
196.772 5.00908
196.883 4.64533
196.995 4.45310
197.106 4.33662
197.329 4.20304
197.774 4.07641
198.219 4.00787
199.110 3.92665
199.555 3.91531
200.000 3.98517
200.141 4.07866
200.281 4.32712
200.352 4.63318
200.387 4.90711
200.422 5.34778
200.457 6.12501
200.492 7.66148
200.510 9.05110
200.527 11.2609
200.545 14.9986
200.562 21.3778
200.581 31.9326
200.600 38.9249
200.619 31.8791
200.638 21.3879
200.659 14.0495
200.680 10.2349
200.701 8.14728
200.722 6.91750
200.765 5.62670
200.807 5.01286
200.891 4.47817
200.976 4.26961
201.145 4.14178
201.314 4.15344
201.652 4.39866
201.990 5.05022
202.159 5.68115
202.328 6.71889
202.497 8.52472
202.666 11.9394
202.750 14.8530
202.835 19.2894
202.919 26.4371
203.004 38.8666
203.046 48.7697
203.088 62.9511
203.130 84.2599
203.173 117.922
203.215 175.289
203.257 282.033
203.278 371.852
203.299 505.577
203.320 709.952
203.341 1023.01
203.371 1663.59
203.400 2115.18
203.429 1722.74
203.459 1097.02
203.483 741.654
203.507 519.953
203.532 380.442
203.556 289.322
203.605 183.528
203.654 127.556
203.703 94.5991
203.751 73.5967
203.849 49.3135
203.947 36.2851
204.044 28.4499
204.142 23.3464
204.239 19.8207
204.435 15.3638
204.630 12.7305
204.825 11.0275
205.020 9.85287
205.411 8.36072
205.801 7.46845
206.191 6.88235
206.582 6.47096
207.362 5.93450
208.143 5.60102
208.924 5.37279
209.705 5.20546
211.266 4.97167
212.828 4.80901
215.951 4.57130
219.074 4.36329
220.635 4.25018
222.197 4.12050
223.758 3.96717
224.539 3.88423
225.320 3.81259
225.710 3.79576
226.100 3.81417
226.491 3.91355
226.881 4.21333
227.076 4.53222
227.272 5.08612
227.467 6.09573
227.662 8.08490
227.759 9.82908
227.857 12.5373
227.955 16.9926
228.052 24.9264
228.101 31.3661
228.150 40.7681
228.199 55.1561
228.247 78.5533
228.296 119.799
228.321 152.987
228.345 200.961
228.369 273.081
228.394 386.290
228.418 571.382
228.443 876.468
228.471 1428.80
228.500 1818.59
228.529 1482.73
228.558 946.441
228.581 649.333
228.604 461.286
228.627 340.516
228.650 261.007
228.696 167.285
228.742 117.092
228.788 87.2976
228.834 68.1999
228.926 46.0061
229.018 34.0104
229.111 26.7712
229.203 22.0331
229.295 18.7529
229.479 14.5851
229.664 12.1105
229.848 10.5010
230.032 9.38354
230.401 7.94959
230.769 7.07663
231.138 6.48973
231.507 6.06627
232.244 5.49725
232.613 5.31376
232.981 5.21816
233.350 5.32177
233.534 5.56648
233.719 6.14638
233.811 6.69777
233.903 7.59090
233.995 9.11822
234.087 11.9340
234.179 17.7867
234.225 23.2832
234.271 32.4786
234.318 49.4151
234.341 63.6451
234.364 84.9269
234.387 118.718
234.410 175.214
234.421 218.112
234.433 276.281
234.444 355.791
234.456 463.654
234.478 754.885
234.500 960.741
234.522 784.630
234.544 502.574
234.568 307.802
234.592 201.288
234.615 140.942
234.639 104.531
234.663 80.9586
234.686 64.9678
234.734 45.3726
234.781 34.2372
234.828 27.3229
234.923 19.4821
235.018 15.3537
235.113 12.9121
235.302 10.3561
235.491 9.40624
235.586 9.44804
235.681 10.0418
235.775 11.7957
235.823 13.6344
235.870 16.8663
235.917 23.0684
235.941 28.4203
235.965 36.6114
235.988 49.9894
236.012 73.2144
236.036 117.243
236.047 153.460
236.059 204.429
236.080 329.707
236.100 418.912
236.120 343.479
236.141 221.601
236.165 130.566
236.190 84.0394
236.214 58.9529
236.238 44.3055
236.263 35.0309
236.287 28.8325
236.336 21.3336
236.385 17.1095
236.433 14.4893
236.531 11.4977
236.628 9.88288
236.726 8.89021
236.921 7.74306
237.116 7.09713
237.311 6.67846
237.700 6.16241
238.090 5.88277
238.285 5.82822
238.480 5.87713
238.675 6.17066
238.773 6.54208
238.870 7.27652
238.967 8.88187
239.016 10.4353
239.065 13.1041
239.114 18.1745
239.138 22.5482
239.162 29.2665
239.187 40.3151
239.211 59.7261
239.235 97.2155
239.248 128.774
239.260 173.462
239.280 280.096
239.300 355.347
239.320 290.809
239.340 187.546
239.358 124.973
239.377 87.2915
239.395 64.2639
239.413 49.6121
239.449 32.8393
239.485 24.1463
239.521 19.0630
239.557 15.8495
239.630 12.1380
239.702 10.1448
239.774 8.94074
239.919 7.60370
240.063 6.90849
240.208 6.50597
240.497 6.15762
240.642 6.16590
240.786 6.33638
240.931 6.78267
241.076 7.79456
241.220 10.2055
241.292 12.6714
241.365 17.0960
241.437 25.9418
241.473 33.9599
241.509 46.8774
241.546 69.4511
241.564 87.3972
241.582 112.854
241.600 150.664
241.618 208.296
241.636 300.135
241.654 445.962
241.677 728.281
241.700 931.574
241.723 764.138
241.746 490.764
241.760 369.555
241.774 283.759
241.802 179.241
241.830 123.004
241.858 90.3056
241.887 69.6814
241.915 55.9725
241.971 39.3672
242.027 30.0731
242.083 24.3256
242.195 17.8322
242.307 14.3888
242.419 12.3199
242.531 10.9621
242.644 10.0149
242.868 8.79321
243.092 8.04897
243.317 7.55121
243.541 7.19566
243.990 6.72111
244.438 6.41729
245.335 6.04520
246.233 5.82040
247.130 5.66609
248.924 5.46137
250.719 5.32627
252.513 5.22675
256.102 5.08199
259.692 4.97080
261.486 4.91907
263.281 4.86539
265.075 4.80456
265.972 4.76884
266.870 4.72764
267.318 4.70471
267.767 4.68077
268.216 4.65801
268.664 4.64425
268.889 4.64800
269.113 4.66938
269.337 4.72908
269.561 4.87986
269.674 5.03012
269.786 5.28219
269.898 5.72908
270.010 6.58608
270.066 7.32340
270.122 8.45088
270.178 10.2726
270.234 13.4359
270.290 19.5587
270.319 24.9544
270.347 33.4152
270.375 47.7087
270.403 73.8427
270.417 95.4515
270.431 127.081
270.445 174.402
270.459 245.183
270.479 398.321
270.500 507.782
270.510 483.039
270.521 415.786
270.541 267.005
270.566 157.450
270.590 100.836
270.614 70.0681
270.639 51.9575
270.663 40.5144
270.687 32.8547
270.736 23.5723
270.784 18.3699
270.833 15.1539
270.930 11.5264
271.027 9.61424
271.125 8.47145
271.222 7.72728
271.319 7.21202
271.513 6.55468
271.708 6.16067
271.902 5.90127
272.096 5.71897
272.485 5.48054
272.874 5.33140
273.263 5.22829
273.651 5.15160
274.429 5.04201
274.817 5.00156
275.206 4.97167
275.595 4.96554
275.789 4.98679
275.984 5.05257
276.081 5.12143
276.178 5.23881
276.275 5.44803
276.372 5.84909
276.470 6.71687
276.518 7.55821
276.567 9.01013
276.615 11.7813
276.640 14.1866
276.664 17.9223
276.688 24.0952
276.713 35.1212
276.737 56.7010
276.749 75.0552
276.761 101.589
276.771 130.266
276.781 163.219
276.800 207.368
276.820 170.566
276.839 110.772
276.852 81.5327
276.866 61.6315
276.879 48.1261
276.893 38.7648
276.919 27.2095
276.946 20.7194
276.973 16.7445
277.000 14.1404
277.053 11.0514
277.107 9.34626
277.160 8.30430
277.268 7.13518
277.375 6.52038
277.482 6.15209
277.589 5.91106
277.696 5.74290
277.910 5.52604
278.124 5.39344
278.339 5.30426
278.553 5.24009
278.981 5.15325
279.410 5.09629
280.266 5.02355
281.123 4.97656
281.980 4.94189
283.694 4.89071
287.121 4.81808
290.548 4.75765
293.975 4.69475
295.689 4.65785
297.402 4.61318
299.116 4.55456
299.973 4.51670
300.830 4.47075
301.258 4.44458
301.686 4.41730
302.115 4.39255
302.543 4.38263
302.757 4.39444
302.972 4.43354
303.186 4.53126
303.400 4.76700
303.507 4.99738
303.614 5.38024
303.721 6.05219
303.828 7.33036
303.936 10.0796
303.989 12.7421
304.043 17.3221
304.096 26.0698
304.123 33.6584
304.150 45.3833
304.177 64.7963
304.190 79.4516
304.203 99.4227
304.217 127.284
304.230 167.045
304.244 224.722
304.257 307.334
304.278 500.408
304.300 638.764
304.322 523.749
304.343 336.525
304.362 226.714
304.380 159.059
304.399 116.931
304.418 89.6224
304.455 58.1236
304.492 41.5722
304.529 31.8096
304.566 25.5882
304.641 18.3891
304.715 14.5042
304.789 12.1589
304.864 10.6207
304.938 9.55354
305.087 8.19291
305.235 7.38031
305.384 6.84941
305.533 6.47951
305.830 6.00366
306.128 5.71403
306.425 5.52049
306.722 5.38227
307.317 5.19735
307.912 5.07760
308.507 4.99150
309.102 4.92435
310.291 4.81841
310.886 4.77185
311.481 4.72727
312.075 4.68868
312.373 4.67899
312.670 4.69186
312.819 4.71877
312.968 4.77565
313.116 4.89278
313.265 5.14402
313.339 5.37487
313.414 5.74314
313.488 6.36604
313.562 7.50252
313.637 9.83701
313.674 12.0036
313.711 15.5803
313.748 22.0459
313.785 35.1322
313.804 47.1478
313.823 66.5899
313.841 99.6596
313.851 124.528
313.860 156.746
313.870 201.900
313.880 254.400
313.900 324.220
313.910 308.936
313.920 266.158
313.940 172.073
313.963 103.579
313.987 67.5796
314.010 47.7706
314.033 36.0086
314.056 28.5298
314.079 23.4997
314.125 17.3825
314.171 13.9261
314.217 11.7847
314.310 9.35455
314.402 8.06556
314.494 7.29272
314.587 6.78741
314.679 6.43590
314.864 5.98552
315.048 5.71376
315.233 5.53366
315.418 5.40628
315.787 5.23820
316.156 5.13182
316.895 5.00202
317.633 4.92186
318.372 4.86363
319.849 4.77385
321.326 4.69156
322.065 4.64653
322.803 4.59620
323.172 4.56919
323.542 4.54256
323.911 4.52108
324.280 4.52004
324.465 4.54063
324.649 4.59423
324.834 4.71720
325.019 5.00013
325.111 5.27055
325.203 5.71310
325.296 6.47895
325.388 7.91402
325.480 10.9447
325.527 13.8315
325.573 18.7145
325.619 27.8258
325.642 35.5466
325.665 47.1943
325.688 65.8884
325.711 97.7654
325.723 122.452
325.734 156.053
325.746 202.569
325.757 266.533
325.779 434.607
325.800 555.804
325.811 529.762
325.821 456.387
325.843 293.750
325.864 189.405
325.884 129.058
325.905 93.1613
325.925 70.6544
325.946 55.7239
325.967 45.4563
326.008 32.5981
326.049 25.1471
326.090 20.4592
326.173 15.0670
326.255 12.1798
326.338 10.4385
326.420 9.29841
326.503 8.50582
326.668 7.49385
326.833 6.88713
326.998 6.48905
327.163 6.21068
327.493 5.85036
327.823 5.62967
328.153 5.48154
328.483 5.37553
329.143 5.23387
329.803 5.14324
330.462 5.07979
331.122 5.03249
332.442 4.96556
333.762 4.91923
336.402 4.85561
339.042 4.80912
340.362 4.78809
341.681 4.76670
343.001 4.74305
343.661 4.72954
344.321 4.71449
344.981 4.69877
345.311 4.69267
345.641 4.69265
345.806 4.69876
345.971 4.71432
346.136 4.74957
346.301 4.82989
346.383 4.90615
346.466 5.03060
346.548 5.24515
346.631 5.64557
346.713 6.48736
346.755 7.28627
346.796 8.63247
346.837 11.1333
346.858 13.2368
346.878 16.4104
346.899 21.4518
346.920 29.9688
346.940 45.3424
346.961 74.1718
346.971 94.7722
346.980 118.737
347.000 150.862
347.020 124.469
347.039 81.3334
347.054 58.2858
347.069 43.2834
347.084 33.4943
347.099 26.9164
347.129 19.0513
347.159 14.7662
347.189 12.1917
347.219 10.5265
347.279 8.57076
347.339 7.50385
347.399 6.85401
347.459 6.42630
347.519 6.12859
347.639 5.74738
347.759 5.51924
347.879 5.36982
347.999 5.26569
348.239 5.13151
348.479 5.04984
348.719 4.99528
348.959 4.95634
349.439 4.90444
349.918 4.87120
350.878 4.83024
351.838 4.80500
352.797 4.78711
354.717 4.76187
356.636 4.74351
358.555 4.72859
362.394 4.70411
370.072 4.66453
377.749 4.62923
385.426 4.59345
393.104 4.55175
396.942 4.52478
398.862 4.50791
400.781 4.48693
402.701 4.45866
403.660 4.43981
404.620 4.41584
405.100 4.40123
405.580 4.38454
406.059 4.36593
406.539 4.34748
406.779 4.34078
407.019 4.33983
407.259 4.35316
407.499 4.40366
407.619 4.46107
407.739 4.56379
407.859 4.75532
407.979 5.13831
408.039 5.47650
408.099 6.00275
408.159 6.86785
408.219 8.39738
408.279 11.4176
408.309 14.1177
408.339 18.4290
408.369 25.8196
408.399 39.7245
408.414 51.5076
408.429 69.1467
408.444 96.2663
408.459 137.740
408.479 223.734
408.500 285.552
408.521 234.974
408.542 152.332
408.561 99.8200
408.581 69.1120
408.601 50.6077
408.620 39.0011
408.659 25.9177
408.699 19.1865
408.738 15.2813
408.777 12.8116
408.856 9.96721
408.935 8.43981
409.013 7.51671
409.092 6.91134
409.170 6.49034
409.327 5.95118
409.485 5.62733
409.642 5.41454
409.799 5.26555
410.113 5.07239
410.428 4.95384
410.742 4.87407
411.056 4.81683
411.685 4.73999
412.314 4.69034
412.942 4.65513
413.571 4.62840
414.828 4.58922
416.086 4.56024
418.600 4.51485
421.115 4.47303
422.373 4.45001
423.630 4.42327
424.887 4.38979
425.516 4.36908
426.145 4.34503
426.459 4.33201
426.773 4.31931
427.088 4.30959
427.402 4.31104
427.559 4.32304
427.716 4.35243
427.874 4.41794
428.031 4.56585
428.109 4.70557
428.188 4.93266
428.266 5.32238
428.345 6.04411
428.424 7.54897
428.463 8.96148
428.502 11.3234
428.541 15.6342
428.561 19.2239
428.581 24.5332
428.600 32.8447
428.620 46.4319
428.640 69.9837
428.649 87.9887
428.659 111.896
428.669 143.882
428.680 181.109
428.700 231.237
428.720 190.769
428.741 123.978
428.753 94.3611
428.766 73.3457
428.790 47.6360
428.815 33.7350
428.839 25.6308
428.864 20.5041
428.889 17.0914
428.938 12.9472
428.987 10.6218
429.037 9.18106
429.135 7.55027
429.234 6.68392
429.332 6.16312
429.431 5.82137
429.529 5.58326
429.727 5.27689
429.924 5.09117
430.121 4.96766
430.318 4.87994
430.712 4.76372
431.106 4.68976
431.895 4.59864
432.683 4.54129
433.472 4.49842
435.049 4.42831
435.837 4.39421
436.626 4.35747
437.414 4.31554
438.202 4.26550
438.597 4.23667
438.991 4.20562
439.385 4.17475
439.779 4.15345
439.977 4.15542
440.174 4.17917
440.371 4.25113
440.568 4.43899
440.666 4.62859
440.765 4.94823
440.864 5.51607
440.962 6.60270
441.061 8.94765
441.110 11.2113
441.159 15.0827
441.208 22.3975
441.233 28.6784
441.258 38.2565
441.282 53.8286
441.307 80.7003
441.319 101.694
441.332 130.863
441.344 171.859
441.356 229.141
441.378 374.396
441.400 479.990
441.422 395.515
441.444 255.548
441.466 163.397
441.487 110.592
441.509 79.5718
441.531 60.2925
441.553 47.6303
441.575 38.9093
441.618 28.0304
441.662 21.7572
441.705 17.8034
441.793 13.2640
441.880 10.8249
441.967 9.35010
442.054 8.38170
442.141 7.70709
442.316 6.84102
442.490 6.31911
442.664 5.97483
442.839 5.73277
443.187 5.41759
443.536 5.22304
443.885 5.09145
444.233 4.99662
444.931 4.86862
445.628 4.78549
446.325 4.72628
447.022 4.68123
448.417 4.61514
449.812 4.56630
452.601 4.49001
455.390 4.41958
456.785 4.38058
458.180 4.33515
459.574 4.27841
460.272 4.24347
460.969 4.20273
461.666 4.15721
462.015 4.13623
462.364 4.12564
462.538 4.13155
462.712 4.15518
462.887 4.21602
463.061 4.36264
463.148 4.50477
463.235 4.73880
463.322 5.14471
463.410 5.90383
463.497 7.50357
463.540 9.01957
463.584 11.5710
463.627 16.2987
463.649 20.2767
463.671 26.2690
463.693 35.7672
463.715 51.7620
463.736 80.4933
463.747 103.166
463.758 133.665
463.779 216.807
463.800 276.302
463.821 227.158
463.842 147.130
463.856 109.138
463.869 82.9640
463.897 52.1258
463.924 36.0942
463.952 26.9798
463.979 21.3154
464.007 17.5891
464.061 13.1244
464.116 10.6407
464.171 9.11446
464.281 7.39185
464.391 6.47969
464.500 5.92968
464.720 5.31229
464.939 4.97916
465.158 4.77114
465.597 4.52799
465.817 4.45948
466.036 4.42744
466.256 4.45431
466.475 4.60756
466.585 4.78560
466.694 5.10135
466.804 5.67939
466.914 6.80988
467.023 9.28405
467.078 11.6961
467.133 15.8499
467.188 23.7575
467.215 30.5600
467.243 41.0280
467.270 58.1634
467.298 88.0366
467.311 111.591
467.325 144.584
467.339 191.392
467.353 257.457
467.376 421.841
467.400 541.089
467.424 445.807
467.448 288.319
467.463 212.341
467.479 159.929
467.511 98.7368
467.543 67.2892
467.575 49.4170
467.607 38.3740
467.638 31.0885
467.702 22.3660
467.766 17.5188
467.829 14.5301
467.956 11.1549
468.083 9.36144
468.211 8.28001
468.338 7.56776
468.465 7.06924
468.719 6.42390
468.974 6.02935
469.228 5.76511
469.482 5.57645
469.991 5.32551
470.499 5.16614
471.008 5.05555
471.517 4.97393
472.534 4.86050
473.551 4.78422
475.586 4.68500
477.620 4.62000
479.655 4.57139
483.724 4.49684
487.793 4.43417
491.862 4.37228
495.931 4.30259
500.000 4.21259
502.885 4.12180
504.328 4.06019
505.770 3.98012
506.492 3.93009
507.213 3.87125
507.934 3.80235
508.656 3.72561
509.016 3.68903
509.377 3.66267
509.738 3.66699
510.098 3.75930
510.279 3.88544
510.459 4.12769
510.639 4.60171
510.819 5.58604
510.910 6.47400
511.000 7.87308
511.090 10.2059
511.180 14.3895
511.225 17.7975
511.270 22.7706
511.315 30.3555
511.360 42.5615
511.405 63.8044
511.428 80.6622
511.451 104.517
511.473 139.731
511.496 193.092
511.518 276.768
511.541 408.765
511.570 671.000
511.600 862.096
511.630 709.982
511.659 457.498
511.692 280.035
511.724 183.365
511.756 128.729
511.789 95.6742
511.821 74.3697
511.853 59.8940
511.918 42.0930
511.982 31.9320
512.047 25.5756
512.176 18.3192
512.305 14.4387
512.434 12.0972
512.563 10.5596
512.693 9.48655
512.951 8.10808
513.209 7.27501
513.467 6.72377
513.726 6.33526
514.242 5.82742
514.759 5.51216
515.275 5.29789
515.792 5.14261
516.825 4.93136
517.858 4.79234
519.924 4.61378
521.990 4.49542
524.056 4.40279
528.188 4.24220
532.320 4.06846
534.386 3.96014
536.452 3.82362
537.485 3.73936
538.518 3.64038
539.551 3.52347
540.584 3.38896
541.100 3.31997
541.617 3.26062
542.133 3.23673
542.650 3.32284
542.908 3.46923
543.166 3.76855
543.425 4.37700
543.683 5.67219
543.812 6.85645
543.941 8.73799
544.070 11.8935
544.199 17.5952
544.264 22.2594
544.329 29.0870
544.393 39.5346
544.458 56.4223
544.522 85.9207
544.555 109.351
544.587 142.631
544.619 191.828
544.651 267.027
544.684 385.676
544.716 573.429
544.758 944.292
544.800 1215.90
544.842 1002.54
544.884 646.249
544.925 415.547
544.966 281.428
545.007 201.727
545.048 151.770
545.089 118.750
545.130 95.8964
545.211 67.2646
545.293 50.6385
545.375 40.1287
545.538 27.9896
545.702 21.4421
545.865 17.4705
546.029 14.8540
546.192 13.0241
546.520 10.6680
546.847 9.24028
547.174 8.29325
547.501 7.62323
548.155 6.74122
548.809 6.18504
549.463 5.79723
550.117 5.50483
551.425 5.06587
552.079 4.87972
552.733 4.69832
553.387 4.51663
553.714 4.43327
554.041 4.38003
554.205 4.38578
554.368 4.44337
554.532 4.61102
554.695 5.03413
554.777 5.45102
554.859 6.14020
554.941 7.33736
555.022 9.56308
555.104 14.1777
555.145 18.4574
555.186 25.4763
555.227 37.9706
555.247 48.0796
555.268 62.6122
555.288 84.4983
555.309 118.455
555.329 173.302
555.349 262.835
555.375 433.382
555.400 560.282
555.425 465.130
555.451 302.526
555.477 189.462
555.504 126.728
555.531 90.6246
555.558 68.4848
555.584 54.0228
555.611 44.1579
555.664 31.8961
555.718 24.8240
555.771 20.3704
555.878 15.2261
555.985 12.4438
556.092 10.7455
556.199 9.61939
556.306 8.82686
556.520 7.79479
556.733 7.15991
556.947 6.73225
557.161 6.42544
557.588 6.01369
558.016 5.74839
558.871 5.42008
559.726 5.21760
560.581 5.07455
562.291 4.87384
564.001 4.72748
565.711 4.60562
569.131 4.38521
572.552 4.14535
574.262 3.99860
575.972 3.81860
576.827 3.71122
577.682 3.59010
578.537 3.45710
579.392 3.32823
579.820 3.28369
580.247 3.28196
580.675 3.38433
581.102 3.75314
581.316 4.16543
581.530 4.89572
581.743 6.24273
581.957 8.90467
582.064 11.2295
582.171 14.8122
582.278 20.6287
582.385 30.7481
582.438 38.7839
582.491 50.2204
582.545 67.2031
582.598 93.5625
582.652 137.188
582.705 214.740
582.732 276.947
582.759 365.418
582.785 493.207
582.812 677.104
582.856 1115.36
582.900 1436.27
582.944 1183.98
582.988 762.879
583.027 509.249
583.066 354.420
583.105 258.723
583.144 196.993
583.221 126.054
583.299 88.7648
583.377 66.8252
583.455 52.8117
583.610 36.5181
583.766 27.6718
583.921 22.2888
584.077 18.7351
584.233 16.2501
584.544 13.0499
584.855 11.1126
585.166 9.82906
585.477 8.92205
586.099 7.72937
586.722 6.97744
587.344 6.45190
587.966 6.05352
589.210 5.44735
589.833 5.18603
590.455 4.93115
591.077 4.68677
591.388 4.59209
591.699 4.57535
591.855 4.64271
592.010 4.82464
592.166 5.24164
592.322 6.18600
592.399 7.07218
592.477 8.49836
592.555 10.9089
592.633 15.2700
592.672 18.8331
592.710 24.0291
592.749 31.9271
592.788 44.5802
592.827 66.2746
592.847 83.2466
592.866 106.898
592.886 141.165
592.905 191.750
592.924 268.523
592.944 385.198
592.972 637.679
593.000 825.362
593.028 685.324
593.056 445.935
593.084 290.008
593.111 198.873
593.138 144.269
593.165 109.816
593.192 86.8483
593.219 70.9458
593.273 50.8854
593.328 39.1529
593.382 31.6984
593.490 23.0218
593.599 18.2999
593.707 15.4091
593.816 13.4897
593.924 12.1374
594.141 10.3797
594.358 9.30057
594.575 8.57670
594.792 8.05966
595.226 7.37099
595.660 6.93267
596.094 6.62761
596.528 6.40159
597.396 6.08514
598.264 5.87009
600.000 5.58671
600.000 18.2255
720.000 16.9959
850.000 15.9721
1000.00 15.0510
1250.00 13.9063
1500.00 13.0649
1700.00 12.5323
2000.00 11.8914
2500.00 11.0976
3000.00 10.5167
3500.00 10.0691
4000.00 9.71149
5000.00 9.17146
6000.00 8.77932
7000.00 8.47989
8000.00 8.24259
10000.0 7.88857
12500.0 7.58358
15000.0 7.36766
17000.0 7.23552
20000.0 7.08214
25000.0 6.90257
30000.0 6.78000
35000.0 6.69195
40000.0 6.62608
50000.0 6.53491
60000.0 6.47590
70000.0 6.43461
80000.0 6.40398
99999.9 6.36049
100000 6.35251
150000 6.32632
200000 6.32390
250000 6.33131
300000 6.34313
395199 6.37006
447600 6.38345
500000 6.39543
538145 6.40012
576289 6.40449
614434 6.40858
652578 6.41243
700000 6.41151
750000 6.40544
800000 6.39980
850000 6.38672
900000 6.37450
950000 6.35466
1.00000E+06 6.33605
1.03335E+06 6.32049
1.03335E+06 6.32049
1.03890E+06 6.31777
1.07371E+06 6.29991
1.11628E+06 6.27618
1.11629E+06 6.27617
1.14161E+06 6.26110
1.18358E+06 6.23485
1.18358E+06 6.23485
1.20174E+06 6.22286
1.20174E+06 6.22286
1.25000E+06 6.18942
1.30341E+06 6.14667
1.35681E+06 6.10794
1.35682E+06 6.10793
1.36307E+06 6.10287
1.36307E+06 6.10287
1.39303E+06 6.07819
1.39304E+06 6.07818
1.43899E+06 6.03661
1.48495E+06 5.99852
1.50000E+06 5.98496
1.52288E+06 5.96408
1.52289E+06 5.96408
1.54982E+06 5.93914
1.54982E+06 5.93913
1.58100E+06 5.90980
1.58352E+06 5.90741
1.58352E+06 5.90741
1.64507E+06 5.84810
1.70328E+06 5.79061
1.70328E+06 5.79061
1.71519E+06 5.77871
1.72225E+06 5.77163
1.72225E+06 5.77163
1.75000E+06 5.74368
1.77371E+06 5.71964
1.78380E+06 5.70936
1.83898E+06 5.65282
1.83899E+06 5.65281
1.85250E+06 5.63887
1.85250E+06 5.63886
1.92625E+06 5.55868
2.00000E+06 5.48607
2.05619E+06 5.40788
2.11237E+06 5.33544
2.16856E+06 5.26824
2.22475E+06 5.20580
2.28093E+06 5.14772
2.33712E+06 5.09364
2.39330E+06 5.04322
2.44949E+06 4.99617
2.51830E+06 4.92795
2.58712E+06 4.86517
2.65593E+06 4.80734
2.72475E+06 4.75402
2.79356E+06 4.70480
2.86237E+06 4.65933
2.93119E+06 4.61731
3.00000E+06 4.57844
3.04967E+06 4.54855
3.09934E+06 4.51990
3.09935E+06 4.51990
3.14385E+06 4.49145
3.18835E+06 4.46404
3.23285E+06 4.43761
3.27735E+06 4.41213
3.32185E+06 4.38753
3.36636E+06 4.36378
3.41086E+06 4.34084
3.45536E+06 4.31868
3.49986E+06 4.29725
3.54436E+06 4.27653
3.58886E+06 4.25647
3.63336E+06 4.23707
3.67787E+06 4.21827
3.72237E+06 4.20007
3.76687E+06 4.18244
3.81137E+06 4.16535
3.85853E+06 4.14468
3.90569E+06 4.12468
3.95284E+06 4.10534
4.00000E+06 4.08661
4.05902E+06 4.07259
4.11804E+06 4.05896
4.17705E+06 4.04571
4.23607E+06 4.03281
4.29509E+06 4.02024
4.35411E+06 4.00799
4.41312E+06 3.99604
4.47214E+06 3.98438
4.53628E+06 3.97137
4.60043E+06 3.95869
4.66457E+06 3.94631
4.72871E+06 3.93423
4.79653E+06 3.92138
4.86436E+06 3.90885
4.93218E+06 3.89663
5.00000E+06 3.88471
5.11931E+06 3.88215
5.23862E+06 3.87983
5.35792E+06 3.87770
5.47723E+06 3.87576
5.60495E+06 3.87344
5.73266E+06 3.87128
5.86633E+06 3.86898
6.00000E+06 3.86682
6.07107E+06 3.87524
6.14213E+06 3.88371
6.18446E+06 3.88854
6.22678E+06 3.89339
6.26911E+06 3.89825
6.31144E+06 3.90312
6.35376E+06 3.90800
6.39609E+06 3.91289
6.43841E+06 3.91779
6.48074E+06 3.92270
6.54440E+06 3.92974
6.60806E+06 3.93679
6.67171E+06 3.94386
6.73537E+06 3.95095
6.80153E+06 3.95804
6.86769E+06 3.96514
6.93384E+06 3.97226
7.00000E+06 3.97939
7.05494E+06 3.99024
7.10061E+06 3.99914
7.14628E+06 4.00806
7.19195E+06 4.01699
7.23762E+06 4.02592
7.29904E+06 4.03767
7.36047E+06 4.04943
7.42189E+06 4.06121
7.48331E+06 4.07300
7.54682E+06 4.08489
7.61033E+06 4.09679
7.67383E+06 4.10870
7.73734E+06 4.12062
7.80301E+06 4.13266
7.86867E+06 4.14470
7.93434E+06 4.15675
8.00000E+06 4.16882
8.03666E+06 4.17693
8.07332E+06 4.18505
8.12482E+06 4.19627
8.17631E+06 4.20749
8.22781E+06 4.21870
8.27930E+06 4.22992
8.33080E+06 4.24113
8.38229E+06 4.25234
8.43379E+06 4.26355
8.48528E+06 4.27476
8.54962E+06 4.28835
8.61396E+06 4.30193
8.67830E+06 4.31552
8.74264E+06 4.32910
8.80698E+06 4.34267
8.87132E+06 4.35625
8.93566E+06 4.36982
9.00000E+06 4.38339
9.04324E+06 4.39188
9.08649E+06 4.40036
9.12973E+06 4.40884
9.17297E+06 4.41733
9.21621E+06 4.42581
9.25946E+06 4.43428
9.30270E+06 4.44276
9.34594E+06 4.45124
9.39258E+06 4.46024
9.43923E+06 4.46923
9.48587E+06 4.47823
9.53251E+06 4.48722
9.59095E+06 4.49829
9.64938E+06 4.50935
9.70782E+06 4.52041
9.76626E+06 4.53145
9.82469E+06 4.54249
9.88313E+06 4.55352
9.94156E+06 4.56455
1.00000E+07 4.57556
1.00625E+07 4.58053
1.01250E+07 4.58563
1.01875E+07 4.59087
1.02500E+07 4.59624
1.03125E+07 4.60175
1.03750E+07 4.60739
1.04375E+07 4.61316
1.05000E+07 4.61907
1.05625E+07 4.62510
1.06250E+07 4.63126
1.06875E+07 4.63755
1.07500E+07 4.64396
1.08125E+07 4.65050
1.08750E+07 4.65716
1.09375E+07 4.66395
1.10000E+07 4.67086
1.10625E+07 4.67506
1.11250E+07 4.67943
1.11875E+07 4.68400
1.12500E+07 4.68874
1.13125E+07 4.69366
1.13750E+07 4.69876
1.14375E+07 4.70404
1.15000E+07 4.70949
1.15625E+07 4.71512
1.16250E+07 4.72093
1.16875E+07 4.72691
1.17500E+07 4.73307
1.18125E+07 4.73942
1.18750E+07 4.74595
1.19375E+07 4.75267
1.20000E+07 4.75960
1.21250E+07 4.74893
1.22500E+07 4.73909
1.23750E+07 4.73007
1.25000E+07 4.72186
1.26250E+07 4.71444
1.27500E+07 4.70781
1.28750E+07 4.70196
1.30000E+07 4.69689
1.30739E+07 4.69226
1.31477E+07 4.68780
1.32216E+07 4.68353
1.32954E+07 4.67943
1.33835E+07 4.67381
1.34716E+07 4.66837
1.35596E+07 4.66311
1.36477E+07 4.65804
1.37358E+07 4.65315
1.38239E+07 4.64844
1.39119E+07 4.64392
1.40000E+07 4.63958
1.40984E+07 4.62553
1.41988E+07 4.61104
1.42992E+07 4.59689
1.43996E+07 4.58309
1.45000E+07 4.56964
1.45625E+07 4.56095
1.46250E+07 4.55237
1.46875E+07 4.54389
1.47500E+07 4.53552
1.48125E+07 4.52725
1.48750E+07 4.51909
1.49375E+07 4.51104
1.50000E+07 4.50308
1.50625E+07 4.49218
1.51250E+07 4.48139
1.51875E+07 4.47072
1.52500E+07 4.46018
1.53125E+07 4.44975
1.53750E+07 4.43944
1.54375E+07 4.42924
1.55000E+07 4.41917
1.55625E+07 4.40921
1.56250E+07 4.39936
1.56875E+07 4.38964
1.57500E+07 4.38002
1.58125E+07 4.37052
1.58750E+07 4.36114
1.59375E+07 4.35187
1.60000E+07 4.34272
1.60625E+07 4.33065
1.61250E+07 4.31873
1.61875E+07 4.30696
1.62500E+07 4.29532
1.63125E+07 4.28383
1.63750E+07 4.27247
1.64375E+07 4.26126
1.65000E+07 4.25018
1.65625E+07 4.23924
1.66250E+07 4.22843
1.66875E+07 4.21776
1.67500E+07 4.20722
1.68125E+07 4.19681
1.68750E+07 4.18654
1.69375E+07 4.17640
1.70000E+07 4.16639
1.70340E+07 4.16064
1.70681E+07 4.15493
1.71021E+07 4.14925
1.71361E+07 4.14360
1.71701E+07 4.13799
1.72042E+07 4.13242
1.72382E+07 4.12688
1.72722E+07 4.12138
1.73177E+07 4.11382
1.73632E+07 4.10631
1.74087E+07 4.09885
1.74542E+07 4.09145
1.74996E+07 4.08410
1.75451E+07 4.07680
1.75906E+07 4.06955
1.76361E+07 4.06236
1.76816E+07 4.05522
1.77271E+07 4.04814
1.77726E+07 4.04110
1.78181E+07 4.03412
1.78635E+07 4.02719
1.79090E+07 4.02031
1.79545E+07 4.01348
1.80000E+07 4.00670
1.80625E+07 3.99574
1.81250E+07 3.98485
1.81875E+07 3.97404
1.82500E+07 3.96330
1.83125E+07 3.95263
1.83750E+07 3.94204
1.84375E+07 3.93152
1.85000E+07 3.92107
1.85625E+07 3.91070
1.86250E+07 3.90040
1.86875E+07 3.89018
1.87500E+07 3.88003
1.88125E+07 3.86997
1.88750E+07 3.85998
1.89375E+07 3.85008
1.90000E+07 3.84027
1.90625E+07 3.83042
1.91250E+07 3.82061
1.91875E+07 3.81086
1.92500E+07 3.80115
1.93125E+07 3.79149
1.93750E+07 3.78188
1.94375E+07 3.77232
1.95000E+07 3.76282
1.95625E+07 3.75336
1.96250E+07 3.74396
1.96875E+07 3.73461
1.97500E+07 3.72532
1.98125E+07 3.71609
1.98750E+07 3.70692
1.99375E+07 3.69781
2.00000E+07 3.68877