In-115(n,tot) ENDF/B-VII.1
Energy(eV) XS(b)
1.00000E-05 9823.84
1.25000E-05 8787.01
1.50000E-05 8021.65
2.00000E-05 6947.34
2.75000E-05 5925.14
3.50000E-05 5252.42
4.25000E-05 4766.78
5.00000E-05 4394.99
6.25000E-05 3931.33
7.50000E-05 3589.08
0.000100000 3108.68
0.000125000 2780.85
0.000150000 2538.86
0.000200000 2199.21
0.000275000 1876.05
0.000350000 1663.40
0.000425000 1509.90
0.000500000 1392.39
0.000625000 1245.87
0.000750000 1137.73
0.00100000 985.978
0.00125000 882.450
0.00150000 806.055
0.00200000 698.874
0.00275000 596.978
0.00350000 529.987
0.00425000 481.677
0.00500000 444.731
0.00625000 398.717
0.00750000 364.812
0.0100000 317.343
0.0125000 285.066
0.0150000 261.329
0.0200000 228.192
0.0253000 204.630
0.0314750 185.269
0.0376500 171.043
0.0500000 151.287
0.0625000 137.932
0.0750000 128.337
0.100000 115.453
0.125000 107.281
0.150000 101.774
0.200000 95.3144
0.275000 91.8248
0.350000 92.5910
0.500000 103.031
0.625000 121.266
0.750000 152.552
0.875000 207.586
0.937500 251.289
1.00000 313.930
1.05244 389.944
1.10488 501.483
1.15731 674.590
1.20975 964.350
1.23597 1188.60
1.26219 1504.10
1.28841 1967.27
1.31463 2684.63
1.34084 3874.96
1.36706 6034.07
1.38017 7810.42
1.39328 10405.8
1.40639 14287.0
1.41950 20086.3
1.43825 31985.1
1.45700 39783.7
1.47575 31668.9
1.49450 19703.2
1.51030 13002.4
1.52609 8904.67
1.54189 6369.03
1.55769 4736.86
1.58928 2875.58
1.62088 1913.11
1.65247 1358.02
1.68406 1011.11
1.74725 620.390
1.81044 418.110
1.87363 300.551
1.93681 226.466
2.00000 176.906
2.11308 121.681
2.22616 89.3272
2.33924 68.8609
2.45233 55.1766
2.67849 38.8348
2.90465 30.3243
3.13081 26.4584
3.35698 27.7830
3.47006 32.9125
3.52660 38.3705
3.58314 48.0244
3.63968 66.6389
3.66795 82.8717
3.69622 108.216
3.72449 150.520
3.75276 227.553
3.76690 291.034
3.78103 383.842
3.79517 522.649
3.80930 730.086
3.82965 1160.09
3.85000 1446.84
3.87035 1159.91
3.89070 729.676
3.90803 485.456
3.92537 336.430
3.94270 244.360
3.96003 185.127
3.99470 117.521
4.02936 82.4394
4.06403 62.0938
4.09869 49.2855
4.16803 34.6665
4.23736 26.9162
4.30669 22.2778
4.44535 17.1478
4.58401 14.4391
4.72268 12.7795
5.00000 10.8450
5.44100 9.28786
5.88200 8.46746
6.32300 8.01771
6.54350 7.91214
6.76400 8.05743
6.85300 8.30201
6.94200 8.05951
7.20290 7.94252
7.46380 8.20628
7.72470 8.79800
7.98560 10.0261
8.24650 12.8055
8.37695 15.6032
8.50740 20.6504
8.63785 31.0486
8.70308 40.8978
8.76830 57.7644
8.83353 90.1063
8.86614 118.605
8.89875 163.857
8.93136 241.475
8.94767 302.523
8.96398 389.113
8.98028 516.409
8.99659 710.865
9.01289 1018.34
9.02920 1508.29
9.04960 2419.14
9.07000 3033.84
9.08020 2860.43
9.09040 2435.98
9.11080 1529.40
9.12469 1097.70
9.13859 805.919
9.15248 609.051
9.16638 473.348
9.19416 307.124
9.22195 214.807
9.24974 158.902
9.27753 122.693
9.33310 80.3674
9.38868 57.5787
9.44425 43.9345
9.49983 35.1232
9.55540 29.1018
9.66655 21.6241
9.77770 17.3225
9.88885 14.6160
10.0000 12.7992
10.2463 10.4135
10.4925 9.13821
10.7388 8.39771
10.9850 7.97914
11.2313 7.84218
11.4775 8.18754
11.6006 8.84026
11.6622 9.47182
11.7238 10.5216
11.7853 12.3943
11.8469 16.1039
11.8777 19.4153
11.9084 24.6382
11.9392 33.2367
11.9700 47.5984
12.0050 72.3575
12.0400 89.0270
12.0750 72.7576
12.1100 48.0682
12.1494 30.7361
12.1888 21.6582
12.2282 16.6801
12.2676 13.7373
12.3070 11.8737
12.3464 10.6255
12.4253 9.11136
12.5041 8.26015
12.5829 7.73058
12.7405 7.12286
12.8981 6.79009
13.0558 6.58141
13.3710 6.37085
13.4600 6.37088
13.5490 6.27501
13.7506 6.14675
13.9522 6.07136
14.3554 5.96012
15.1618 5.80875
16.7745 5.62593
18.3873 5.51792
19.1936 5.48681
20.0000 5.48317
20.6723 5.53416
21.0084 5.60884
21.3445 5.76744
21.5126 5.91174
21.6806 6.14150
21.8487 6.53072
22.0168 7.25212
22.1008 7.86150
22.1848 8.78670
22.2689 10.2806
22.3529 12.9052
22.4369 18.1176
22.4789 22.8715
22.5209 30.6829
22.5630 44.7558
22.5840 56.3715
22.6050 73.6119
22.6260 100.538
22.6470 145.129
22.6680 223.706
22.6785 284.728
22.6890 366.704
22.6993 469.489
22.7095 587.549
22.7300 738.032
22.7505 595.082
22.7710 376.119
22.7844 275.287
22.7977 205.832
22.8244 124.837
22.8512 83.3895
22.8779 60.0036
22.9046 45.6831
22.9313 36.3294
22.9848 25.3000
23.0382 19.3033
23.0916 15.6867
23.1985 11.7233
23.3054 9.70565
23.4123 8.53549
23.5191 7.79350
23.6260 7.29167
23.8398 6.67172
24.0535 6.31408
24.2673 6.08652
24.4810 5.93113
24.9085 5.73509
25.3360 5.61742
26.1910 5.48214
27.0460 5.40423
27.9010 5.35146
28.7560 5.31416
29.1835 5.30785
29.3973 5.32803
29.5041 5.37537
29.5576 5.43492
29.6110 5.55598
29.6555 5.72287
29.7000 5.83388
29.7445 5.72036
29.7890 5.55046
29.8272 5.45289
29.8654 5.39306
29.9418 5.33127
30.0182 5.30235
30.0946 5.28617
30.4002 5.25776
31.0115 5.23228
32.2339 5.19551
33.4564 5.16390
34.6789 5.13817
35.9013 5.13035
36.5126 5.14775
37.1238 5.20744
37.4294 5.27295
37.7350 5.38848
38.0406 5.60224
38.3462 6.03190
38.4991 6.41570
38.6519 7.02301
38.8047 8.04861
38.9575 9.94662
39.0339 11.5485
39.1103 13.9779
39.1867 17.8933
39.2631 24.7449
39.3395 38.2538
39.3777 50.4618
39.4159 70.3190
39.4541 105.511
39.4732 134.068
39.4923 175.763
39.5114 239.371
39.5305 341.379
39.5496 513.261
39.5592 641.569
39.5687 808.876
39.5894 1301.76
39.6100 1639.51
39.6307 1324.46
39.6513 837.281
39.6660 595.328
39.6807 434.207
39.6954 326.812
39.7100 253.580
39.7394 164.761
39.7688 115.890
39.7981 86.4293
39.8275 67.3995
39.8862 45.1705
39.9450 33.1867
40.0037 25.9909
40.0624 21.3275
40.1212 18.1293
40.2386 14.1421
40.3561 11.8568
40.4735 10.4947
40.5910 9.95633
40.6800 10.0727
40.7690 8.95232
40.8561 8.19916
40.9432 7.77321
41.1175 7.24290
41.4659 6.63876
41.8144 6.29053
42.1629 6.06497
42.8598 5.79387
43.5567 5.64045
44.2536 5.54832
44.9506 5.50908
45.2990 5.52876
45.4733 5.56491
45.6475 5.64259
45.8217 5.82019
45.9088 5.99754
45.9959 6.31174
46.0831 6.93708
46.1266 7.50581
46.1702 8.43541
46.2137 10.0942
46.2573 13.4387
46.2791 16.4984
46.3009 21.4574
46.3226 29.9342
46.3444 44.7674
46.3672 68.9238
46.3900 85.4960
46.4128 70.0837
46.4356 46.2190
46.4618 29.1026
46.4881 20.2283
46.5143 15.4007
46.5406 12.5645
46.5668 10.7776
46.5930 9.58683
46.6455 8.15546
46.6980 7.36386
46.7505 6.88266
46.8554 6.35671
46.9604 6.09895
47.0653 5.96579
47.2752 5.89693
47.4851 6.05186
47.5901 6.26910
47.6950 6.68967
47.8000 7.57520
47.8524 8.40951
47.9049 9.81319
47.9574 12.4143
47.9836 14.6168
48.0099 17.9646
48.0361 23.3578
48.0623 32.6774
48.0886 50.1161
48.1148 84.4647
48.1374 133.087
48.1600 166.524
48.1826 135.608
48.2052 87.6147
48.2192 66.2908
48.2333 51.3026
48.2613 33.3713
48.2893 23.9441
48.3174 18.5298
48.3454 15.1699
48.3735 12.9543
48.4296 10.3131
48.4856 8.85984
48.5417 7.97478
48.6539 6.99305
48.7661 6.48506
48.8783 6.18561
49.1026 5.85956
49.3270 5.69088
49.5513 5.58957
50.0000 5.47432
50.5419 5.39966
51.0839 5.35370
52.1678 5.29660
53.2516 5.25946
54.3355 5.23134
56.5033 5.18807
57.5871 5.17045
58.1291 5.16339
58.4000 5.16268
58.5355 5.16735
58.6033 5.17545
58.6710 5.19596
58.7600 5.23663
58.8490 5.19372
58.9130 5.17226
58.9769 5.16237
59.1048 5.15403
59.3606 5.14782
59.8723 5.14246
60.3839 5.14171
60.8956 5.14952
61.4072 5.18054
61.6630 5.21903
61.9188 5.29696
62.0467 5.36635
62.1747 5.47543
62.3026 5.65774
62.4305 5.98996
62.5584 6.67872
62.6223 7.33099
62.6863 8.44171
62.7503 10.5432
62.7822 12.3626
62.8142 15.1917
62.8462 19.8948
62.8782 28.3985
62.9101 45.4458
62.9261 60.3886
62.9421 82.4624
62.9661 130.211
62.9900 163.161
63.0140 132.895
63.0379 85.8178
63.0635 53.7850
63.0891 36.3885
63.1146 26.5854
63.1402 20.6804
63.1658 16.8955
63.1913 14.3395
63.2425 11.2223
63.2936 9.47050
63.3448 8.38995
63.4470 7.17915
63.5493 6.54897
63.6516 6.17770
63.7539 5.93939
63.8562 5.77658
64.0608 5.57304
64.2653 5.45396
64.6745 5.32445
65.0836 5.25708
65.4927 5.21645
65.9019 5.18987
66.3110 5.17587
66.4000 5.17729
66.4890 5.17003
66.6723 5.16160
66.8555 5.15750
67.2220 5.15448
67.5885 5.15983
67.9550 5.18057
68.3214 5.23773
68.5047 5.29881
68.6879 5.41070
68.8712 5.63971
68.9628 5.85194
69.0544 6.20409
69.1460 6.84379
69.1919 7.37476
69.2377 8.16633
69.2835 9.40698
69.3293 11.4700
69.3751 15.1215
69.4209 21.8045
69.4655 32.1381
69.5100 39.2807
69.5546 32.7540
69.5991 22.5732
69.6520 15.0981
69.7048 11.2908
69.7576 9.24481
69.8105 8.05142
69.8633 7.30305
69.9162 6.80555
70.0218 6.20756
70.1275 5.87562
70.2332 5.67203
70.4446 5.44417
70.6560 5.32478
70.8673 5.25344
71.2901 5.17439
71.7128 5.13379
72.1355 5.11571
72.3469 5.11854
72.5583 5.14350
72.6640 5.17900
72.7696 5.25965
72.8225 5.33997
72.8753 5.48048
72.9282 5.74629
72.9810 6.27588
73.0255 7.00762
73.0700 7.49534
73.1145 7.00547
73.1590 6.27069
73.1947 5.87251
73.2303 5.62177
73.2659 5.46249
73.3016 5.35765
73.3729 5.23479
73.4441 5.16887
73.5867 5.10354
73.7293 5.07218
74.0144 5.04096
74.2995 5.02353
75.4400 4.98105
76.5805 4.94658
77.1508 4.93281
77.4359 4.93503
77.5784 4.95377
77.6497 4.98441
77.7210 5.06326
77.8100 5.21390
77.8990 5.05850
77.9448 4.99711
77.9907 4.96279
78.0823 4.93023
78.2656 4.90777
78.6322 4.89472
78.9988 4.89555
79.3654 4.91692
79.7319 4.99294
79.9152 5.08466
80.0985 5.26793
80.2818 5.68280
80.3735 6.10305
80.4651 6.86322
80.5568 8.42388
80.6026 9.88703
80.6484 12.3530
80.6942 16.9464
80.7172 20.8580
80.7401 26.8419
80.7630 36.5570
80.7859 53.5363
80.8088 85.8319
80.8203 112.760
80.8317 150.934
80.8413 193.042
80.8509 241.546
80.8700 304.412
80.8892 247.363
80.9083 158.207
80.9267 102.090
80.9451 69.6645
80.9634 50.4980
80.9818 38.5582
81.0186 25.3133
81.0553 18.6119
81.0921 14.7784
81.1288 12.3869
81.2023 9.68171
81.2758 8.26582
81.3493 7.43369
81.4964 6.55222
81.6434 6.13823
81.7904 5.94224
82.0844 5.93068
82.2314 6.10922
82.3784 6.47577
82.5254 7.17313
82.6725 8.54991
82.7460 9.74722
82.8195 11.5931
82.8930 14.6090
82.9665 19.9511
83.0400 30.6010
83.0767 40.2968
83.1135 56.1514
83.1503 84.4152
83.1686 107.450
83.1870 141.172
83.2054 192.833
83.2238 275.983
83.2421 416.870
83.2605 660.495
83.2803 1066.65
83.3000 1348.49
83.3198 1093.83
83.3395 694.502
83.3554 474.828
83.3713 335.922
83.3871 247.458
83.4030 189.169
83.4347 120.949
83.4665 84.6244
83.4982 63.1717
83.5300 49.4948
83.5934 33.6942
83.6569 25.2409
83.7204 20.1784
83.7839 16.8951
83.8474 14.6375
83.9744 11.8021
84.1013 10.1416
84.2283 9.07656
84.3553 8.34753
84.6092 7.43212
84.8631 6.89568
85.1171 6.56555
85.2440 6.47718
85.3075 6.47768
85.3710 6.55670
85.4600 6.75829
85.5490 6.42690
85.6393 6.20754
85.7295 6.10340
85.9100 5.98596
86.0905 5.92033
86.1808 5.91809
86.2710 5.98898
86.3600 6.13124
86.4490 5.93099
86.5084 5.83219
86.5679 5.77764
86.6868 5.71665
86.9245 5.64579
87.4000 5.55145
87.8755 5.48379
88.1133 5.46091
88.2321 5.45967
88.2916 5.46883
88.3510 5.49618
88.4400 5.55852
88.5290 5.47812
88.6191 5.42618
88.7093 5.40351
88.8895 5.37875
89.2500 5.34574
89.9709 5.29482
90.6919 5.25437
91.4129 5.22422
92.1338 5.21485
92.4943 5.23093
92.8548 5.28535
93.0350 5.34387
93.2153 5.44526
93.3955 5.62920
93.5757 5.99035
93.6659 6.30654
93.7560 6.79806
93.8461 7.60960
93.9362 9.06627
94.0263 12.0207
94.0714 14.7549
94.1165 19.2978
94.1615 27.5756
94.1841 34.4692
94.2066 44.7792
94.2291 61.0051
94.2516 88.1337
94.2742 136.510
94.2854 174.503
94.2967 225.909
94.3075 289.790
94.3184 363.473
94.3400 459.426
94.3617 373.517
94.3833 238.461
94.4053 149.753
94.4272 99.9944
94.4491 71.2420
94.4711 53.6072
94.4930 42.1527
94.5150 34.3392
94.5588 24.7083
94.6027 19.2368
94.6466 15.8337
94.7344 11.9884
94.8221 9.96924
94.9099 8.77154
94.9976 7.99874
95.0854 7.46847
95.2609 6.80249
95.4364 6.41120
95.6120 6.15877
95.7875 5.98466
96.1385 5.76308
96.4896 5.62964
96.8406 5.54107
97.1917 5.47814
97.8937 5.39476
98.5958 5.34286
99.2979 5.31182
99.6490 5.30655
100.000 5.31938
100.183 5.34686
100.274 5.37455
100.366 5.42183
100.457 5.50906
100.548 5.69011
100.594 5.85957
100.640 6.14028
100.685 6.63435
100.731 7.52884
100.776 8.90004
100.820 9.81406
100.865 8.89894
100.909 7.52545
100.951 6.67670
100.994 6.18790
101.036 5.89891
101.078 5.71878
101.162 5.51881
101.247 5.41742
101.331 5.35892
101.416 5.32195
101.585 5.27877
101.753 5.25454
101.922 5.23883
102.260 5.21883
102.936 5.19567
103.273 5.18860
103.442 5.18837
103.527 5.19233
103.611 5.20722
103.700 5.23405
103.789 5.20349
103.899 5.18216
104.008 5.17480
104.227 5.16777
104.664 5.15877
105.540 5.14413
107.290 5.11961
108.165 5.10936
109.041 5.10194
109.478 5.10136
109.916 5.10868
110.135 5.12194
110.244 5.13520
110.353 5.15810
110.463 5.20127
110.518 5.23821
110.572 5.29483
110.627 5.38692
110.682 5.54834
110.736 5.85703
110.764 6.11631
110.791 6.48431
110.836 7.32934
110.880 7.89274
110.925 7.32931
110.969 6.48358
111.022 5.87180
111.074 5.56257
111.127 5.39685
111.179 5.30076
111.232 5.24060
111.284 5.20077
111.389 5.15297
111.494 5.12638
111.599 5.11001
111.810 5.09145
112.230 5.07572
112.650 5.07093
113.070 5.07547
113.280 5.08438
113.491 5.10341
113.701 5.14608
113.806 5.18754
113.911 5.25847
114.016 5.39202
114.068 5.50614
114.121 5.68089
114.174 5.96516
114.226 6.46012
114.279 7.39683
114.331 9.26985
114.376 11.9043
114.420 13.7407
114.465 12.0994
114.509 9.51303
114.557 7.74282
114.604 6.78018
114.652 6.23597
114.699 5.90715
114.747 5.69535
114.794 5.55220
114.889 5.37665
114.984 5.27705
115.079 5.21501
115.269 5.14413
115.459 5.10586
115.649 5.08222
116.030 5.05431
116.790 5.02585
117.550 5.00857
118.310 4.99542
119.071 4.98657
119.451 4.98664
119.831 4.99821
120.021 5.01798
120.116 5.03736
120.211 5.07031
120.306 5.13118
120.401 5.25837
120.449 5.37866
120.496 5.58027
120.544 5.94129
120.591 6.61195
120.636 7.60992
120.680 8.27516
120.725 7.60908
120.769 6.60954
120.809 6.01758
120.849 5.66576
120.889 5.45298
120.929 5.31814
121.009 5.16620
121.089 5.08794
121.169 5.04244
121.249 5.01349
121.409 4.97945
121.729 4.94750
122.049 4.93087
122.689 4.91042
123.329 4.89897
123.969 4.90697
124.289 4.93296
124.609 5.00122
124.769 5.07021
124.929 5.18711
125.089 5.39626
125.249 5.80324
125.329 6.15782
125.409 6.70720
125.489 7.61102
125.569 9.22595
125.649 12.4794
125.689 15.4691
125.729 20.3985
125.769 29.2778
125.789 36.5850
125.809 47.3850
125.829 64.1097
125.849 91.4434
125.869 138.626
125.879 174.567
125.889 222.101
125.899 284.522
125.910 355.449
125.930 447.784
125.951 365.991
125.971 235.364
125.984 173.959
125.998 131.562
126.024 81.3911
126.051 55.4445
126.078 40.6854
126.105 31.5854
126.131 25.6048
126.185 18.5045
126.238 14.5947
126.291 12.2170
126.398 9.57285
126.505 8.20163
126.611 7.39390
126.718 6.87375
126.825 6.51678
127.038 6.06726
127.252 5.80192
127.679 5.51029
128.105 5.35742
128.532 5.26559
129.386 5.16859
129.813 5.14808
130.240 5.14700
130.667 5.17566
131.094 5.26346
131.307 5.35247
131.520 5.50056
131.734 5.75889
131.947 6.24513
132.161 7.28117
132.268 8.27806
132.374 9.99457
132.481 13.2770
132.534 16.1441
132.588 20.6213
132.641 28.1242
132.694 41.7676
132.721 53.0117
132.748 69.4065
132.774 93.8208
132.801 129.955
132.821 166.130
132.841 207.611
132.880 261.864
132.920 214.141
132.959 138.140
133.002 85.0691
133.045 56.4077
133.088 40.3352
133.131 30.6989
133.174 24.5130
133.217 20.3454
133.304 15.2501
133.390 12.3796
133.476 10.6023
133.648 8.59969
133.820 7.54794
133.992 6.92309
134.165 6.51836
134.337 6.23929
134.681 5.88579
135.026 5.67526
135.370 5.53728
135.715 5.44041
136.403 5.31356
137.092 5.23363
138.470 5.13586
139.848 5.07518
141.226 5.03310
141.914 5.01925
142.603 5.01781
142.948 5.03167
143.120 5.04894
143.292 5.08192
143.464 5.15013
143.551 5.21297
143.637 5.31608
143.723 5.50017
143.809 5.87090
143.852 6.21024
143.895 6.75889
143.938 7.69962
143.981 9.34445
144.026 11.9753
144.070 13.7284
144.115 11.9761
144.159 9.34443
144.204 7.63893
144.249 6.69040
144.294 6.14663
144.339 5.81615
144.429 5.45804
144.520 5.28173
144.610 5.18346
144.700 5.12432
144.880 5.06414
145.060 5.04780
145.241 5.07645
145.331 5.12556
145.421 5.23529
145.466 5.34027
145.511 5.51450
145.556 5.82135
145.601 6.37394
145.646 7.23007
145.690 7.80059
145.735 7.22831
145.779 6.36994
145.808 5.98227
145.836 5.71421
145.893 5.40051
145.950 5.24028
146.007 5.15122
146.121 5.06742
146.235 5.04248
146.349 5.05689
146.463 5.12974
146.520 5.21291
146.577 5.36665
146.634 5.67263
146.663 5.93598
146.691 6.31808
146.736 7.16613
146.780 7.73064
146.825 7.16045
146.869 6.30619
146.922 5.68571
146.975 5.37132
147.027 5.20256
147.080 5.10398
147.186 4.99971
147.291 4.94826
147.502 4.89918
147.713 4.87589
148.135 4.85604
148.558 4.86184
148.769 4.88075
148.980 4.92140
149.191 5.00502
149.402 5.18361
149.507 5.34763
149.613 5.60991
149.718 6.05503
149.824 6.87628
149.929 8.59517
149.982 10.2268
150.035 12.9932
150.088 18.1947
150.114 22.6505
150.140 29.4630
150.167 40.6017
150.193 60.1512
150.220 97.5034
150.233 128.737
150.246 172.769
150.257 222.066
150.268 278.570
150.290 352.662
150.312 287.569
150.334 184.647
150.358 114.091
150.381 75.6533
150.405 53.7711
150.428 40.5829
150.451 32.0552
150.475 26.2983
150.522 19.2338
150.569 15.2266
150.615 12.7431
150.709 9.93262
150.803 8.45326
150.896 7.57249
150.990 7.00172
151.084 6.60822
151.271 6.11054
151.459 5.81504
151.646 5.62233
151.833 5.48787
152.208 5.31369
152.583 5.20580
153.333 5.07715
154.082 4.99957
154.832 4.94459
155.581 4.90389
155.956 4.89595
156.144 4.91455
156.237 4.95665
156.284 5.00617
156.331 5.09895
156.376 5.23968
156.420 5.33288
156.465 5.23579
156.509 5.09111
156.570 4.97396
156.632 4.91944
156.754 4.87452
157.000 4.84517
157.490 4.82868
157.735 4.83541
157.981 4.87235
158.103 4.92442
158.226 5.04616
158.287 5.17219
158.348 5.40304
158.410 5.87187
158.440 6.28819
158.471 6.90653
158.516 8.19882
158.560 9.05947
158.605 8.19512
158.649 6.89848
158.677 6.32435
158.705 5.92427
158.760 5.44742
158.816 5.19792
158.871 5.05456
158.982 4.90575
159.093 4.83323
159.315 4.76385
159.537 4.72891
159.981 4.68840
160.425 4.66198
160.869 4.64615
161.313 4.65349
161.535 4.68241
161.757 4.76749
161.868 4.86975
161.979 5.09032
162.035 5.30676
162.090 5.68607
162.146 6.41362
162.201 7.90229
162.246 9.88456
162.290 11.2074
162.335 9.89503
162.379 7.92215
162.414 6.86612
162.449 6.20184
162.520 5.50559
162.590 5.19219
162.660 5.03641
162.801 4.91768
162.941 4.91226
163.222 5.08941
163.504 5.58132
163.644 6.05355
163.785 6.82257
163.925 8.14652
164.066 10.6215
164.136 12.7157
164.206 15.8834
164.277 20.9490
164.347 29.6619
164.417 46.3579
164.452 60.9631
164.488 83.7638
164.523 122.038
164.558 191.609
164.575 249.014
164.593 332.153
164.611 456.503
164.628 639.967
164.654 1033.39
164.680 1308.02
164.706 1068.46
164.732 684.049
164.758 431.024
164.784 286.829
164.810 202.604
164.836 150.551
164.862 116.550
164.888 93.2543
164.940 64.4012
164.992 47.9219
165.044 37.6291
165.148 25.9506
165.252 19.7758
165.356 16.0961
165.460 13.7125
165.564 12.0727
165.772 10.0032
165.980 8.78376
166.188 7.99718
166.396 7.45895
166.812 6.80450
167.020 6.62244
167.227 6.53996
167.435 6.62620
167.539 6.80344
167.643 7.18352
167.747 8.02994
167.799 8.84307
167.851 10.2168
167.903 12.7470
167.929 14.8640
167.955 18.0353
167.981 23.0266
168.007 31.3568
168.033 46.1475
168.059 73.1542
168.085 115.481
168.110 145.354
168.135 119.465
168.161 78.1206
168.184 52.9617
168.207 37.9806
168.230 28.8338
168.253 23.0366
168.299 16.4505
168.345 13.0397
168.391 11.0540
168.437 9.79526
168.530 8.34057
168.622 7.55381
168.714 7.07306
168.898 6.52570
169.083 6.22489
169.267 6.03341
169.636 5.79807
170.005 5.65294
170.373 5.55046
171.111 5.40890
171.849 5.31226
172.586 5.24569
172.955 5.22785
173.324 5.23885
173.508 5.27682
173.600 5.31740
173.692 5.38849
173.785 5.52168
173.877 5.80123
173.923 6.06458
173.969 6.50272
174.015 7.27768
174.061 8.68835
174.106 10.8365
174.150 12.2668
174.195 10.8313
174.239 8.67707
174.267 7.70880
174.296 7.03662
174.352 6.24558
174.409 5.83546
174.465 5.60140
174.578 5.36032
174.691 5.24418
174.917 5.13539
175.143 5.08298
175.595 5.02761
176.047 4.99956
176.499 5.00274
176.725 5.03201
176.951 5.10960
177.177 5.31377
177.290 5.53541
177.403 5.95232
177.516 6.83787
177.573 7.68704
177.629 9.14205
177.686 11.9016
177.714 14.2928
177.742 17.9855
177.771 24.1005
177.799 34.9786
177.827 56.3741
177.841 74.6389
177.855 101.111
177.866 129.134
177.878 161.548
177.900 204.149
177.922 167.164
177.945 108.132
177.962 76.6769
177.979 56.2963
177.996 43.0520
178.014 34.1849
178.048 23.6310
178.082 17.9142
178.117 14.4972
178.151 12.2973
178.220 9.72916
178.289 8.33873
178.358 7.49733
178.495 6.56435
178.633 6.07807
178.770 5.78773
179.046 5.46430
179.321 5.29000
179.596 5.18019
180.146 5.04456
181.247 4.89100
182.347 4.78494
182.898 4.74065
183.448 4.70543
183.998 4.69099
184.549 4.73251
184.824 4.80376
185.099 4.94889
185.374 5.24305
185.649 5.87061
185.787 6.44765
185.925 7.37303
186.062 8.94678
186.200 11.8520
186.337 17.9295
186.406 23.6880
186.475 33.4484
186.544 51.6819
186.578 67.2116
186.613 90.9205
186.647 129.237
186.681 195.632
186.699 247.628
186.716 320.072
186.733 422.253
186.750 564.562
186.780 918.552
186.810 1169.56
186.840 954.069
186.870 608.953
186.901 378.382
186.932 249.694
186.963 175.635
186.994 130.429
187.024 100.979
187.055 80.8942
187.117 56.1486
187.179 42.0320
187.241 33.2395
187.364 23.2524
187.487 17.9653
187.611 14.8073
187.734 12.7560
187.858 11.3404
188.105 9.54586
188.352 8.48057
188.599 7.78712
188.846 7.30538
189.339 6.68877
189.833 6.32097
190.327 6.10400
190.574 6.08609
190.698 6.18666
190.759 6.34915
190.821 6.72934
190.866 7.21040
190.910 7.52856
190.955 7.19309
190.999 6.69464
191.034 6.42867
191.069 6.25871
191.138 6.07563
191.277 5.94656
191.416 5.92240
191.555 5.95976
191.694 6.08685
191.764 6.21523
191.833 6.42904
191.903 6.80537
191.972 7.52817
192.007 8.15169
192.042 9.09633
192.076 10.5806
192.111 12.9093
192.156 17.3026
192.200 20.2243
192.245 17.2890
192.289 12.8802
192.322 10.6199
192.355 9.14887
192.389 8.18846
192.422 7.54468
192.488 6.77344
192.554 6.35304
192.621 6.09971
192.687 5.93474
192.820 5.73745
192.952 5.62522
193.085 5.55290
193.350 5.46406
193.615 5.41323
193.881 5.39368
194.013 5.40596
194.146 5.45975
194.212 5.52547
194.278 5.65530
194.345 5.93715
194.378 6.20018
194.411 6.60593
194.456 7.40361
194.500 7.93363
194.545 7.39374
194.589 6.58579
194.621 6.18033
194.654 5.91327
194.718 5.61512
194.782 5.46727
194.847 5.38382
194.976 5.29548
195.104 5.24873
195.362 5.19529
195.620 5.16018
196.650 5.06129
197.681 4.98555
197.938 4.97425
198.196 4.97777
198.325 4.99638
198.453 5.05063
198.518 5.11164
198.582 5.22838
198.647 5.47539
198.679 5.70125
198.711 6.04587
198.756 6.73813
198.800 7.19837
198.845 6.73098
198.889 6.03125
198.924 5.65862
198.959 5.42116
199.028 5.16582
199.097 5.04338
199.167 4.97556
199.306 4.90400
199.445 4.86536
200.000 4.78370
200.694 4.70829
201.388 4.63302
202.081 4.55640
202.775 4.49040
203.122 4.47478
203.469 4.49171
203.816 4.58407
204.163 4.86474
204.336 5.16499
204.510 5.68830
204.683 6.64678
204.856 8.54392
204.943 10.2146
205.030 12.8130
205.117 17.0997
205.203 24.7584
205.247 31.0006
205.290 40.1143
205.333 54.1340
205.377 76.9616
205.420 117.500
205.442 150.295
205.463 197.670
205.485 269.601
205.507 383.433
205.529 571.521
205.550 885.291
205.575 1443.24
205.600 1837.08
205.625 1498.42
205.650 957.241
205.674 611.260
205.698 410.889
205.722 292.217
205.746 218.340
205.770 169.448
205.794 135.742
205.843 93.7788
205.891 69.5772
205.939 54.4073
206.035 37.0694
206.131 27.8401
206.228 22.3115
206.324 18.7144
206.420 16.2303
206.613 13.0791
206.805 11.2092
206.998 9.99279
207.190 9.14841
207.575 8.06688
207.960 7.41276
208.346 6.97874
208.731 6.67171
209.501 6.27070
210.271 6.03617
210.656 5.97309
211.041 5.98221
211.234 6.06106
211.330 6.14899
211.426 6.30521
211.522 6.60177
211.619 7.23181
211.667 7.83437
211.715 8.84859
211.763 10.6763
211.811 14.0953
211.856 19.1275
211.900 22.4734
211.945 19.1173
211.989 14.0727
212.021 11.5870
212.052 9.93469
212.084 8.83606
212.115 8.08728
212.179 7.18001
212.242 6.68001
212.305 6.37739
212.368 6.18036
212.495 5.94643
212.621 5.81578
212.747 5.73391
213.000 5.63972
213.253 5.59624
213.506 5.60498
213.632 5.65252
213.758 5.78461
213.822 5.92946
213.885 6.20224
213.948 6.77029
213.980 7.28330
214.011 8.05561
214.056 9.63291
214.100 10.6820
214.145 9.62265
214.189 8.03438
214.233 7.02185
214.277 6.44955
214.321 6.11541
214.365 5.90832
214.453 5.67789
214.540 5.55882
214.716 5.44038
214.892 5.37991
215.243 5.31067
215.595 5.26391
217.000 5.12247
218.406 4.98982
219.108 4.92220
219.460 4.89781
219.635 4.91053
219.723 4.95288
219.767 5.00382
219.811 5.09796
219.900 5.34819
219.989 5.07717
220.051 4.94356
220.113 4.87929
220.237 4.82082
220.484 4.76825
220.980 4.69932
221.475 4.64466
221.970 4.62687
222.218 4.65657
222.466 4.74777
222.713 4.96980
222.961 5.49764
223.085 6.01057
223.209 6.85953
223.333 8.34577
223.456 11.1684
223.580 17.2451
223.642 23.1261
223.704 33.2806
223.735 41.3103
223.766 52.7038
223.797 69.6444
223.828 95.9553
223.859 139.791
223.890 218.411
223.905 282.435
223.921 374.625
223.936 509.813
223.952 705.996
223.976 1151.80
224.000 1470.16
224.024 1202.74
224.048 769.705
224.069 516.528
224.090 360.567
224.111 263.457
224.132 200.515
224.173 127.938
224.215 89.7466
224.256 67.3106
224.298 53.0207
224.381 36.4990
224.464 27.5980
224.548 22.2272
224.631 18.7164
224.714 16.2851
224.880 13.1944
225.047 11.3623
225.213 10.1782
225.379 9.37070
225.712 8.40974
225.878 8.16235
226.045 8.07841
226.211 8.25778
226.294 8.53788
226.377 9.07359
226.461 10.1182
226.544 12.3254
226.585 14.3774
226.627 17.7155
226.669 23.4086
226.710 33.2812
226.755 50.0214
226.800 61.9190
226.845 51.7334
226.890 35.3711
226.929 25.8352
226.967 19.9666
227.006 16.3008
227.044 13.9157
227.121 11.1442
227.198 9.66962
227.275 8.78754
227.352 8.21450
227.506 7.52579
227.660 7.12995
227.815 6.87208
228.123 6.55007
228.431 6.34972
228.739 6.20800
229.355 6.01243
229.972 5.87787
230.588 5.77627
231.820 5.62761
233.053 5.51926
234.285 5.43290
236.751 5.29344
239.216 5.17061
241.681 5.04263
242.913 4.97009
244.146 4.88795
245.379 4.79895
245.687 4.78166
245.995 4.77995
246.149 4.79838
246.303 4.86017
246.380 4.93489
246.457 5.08701
246.496 5.22404
246.534 5.44036
246.573 5.79533
246.611 6.38408
246.656 7.41055
246.700 8.09319
246.745 7.40208
246.789 6.36674
246.823 5.82700
246.857 5.47847
246.925 5.10028
246.992 4.91835
247.060 4.81796
247.196 4.71459
247.331 4.66226
247.603 4.60879
247.874 4.58762
248.145 4.60224
248.416 4.70861
248.552 4.87035
248.687 5.29713
248.755 5.81808
248.789 6.27891
248.823 7.01343
248.857 8.27999
248.890 10.7075
248.907 12.8230
248.924 16.0565
248.941 21.2027
248.958 29.4659
248.979 44.8412
249.000 55.3896
249.021 45.6744
249.042 30.6199
249.055 23.7389
249.069 18.9820
249.095 13.3537
249.122 10.4336
249.148 8.77530
249.202 7.10058
249.255 6.34116
249.361 5.75633
249.468 5.63778
249.681 5.99941
249.893 7.16156
250.000 8.27500
250.106 10.0646
250.213 13.0928
250.319 18.6282
250.372 23.2188
250.426 30.0128
250.479 40.5936
250.532 58.1747
250.585 90.0678
250.612 116.434
250.638 155.517
250.665 216.206
250.692 315.650
250.718 487.811
250.745 793.893
250.772 1296.36
250.800 1655.56
250.828 1354.03
250.855 865.993
250.882 555.558
250.908 374.990
250.935 267.661
250.961 200.429
250.988 156.052
251.014 125.394
251.067 87.1215
251.120 64.9873
251.173 51.0757
251.279 35.1172
251.385 26.6010
251.491 21.4819
251.597 18.1408
251.703 15.8249
251.914 12.8798
252.126 11.1233
252.338 9.97620
252.550 9.17716
252.973 8.14929
253.397 7.52443
253.821 7.10774
254.244 6.81120
255.092 6.41793
255.939 6.16838
256.786 5.99464
257.633 5.86533
259.328 5.68121
261.022 5.54977
262.717 5.44531
263.140 5.42396
263.564 5.40967
263.776 5.41082
263.987 5.43132
264.093 5.46253
264.199 5.53520
264.252 5.60844
264.305 5.73694
264.358 5.98138
264.411 6.46862
264.456 7.14121
264.500 7.58878
264.545 7.13739
264.589 6.46076
264.624 6.09594
264.660 5.86580
264.730 5.62201
264.801 5.50792
264.872 5.44685
265.013 5.38739
265.154 5.36168
265.437 5.35135
265.719 5.38837
265.861 5.43762
266.002 5.52745
266.143 5.69457
266.284 6.02544
266.426 6.76156
266.496 7.49053
266.567 8.76846
266.638 11.2659
266.673 13.4761
266.708 16.9767
266.744 22.9169
266.779 33.9398
266.797 43.1912
266.814 56.7988
266.832 77.5398
266.850 108.827
266.862 139.604
266.875 175.063
266.900 222.344
266.925 182.872
266.951 118.932
266.967 88.4027
266.984 67.4529
267.017 42.9298
267.051 30.2731
267.084 23.1045
267.118 18.6667
267.151 15.7525
267.218 12.2670
267.285 10.3384
267.352 9.15431
267.486 7.82471
267.619 7.12338
267.753 6.70299
267.887 6.42738
268.021 6.23507
268.288 5.98656
268.556 5.83429
269.091 5.65716
269.626 5.55548
270.161 5.48745
271.231 5.39707
273.371 5.28522
274.441 5.24499
274.976 5.23287
275.244 5.24067
275.377 5.26805
275.444 5.30809
275.511 5.40352
275.600 5.59239
275.689 5.40421
275.740 5.32461
275.792 5.28485
275.895 5.25519
275.997 5.25246
276.100 5.26641
276.203 5.30324
276.306 5.39001
276.357 5.47649
276.408 5.62674
276.460 5.90749
276.511 6.45541
276.556 7.22789
276.600 7.74215
276.645 7.22440
276.689 6.44818
276.732 5.96055
276.775 5.68251
276.819 5.51893
276.862 5.41754
276.948 5.30477
277.034 5.24685
277.207 5.19041
277.379 5.16268
277.724 5.13247
278.070 5.11285
279.450 5.05378
280.831 5.00474
281.176 4.99932
281.521 5.00967
281.693 5.03395
281.866 5.10192
281.952 5.18126
282.038 5.34449
282.082 5.49538
282.125 5.74058
282.168 6.16139
282.211 6.90077
282.256 8.08614
282.300 8.87386
282.345 8.07936
282.389 6.89256
282.430 6.17635
282.471 5.75571
282.512 5.50350
282.553 5.34480
282.635 5.16582
282.717 5.07330
282.881 4.98334
283.045 4.94002
283.372 4.89488
283.700 4.86784
284.356 4.83762
284.683 4.85993
284.847 4.94485
284.929 5.08582
284.970 5.23330
285.011 5.48570
285.100 6.18595
285.189 5.47737
285.246 5.15229
285.303 4.99538
285.416 4.86643
285.644 4.79265
286.098 4.76447
286.552 4.78792
287.007 4.89274
287.461 5.21830
287.689 5.59855
287.916 6.34686
288.143 8.00827
288.257 9.65512
288.370 12.5572
288.484 18.2610
288.541 23.3576
288.597 31.5067
288.654 45.5293
288.711 72.1204
288.739 94.8640
288.768 129.244
288.796 182.784
288.825 266.577
288.862 432.937
288.900 551.005
288.938 450.619
288.976 289.262
289.015 180.154
289.054 119.635
289.093 84.8786
289.132 63.6346
289.172 49.8571
289.211 40.4615
289.289 28.8687
289.368 22.2565
289.446 18.1340
289.603 13.4451
289.760 10.9574
289.917 9.46862
290.230 7.82992
290.544 6.98517
290.858 6.49637
291.485 6.04349
292.112 6.10786
292.426 6.44423
292.739 7.23836
293.053 9.13851
293.210 11.0674
293.367 14.4947
293.524 21.2584
293.602 27.2989
293.680 36.9445
293.759 53.5021
293.798 66.4792
293.837 84.7791
293.876 111.427
293.916 151.564
293.955 213.799
293.994 310.794
294.047 507.058
294.100 649.638
294.127 619.971
294.153 535.079
294.206 346.967
294.256 228.973
294.306 160.963
294.357 121.802
294.407 99.6827
294.457 89.0140
294.507 88.5861
294.557 101.303
294.607 135.685
294.654 192.972
294.700 233.857
294.746 194.199
294.793 131.785
294.823 102.664
294.852 82.0382
294.912 56.9597
294.971 43.2443
295.031 34.9440
295.150 25.6475
295.269 20.6638
295.388 17.5756
295.507 15.4834
295.745 12.8368
295.983 11.2402
296.221 10.1791
296.697 8.86626
297.174 8.09291
297.650 7.58700
298.602 6.96925
299.554 6.60966
300.506 6.38192
300.983 6.30528
301.459 6.26446
301.697 6.27510
301.935 6.35197
302.054 6.46200
302.173 6.71744
302.232 6.97922
302.292 7.45334
302.351 8.40033
302.381 9.22807
302.411 10.4415
302.455 13.0461
302.500 14.7821
302.545 13.0416
302.589 10.4318
302.640 8.59587
302.691 7.64339
302.741 7.12518
302.792 6.82153
302.893 6.50405
302.995 6.35510
303.197 6.23855
303.400 6.22955
303.603 6.31332
303.704 6.41439
303.805 6.59503
303.907 6.93849
303.957 7.23072
304.008 7.67313
304.059 8.38250
304.109 9.59282
304.160 11.8262
304.211 16.1235
304.255 22.2576
304.300 26.3474
304.345 22.2504
304.389 16.1076
304.419 13.2326
304.449 11.2776
304.509 9.03445
304.569 7.90265
304.628 7.26938
304.688 6.88323
304.748 6.63125
304.867 6.33292
304.987 6.16830
305.106 6.06662
305.345 5.94910
305.584 5.88265
305.823 5.83870
306.300 5.78115
306.778 5.74378
307.256 5.72291
307.495 5.72471
307.733 5.75265
307.853 5.79512
307.972 5.89600
308.032 6.00048
308.092 6.19082
308.151 6.57301
308.181 6.90831
308.211 7.40113
308.256 8.45708
308.300 9.15885
308.345 8.45084
308.389 7.39297
308.428 6.78439
308.466 6.41503
308.505 6.18755
308.543 6.04155
308.620 5.87385
308.697 5.78552
308.851 5.69879
309.004 5.65698
309.312 5.61426
309.620 5.58934
310.850 5.52750
311.465 5.50525
312.081 5.49224
312.388 5.49620
312.696 5.52593
312.850 5.57084
313.003 5.68216
313.080 5.80443
313.157 6.04440
313.196 6.25727
313.234 6.58970
313.273 7.13337
313.311 8.02907
313.356 9.59549
313.400 10.6364
313.445 9.58875
313.489 8.02278
313.530 7.07790
313.571 6.52335
313.612 6.19129
313.653 5.98277
313.735 5.74865
313.817 5.62881
313.981 5.51494
314.145 5.46290
314.472 5.41440
314.800 5.39098
315.456 5.38241
315.620 5.39768
315.783 5.44164
315.865 5.49244
315.947 5.59490
316.029 5.83614
316.070 6.08535
316.111 6.50974
316.156 7.21510
316.200 7.68526
316.245 7.21499
316.289 6.50930
316.338 6.02615
316.386 5.76985
316.484 5.54490
316.581 5.45791
316.678 5.41812
317.068 5.39227
317.457 5.45177
317.846 5.61911
318.041 5.78376
318.235 6.05508
318.430 6.52549
318.625 7.40439
318.819 9.25020
318.917 10.9927
319.014 13.9228
319.111 19.3132
319.160 23.8284
319.209 30.5773
319.257 41.2150
319.306 58.8997
319.355 90.2591
319.379 114.631
319.403 147.434
319.427 189.686
319.452 238.871
319.500 305.034
319.548 251.327
319.597 163.003
319.636 113.927
319.674 82.6681
319.713 62.5516
319.752 49.2393
319.829 33.4964
319.907 25.0264
319.984 19.9649
320.062 16.7086
320.217 12.8937
320.371 10.8165
320.526 9.55147
320.681 8.71816
320.836 8.13643
321.146 7.39063
321.456 6.94196
321.766 6.64667
322.075 6.43941
322.695 6.16982
323.315 6.00311
323.934 5.88981
324.554 5.80751
325.793 5.69505
327.032 5.62192
327.652 5.59606
328.272 5.58103
328.582 5.58372
328.891 5.61002
329.046 5.65032
329.124 5.68825
329.201 5.75052
329.279 5.86084
329.356 6.07748
329.395 6.27027
329.434 6.57208
329.472 7.06560
329.511 7.88334
329.556 9.30438
329.600 10.2485
329.645 9.29870
329.689 7.87834
329.716 7.26296
329.743 6.83025
329.797 6.30884
329.851 6.03328
329.906 5.87429
329.960 5.77523
330.014 5.70954
330.122 5.63045
330.230 5.58589
330.338 5.55785
330.554 5.52449
330.987 5.49104
331.420 5.47149
332.285 5.44408
333.150 5.42246
334.015 5.40430
334.881 5.39150
335.313 5.39076
335.746 5.40405
335.962 5.42766
336.070 5.45115
336.178 5.49150
336.287 5.56741
336.341 5.63218
336.395 5.73100
336.449 5.89149
336.503 6.17166
336.557 6.70432
336.611 7.77524
336.656 9.23380
336.700 10.2033
336.745 9.22962
336.789 7.77341
336.835 6.82086
336.880 6.29579
336.926 5.99553
336.972 5.81367
337.063 5.61700
337.154 5.52004
337.246 5.46562
337.337 5.43222
337.519 5.39562
337.885 5.37093
338.250 5.37790
338.615 5.42671
338.797 5.48621
338.980 5.60135
339.163 5.84772
339.254 6.08224
339.345 6.47771
339.436 7.20848
339.482 7.82233
339.528 8.74178
339.573 10.1952
339.619 12.6200
339.665 16.9286
339.710 24.8434
339.755 37.4211
339.800 46.4891
339.845 39.0822
339.890 26.9547
339.931 19.5236
339.972 15.0592
340.012 12.3356
340.053 10.5962
340.135 8.61719
340.216 7.58722
340.298 6.98523
340.380 6.60248
340.543 6.15925
340.706 5.91925
340.869 5.77313
341.195 5.60831
341.522 5.51965
341.848 5.46473
342.500 5.40038
343.153 5.36496
343.806 5.34987
344.132 5.35607
344.295 5.36778
344.458 5.39219
344.622 5.44472
344.703 5.49371
344.785 5.57409
344.866 5.71715
344.948 6.00192
344.989 6.25838
345.029 6.66724
345.070 7.35071
345.111 8.51060
345.156 10.4496
345.200 11.7380
345.245 10.4430
345.289 8.50621
345.323 7.49360
345.357 6.84320
345.391 6.42350
345.425 6.14488
345.494 5.81494
345.562 5.63763
345.630 5.53211
345.698 5.46449
345.834 5.38540
345.970 5.34193
346.107 5.31485
346.379 5.28264
346.924 5.24925
347.469 5.22829
348.559 5.19566
349.649 5.16681
350.739 5.14317
351.284 5.13852
351.828 5.14960
352.101 5.16892
352.373 5.20786
352.646 5.28540
352.918 5.44678
353.191 5.81985
353.327 6.19746
353.463 6.87110
353.600 8.20995
353.668 9.41260
353.736 11.3416
353.804 14.6677
353.872 20.9773
353.906 26.3771
353.940 34.4989
353.974 47.1456
354.008 66.8076
354.031 85.1777
354.054 106.561
354.100 135.256
354.146 111.929
354.192 73.6307
354.223 55.2975
354.253 42.6746
354.314 27.8986
354.375 20.2774
354.436 15.9501
354.497 13.2715
354.558 11.5077
354.680 9.39515
354.802 8.22245
354.925 7.50003
355.169 6.68450
355.413 6.25107
355.657 5.98883
356.145 5.69252
356.634 5.53092
357.122 5.42864
358.098 5.30483
359.075 5.24102
359.563 5.23600
360.052 5.27212
360.296 5.32293
360.540 5.41828
360.784 5.59904
361.028 5.96095
361.273 6.76937
361.395 7.56826
361.517 8.96338
361.639 11.6637
361.700 14.0341
361.761 17.7410
361.822 23.9397
361.883 35.1394
361.944 57.4474
361.974 76.8281
362.005 105.267
362.029 135.107
362.053 169.853
362.100 216.556
362.148 178.769
362.195 116.589
362.231 83.4389
362.267 61.7449
362.303 47.5258
362.339 37.9588
362.412 26.4492
362.484 20.1484
362.556 16.3451
362.628 13.8818
362.772 10.9783
362.916 9.38633
363.061 8.41352
363.205 7.77025
363.349 7.32040
363.638 6.74185
363.926 6.39241
364.215 6.16180
364.503 5.99985
365.080 5.79116
365.657 5.67417
365.946 5.64793
366.234 5.66779
366.378 5.72464
366.523 5.87979
366.595 6.05329
366.667 6.39148
366.703 6.68706
366.739 7.14040
366.775 7.86362
366.811 9.01872
366.856 11.1431
366.900 12.5535
366.945 11.1297
366.989 9.00147
367.019 8.00040
367.049 7.32166
367.109 6.53934
367.168 6.14357
367.228 5.92123
367.347 5.69393
367.467 5.58488
367.705 5.48252
367.944 5.43394
368.421 5.38996
368.899 5.38966
369.376 5.46385
369.615 5.56889
369.853 5.78687
370.092 6.28268
370.211 6.77656
370.331 7.64251
370.450 9.32468
370.510 10.8038
370.569 13.1210
370.629 17.0045
370.689 24.0419
370.748 38.1539
370.778 50.4524
370.808 68.5616
370.831 87.4691
370.854 109.386
370.900 138.907
370.946 115.041
370.992 75.7457
371.024 56.5461
371.055 43.4404
371.086 34.4934
371.117 28.2605
371.180 20.5133
371.243 16.1427
371.305 13.4484
371.368 11.6788
371.493 9.56407
371.619 8.39189
371.744 7.67004
371.995 6.85443
372.245 6.42042
372.496 6.15718
372.997 5.85914
373.498 5.69640
373.999 5.59366
375.001 5.46918
376.004 5.39519
377.006 5.35068
377.507 5.34328
378.008 5.36494
378.259 5.40997
378.384 5.45620
378.510 5.53735
378.635 5.69362
378.698 5.83018
378.760 6.04337
378.823 6.40063
378.886 7.05236
378.917 7.59100
378.948 8.38066
378.979 9.56569
379.011 11.3433
379.055 15.0046
379.100 17.4378
379.145 14.9919
379.189 11.3362
379.218 9.65993
379.248 8.50860
379.306 7.17192
379.364 6.48890
379.422 6.10513
379.480 5.87010
379.538 5.71695
379.655 5.53602
379.771 5.43725
379.887 5.37721
380.120 5.31042
380.585 5.25634
381.050 5.24277
381.515 5.26227
381.748 5.29373
381.980 5.35578
382.213 5.48474
382.329 5.60363
382.445 5.80007
382.562 6.15831
382.678 6.91891
382.736 7.66596
382.794 8.98276
382.852 11.5482
382.882 13.7498
382.911 16.9342
382.955 23.9194
383.000 28.5740
383.045 23.9679
383.090 17.0616
383.121 13.6629
383.153 11.4304
383.217 8.98233
383.281 7.84393
383.344 7.29158
383.471 6.98753
383.599 7.32338
383.726 8.41420
383.790 9.47473
383.853 11.1976
383.917 14.1667
383.981 19.7006
384.012 24.3318
384.044 31.1737
384.076 41.5160
384.108 57.1588
384.154 90.7092
384.200 115.024
384.246 95.4320
384.292 63.1395
384.327 45.9321
384.362 34.6630
384.397 27.2712
384.432 22.2943
384.502 16.2937
384.572 13.0095
384.642 11.0232
384.712 9.73435
384.852 8.20996
384.992 7.37114
385.132 6.85578
385.411 6.27290
385.691 5.96076
385.971 5.76985
386.530 5.55028
387.090 5.42711
387.650 5.34666
388.769 5.24262
389.888 5.17167
391.007 5.11425
393.245 5.01175
395.483 4.90499
396.602 4.84640
397.721 4.78736
398.280 4.76226
398.840 4.74797
399.399 4.76121
399.959 4.84704
400.239 4.95309
400.518 5.14836
400.798 5.51825
401.078 6.26471
401.358 7.95322
401.498 9.64022
401.637 12.6153
401.777 18.4440
401.847 23.6172
401.917 31.7928
401.987 45.6495
402.022 56.3512
402.057 71.1764
402.092 92.4099
402.127 123.498
402.162 170.300
402.197 240.353
402.248 392.680
402.300 503.538
402.326 480.818
402.352 415.084
402.403 268.365
402.439 195.990
402.474 146.773
402.510 113.302
402.545 90.0573
402.616 61.2892
402.687 45.0753
402.758 35.1010
402.829 28.5569
402.971 20.7502
403.114 16.4239
403.256 13.7638
403.540 10.7621
403.824 9.16880
404.108 8.20632
404.392 7.57132
404.676 7.12481
405.244 6.54180
405.812 6.17871
406.948 5.74793
408.085 5.51292
408.653 5.46048
409.221 5.49271
409.505 5.57444
409.789 5.74548
410.073 6.08866
410.357 6.80042
410.641 8.43043
410.784 10.0657
410.926 12.9519
411.068 18.6036
411.139 23.6042
411.210 31.5022
411.281 44.8263
411.352 69.2893
411.387 89.5111
411.423 119.076
411.458 163.220
411.494 229.094
411.547 373.974
411.600 479.566
411.653 395.689
411.706 256.246
411.750 176.850
411.794 126.790
411.838 94.8711
411.881 73.8832
411.969 49.2234
412.056 36.0131
412.144 28.1519
412.231 23.0943
412.406 17.1747
412.581 13.9473
412.756 11.9770
412.931 10.6752
413.106 9.76330
413.456 8.58818
413.806 7.87513
414.156 7.40172
414.506 7.06637
415.206 6.62401
415.906 6.34442
417.306 6.00444
418.706 5.79702
419.406 5.72056
420.106 5.66268
420.806 5.64237
421.156 5.66855
421.506 5.75945
421.856 6.02113
422.031 6.31296
422.206 6.86494
422.381 8.02791
422.469 9.12383
422.556 10.9572
422.644 14.2970
422.731 21.1525
422.775 27.4971
422.819 37.8113
422.863 55.4926
422.906 86.5218
422.930 110.876
422.953 139.167
423.000 177.537
423.047 147.134
423.094 96.6239
423.125 72.2487
423.156 55.4808
423.219 35.8774
423.282 25.7746
423.344 20.0370
423.407 16.4830
423.470 14.1401
423.595 11.3307
423.720 9.76502
423.845 8.79757
424.096 7.70060
424.347 7.11400
424.597 6.75704
424.848 6.51958
425.098 6.35111
425.599 6.12842
426.100 5.98730
427.102 5.81552
428.105 5.71138
429.107 5.64044
429.608 5.61478
430.109 5.60023
430.359 5.60384
430.610 5.63224
430.735 5.67402
430.860 5.77313
430.923 5.87682
430.986 6.06794
431.048 6.46018
431.080 6.81136
431.111 7.33917
431.156 8.42498
431.200 9.14632
431.245 8.41908
431.289 7.33219
431.335 6.62301
431.380 6.22982
431.426 6.00452
431.471 5.86703
431.562 5.71702
431.653 5.64149
431.835 5.56938
432.017 5.53504
432.381 5.49955
432.745 5.47836
433.472 5.44871
434.200 5.42690
434.928 5.41338
435.292 5.41267
435.655 5.42115
436.019 5.45133
436.201 5.48543
436.383 5.54871
436.565 5.67805
436.656 5.79714
436.747 5.99294
436.838 6.34534
436.883 6.63534
436.929 7.06354
436.974 7.73051
437.020 8.82922
437.065 10.7521
437.111 14.2122
437.155 19.5495
437.200 23.1077
437.245 19.5477
437.289 14.2078
437.334 10.7672
437.379 8.84710
437.424 7.74310
437.469 7.06929
437.514 6.63372
437.559 6.33795
437.649 5.97577
437.739 5.77105
437.829 5.64423
438.009 5.50094
438.189 5.42467
438.369 5.37809
438.729 5.32348
439.449 5.26691
440.168 5.23017
441.608 5.16845
443.047 5.10626
444.487 5.03895
445.207 5.00530
445.926 4.97870
446.646 4.98321
447.006 5.02274
447.366 5.13279
447.726 5.43261
447.906 5.76248
448.086 6.38402
448.266 7.69299
448.356 8.92745
448.445 10.9926
448.535 14.7671
448.625 22.5355
448.670 29.7536
448.715 41.5737
448.760 61.9897
448.783 77.5462
448.805 98.0489
448.829 125.915
448.853 158.412
448.900 202.426
448.947 167.433
448.995 109.320
449.032 77.2180
449.070 56.5988
449.108 43.2994
449.145 34.4598
449.220 23.9545
449.295 18.2668
449.370 14.8591
449.446 12.6566
449.596 10.0669
449.746 8.64844
449.896 7.77930
450.197 6.79811
450.497 6.27416
450.797 5.95644
451.398 5.61420
451.999 5.52093
452.300 5.60070
452.600 5.86719
452.900 6.59451
453.051 7.37650
453.201 8.81329
453.351 11.7356
453.426 14.4029
453.501 18.7297
453.576 26.2836
453.651 40.8310
453.689 53.4449
453.726 72.6476
453.764 102.969
453.802 150.896
453.826 194.898
453.851 246.086
453.900 315.900
453.925 302.189
453.949 261.625
453.999 170.575
454.041 116.752
454.083 83.4320
454.125 62.5468
454.167 48.9319
454.252 33.1082
454.336 24.7210
454.421 19.7514
454.505 16.5704
454.674 12.8655
454.843 10.8684
455.012 9.68214
455.350 8.50307
455.687 8.30913
455.856 8.64159
456.025 9.51536
456.194 11.5632
456.278 13.5379
456.363 16.8406
456.447 22.7964
456.532 34.7019
456.574 45.3854
456.616 62.2633
456.658 90.0335
456.700 136.372
456.750 220.905
456.800 282.813
456.850 234.137
456.900 152.871
456.949 99.4953
456.998 68.7744
457.048 50.6575
457.097 39.3784
457.146 31.9300
457.195 26.7943
457.294 20.3521
457.392 16.6139
457.491 14.2420
457.688 11.4879
457.885 9.98522
458.082 9.05926
458.476 7.99656
458.870 7.41101
459.264 7.04142
460.052 6.59871
460.840 6.33924
461.628 6.16574
463.204 5.94171
464.780 5.79619
465.568 5.73915
466.356 5.69052
467.144 5.65489
467.538 5.64874
467.932 5.66362
468.326 5.73581
468.523 5.82751
468.720 6.01152
468.917 6.41841
469.016 6.81460
469.114 7.49512
469.213 8.77598
469.262 9.86911
469.311 11.5293
469.360 14.1979
469.410 18.7484
469.459 27.0960
469.508 42.9887
469.554 67.4197
469.600 85.3177
469.646 71.3393
469.692 47.9551
469.722 36.9243
469.752 29.2440
469.811 20.1201
469.871 15.3559
469.931 12.6227
469.990 10.9175
470.050 9.78609
470.169 8.42380
470.289 7.66053
470.408 7.18734
470.647 6.64796
470.885 6.35827
471.124 6.18148
471.601 5.98161
472.079 5.87866
472.556 5.83726
472.795 5.85163
472.914 5.87888
473.034 5.93420
473.153 6.04863
473.213 6.15102
473.272 6.31191
473.332 6.58135
473.392 7.06836
473.451 8.04348
473.481 8.89358
473.511 10.1447
473.555 12.8219
473.600 14.6054
473.645 12.8156
473.689 10.1318
473.719 8.87269
473.749 8.01913
473.809 7.03602
473.868 6.53973
473.928 6.26156
473.988 6.09142
474.047 5.97992
474.167 5.84680
474.286 5.77223
474.406 5.72521
474.644 5.66922
475.122 5.61458
475.599 5.59039
476.077 5.59518
476.316 5.62043
476.555 5.68315
476.793 5.83893
476.913 6.00000
477.032 6.28847
477.152 6.85825
477.211 7.36498
477.271 8.16703
477.331 9.52168
477.390 12.0085
477.450 17.0592
477.480 21.5159
477.510 28.1452
477.555 42.9141
477.600 53.7766
477.645 45.3611
477.690 31.2027
477.730 22.6451
477.770 17.4248
477.810 14.1916
477.850 12.1023
477.930 9.69404
478.010 8.42657
478.090 7.67792
478.170 7.19900
478.329 6.63894
478.489 6.33277
478.649 6.14460
478.968 5.93008
479.287 5.81302
479.607 5.73951
480.246 5.65115
480.884 5.59807
481.523 5.56103
482.801 5.50943
484.078 5.47277
485.356 5.44647
485.994 5.43998
486.633 5.44845
486.952 5.47123
487.112 5.49590
487.272 5.54069
487.432 5.63035
487.511 5.71147
487.591 5.84259
487.671 6.07307
487.751 6.52558
487.791 6.92886
487.831 7.56569
487.871 8.61753
487.911 10.3830
487.955 13.3905
488.000 15.3901
488.045 13.3820
488.090 10.3800
488.133 8.50334
488.176 7.43301
488.219 6.80427
488.262 6.41614
488.348 5.98874
488.435 5.77452
488.521 5.65251
488.607 5.57654
488.780 5.49028
488.952 5.44416
489.125 5.41593
489.470 5.38286
490.160 5.34915
490.850 5.32875
491.540 5.31451
492.230 5.31039
492.576 5.32016
492.921 5.36007
493.093 5.41602
493.180 5.46808
493.266 5.55382
493.352 5.70761
493.438 6.01765
493.481 6.30201
493.525 6.76202
493.568 7.54872
493.611 8.92702
493.655 11.1384
493.700 12.6082
493.745 11.1305
493.789 8.92196
493.823 7.77805
493.857 7.03991
493.891 6.56166
493.924 6.24319
493.992 5.86489
494.059 5.66104
494.127 5.53971
494.194 5.46177
494.329 5.37064
494.464 5.32066
494.599 5.28959
494.869 5.25284
495.409 5.21599
495.949 5.19723
496.489 5.19649
496.759 5.21165
497.029 5.25341
497.299 5.36278
497.434 5.47899
497.569 5.69107
497.704 6.11922
497.772 6.50756
497.839 7.13398
497.907 8.21982
497.974 10.2907
498.008 12.0701
498.042 14.7553
498.076 18.9520
498.109 25.5031
498.155 38.7096
498.200 48.3476
498.245 40.7182
498.291 28.0122
498.344 18.5240
498.398 13.6115
498.451 10.9313
498.504 9.34740
498.558 8.34094
498.611 7.66584
498.718 6.84239
498.825 6.37605
498.932 6.08510
499.145 5.75176
499.359 5.57196
499.573 5.46246
500.000 5.34242
500.453 5.29275
500.905 5.32265
501.132 5.40212
501.358 5.61379
501.471 5.85749
501.584 6.37203
501.641 6.87321
501.698 7.75028
501.754 9.43772
501.811 12.9099
501.855 17.4903
501.900 20.5526
501.945 17.5338
501.989 12.9968
502.040 9.84365
502.090 8.22079
502.140 7.35394
502.190 6.86769
502.291 6.42380
502.391 6.30886
502.592 6.55293
502.793 7.37412
502.994 9.28710
503.095 11.1408
503.195 14.2824
503.296 20.0927
503.346 24.9632
503.396 32.2350
503.447 43.6615
503.497 62.5522
503.547 95.6527
503.572 121.190
503.597 155.337
503.649 253.468
503.700 325.493
503.752 269.606
503.803 175.762
503.839 128.592
503.875 96.5915
503.911 74.9446
503.947 60.0083
504.019 41.5579
504.091 31.1884
504.164 24.8241
504.236 20.6427
504.380 15.6532
504.524 12.8863
504.668 11.1853
504.957 9.27636
505.245 8.30002
505.534 7.81820
505.678 7.76545
505.822 7.97263
505.894 8.30509
505.966 9.01730
506.002 9.66185
506.038 10.6641
506.074 12.2754
506.110 14.8581
506.155 19.6396
506.200 22.8168
506.245 19.5707
506.290 14.7189
506.342 11.2149
506.395 9.42163
506.447 8.44584
506.500 7.86640
506.605 7.23923
506.710 6.91551
506.920 6.58271
507.130 6.40314
507.550 6.19266
507.970 6.06008
508.810 5.88776
509.650 5.77457
510.491 5.69216
511.331 5.62988
511.751 5.60642
512.171 5.59339
512.381 5.59737
512.591 5.62456
512.696 5.66286
512.801 5.74967
512.853 5.83594
512.906 5.98646
512.958 6.27015
513.011 6.83256
513.056 7.61482
513.100 8.13461
513.145 7.61024
513.189 6.82695
513.222 6.42615
513.255 6.16618
513.322 5.88203
513.388 5.74594
513.454 5.67246
513.587 5.60140
513.719 5.57162
513.984 5.55991
514.249 5.59384
514.514 5.70871
514.647 5.83607
514.779 6.07154
514.912 6.55084
514.978 6.98694
515.045 7.68980
515.111 8.90932
515.177 11.2256
515.210 13.2118
515.243 16.1981
515.276 20.8256
515.310 28.0252
515.355 42.7986
515.400 53.6523
515.445 45.2575
515.491 31.1398
515.529 22.7977
515.568 17.6272
515.607 14.3822
515.645 12.2644
515.723 9.79921
515.800 8.48985
515.878 7.71187
515.955 7.21216
516.110 6.62535
516.265 6.30311
516.420 6.10431
516.730 5.87646
517.039 5.75089
517.349 5.67106
517.969 5.57278
518.588 5.51097
519.208 5.46524
520.447 5.39451
521.686 5.33656
522.306 5.31373
522.925 5.30418
523.235 5.31204
523.545 5.33908
523.855 5.40574
524.164 5.56229
524.319 5.71182
524.474 5.95532
524.629 6.37209
524.784 7.13832
524.939 8.70923
525.016 10.1567
525.094 12.5224
525.171 16.7077
525.248 24.8973
525.287 32.1063
525.326 43.2888
525.365 61.2609
525.403 90.4324
525.427 116.151
525.452 146.232
525.500 187.438
525.548 155.824
525.597 102.421
525.631 75.2452
525.666 56.9221
525.700 44.5949
525.735 36.1060
525.804 25.6880
525.873 19.8657
525.942 16.2956
526.011 13.9567
526.149 11.1654
526.287 9.61669
526.424 8.66234
526.562 8.02768
526.700 7.58140
526.976 7.00487
527.252 6.65576
527.528 6.42561
527.804 6.26506
528.355 6.06382
528.907 5.96772
529.183 5.96723
529.321 5.99151
529.459 6.04961
529.597 6.17935
529.666 6.30016
529.735 6.49550
529.804 6.83370
529.872 7.47395
529.907 8.02160
529.941 8.84904
529.976 10.1374
530.010 12.1446
530.055 15.9929
530.100 18.5511
530.145 15.9759
530.190 12.1280
530.224 10.1091
530.259 8.81827
530.293 7.98562
530.327 7.43151
530.396 6.77636
530.465 6.42371
530.534 6.21323
530.603 6.07776
530.740 5.91810
530.878 5.82923
531.016 5.77313
531.291 5.70538
531.566 5.66427
531.842 5.63517
532.392 5.59382
533.493 5.53904
534.594 5.49986
536.797 5.44125
538.999 5.39446
541.201 5.35159
542.302 5.33006
543.404 5.30797
544.505 5.28632
545.055 5.27772
545.606 5.27535
546.156 5.29377
546.432 5.32557
546.707 5.39795
546.982 5.57555
547.120 5.76125
547.258 6.09891
547.395 6.78220
547.464 7.40345
547.533 8.40854
547.602 10.1572
547.670 13.5071
547.705 16.3913
547.739 20.7704
547.774 27.6191
547.808 38.3888
547.854 60.1027
547.900 76.1460
547.946 63.8642
547.992 43.0907
548.039 29.0244
548.086 21.0707
548.134 16.4453
548.181 13.5941
548.228 11.7243
548.275 10.4420
548.369 8.84242
548.464 7.91943
548.558 7.33799
548.747 6.66904
548.935 6.31029
549.124 6.09531
549.501 5.86685
549.879 5.77861
550.067 5.77744
550.256 5.81843
550.445 5.94174
550.539 6.06788
550.633 6.28410
550.728 6.68395
550.775 7.01804
550.822 7.51637
550.869 8.30098
550.916 9.60681
550.963 11.9344
551.010 16.2113
551.055 22.6452
551.100 26.9333
551.145 22.6386
551.190 16.1970
551.223 12.9432
551.255 10.8147
551.288 9.41930
551.321 8.47920
551.387 7.35472
551.453 6.74396
551.519 6.37888
551.584 6.14399
551.716 5.86983
551.848 5.72089
551.979 5.62991
552.242 5.52652
552.506 5.46957
552.769 5.43300
553.295 5.38687
553.821 5.35697
554.348 5.33455
555.400 5.30066
556.453 5.27484
557.506 5.25689
558.032 5.25488
558.558 5.26991
558.821 5.29845
558.953 5.32752
559.084 5.37849
559.216 5.47710
559.282 5.56368
559.348 5.69993
559.413 5.93008
559.479 6.35691
559.512 6.71523
559.545 7.24848
559.578 8.06387
559.611 9.30855
559.655 11.7767
559.700 13.4169
559.745 11.7682
559.789 9.30411
559.832 7.77728
559.874 6.90088
559.917 6.38440
559.959 6.06352
560.045 5.70918
560.130 5.53129
560.215 5.43007
560.300 5.36733
560.470 5.29693
560.810 5.24088
561.150 5.22618
561.490 5.23941
561.660 5.26278
561.830 5.30960
562.000 5.40810
562.086 5.49929
562.171 5.64883
562.256 5.91579
562.341 6.45100
562.383 6.93792
562.426 7.72296
562.468 9.05612
562.511 11.3714
562.555 15.1219
562.600 17.6222
562.645 15.1218
562.689 11.3689
562.743 8.63788
562.796 7.26375
562.849 6.53236
562.903 6.10894
562.956 5.84503
563.009 5.67034
563.116 5.46122
563.222 5.34528
563.329 5.27381
563.542 5.19228
563.755 5.14722
563.969 5.11797
564.395 5.07950
565.248 5.02831
566.100 4.98484
566.953 4.94280
567.805 4.90706
568.232 4.89978
568.658 4.91881
568.871 4.95747
569.084 5.05958
569.191 5.17695
569.298 5.42321
569.351 5.66001
569.404 6.06770
569.458 6.83162
569.511 8.34373
569.555 10.4241
569.600 11.8103
569.645 10.4359
569.689 8.37720
569.722 7.33672
569.755 6.66254
569.821 5.93292
569.886 5.59629
569.952 5.42867
570.084 5.30754
570.215 5.31659
570.478 5.55857
570.741 6.17160
571.003 7.61746
571.135 9.07100
571.266 11.6296
571.398 16.5924
571.463 20.9385
571.529 27.7195
571.595 38.9542
571.660 59.0176
571.693 75.1737
571.726 98.1124
571.759 131.270
571.792 179.024
571.846 293.460
571.900 378.257
571.954 313.957
572.008 204.654
572.072 123.200
572.135 80.5009
572.198 57.0356
572.262 43.1116
572.325 34.2249
572.388 28.2325
572.515 20.9053
572.641 16.7434
572.768 14.1429
573.021 11.1641
573.274 9.56312
573.527 8.58917
573.780 7.94446
574.033 7.49072
574.539 6.90039
575.046 6.53636
575.552 6.29028
576.058 6.11263
577.070 5.87324
577.577 5.79181
578.083 5.73550
578.589 5.72474
578.842 5.75962
579.095 5.86186
579.348 6.13288
579.475 6.42073
579.601 6.94335
579.728 7.99046
579.791 8.93126
579.855 10.4300
579.918 12.9910
579.981 17.7477
580.013 21.7386
580.044 27.6146
580.076 36.4887
580.108 49.9005
580.154 79.0114
580.200 100.468
580.246 83.9976
580.293 56.2108
580.327 41.6500
580.361 31.9883
580.395 25.5431
580.429 21.1577
580.497 15.8154
580.565 12.8516
580.633 11.0463
580.701 9.86519
580.837 8.45896
580.974 7.67830
581.110 7.19491
581.382 6.64234
581.654 6.34168
581.927 6.15462
582.471 5.93377
583.016 5.80513
583.561 5.71813
584.650 5.60139
585.740 5.52113
586.284 5.49049
586.829 5.47001
587.374 5.47604
587.646 5.50628
587.919 5.58484
588.191 5.78833
588.327 6.00497
588.463 6.40165
588.599 7.20733
588.668 7.94113
588.736 9.12822
588.804 11.1914
588.872 15.1347
588.906 18.5262
588.940 23.6452
588.974 31.6148
589.008 44.0817
589.054 69.5283
589.100 88.3249
589.146 73.9832
589.192 49.7201
589.243 32.4338
589.293 23.0224
589.344 17.7036
589.394 14.4883
589.445 12.4083
589.495 10.9949
589.596 9.24726
589.697 8.24578
589.798 7.61654
590.000 6.89166
590.201 6.49908
590.403 6.25871
590.807 5.98439
591.211 5.83397
591.614 5.73891
592.422 5.62367
593.229 5.55371
594.036 5.50446
595.651 5.43501
597.266 5.38463
598.880 5.34782
599.688 5.33936
600.092 5.34195
600.495 5.35542
600.899 5.39510
601.101 5.43817
601.303 5.51722
601.504 5.67876
601.605 5.82816
601.706 6.07612
601.807 6.52819
601.858 6.90628
601.908 7.47348
601.959 8.37603
602.009 9.90492
602.059 12.7042
602.110 18.0418
602.155 25.7290
602.200 30.8565
602.245 25.7288
602.290 18.0397
602.320 14.4785
602.350 12.0461
602.409 9.24109
602.469 7.81821
602.528 7.02284
602.588 6.53771
602.648 6.22272
602.767 5.85252
602.886 5.65146
603.005 5.52988
603.243 5.39495
603.481 5.32368
603.719 5.27975
604.195 5.22653
605.148 5.16556
606.101 5.12000
607.053 5.07758
608.006 5.03908
608.482 5.02732
608.958 5.03885
609.196 5.07470
609.435 5.18423
609.554 5.32153
609.673 5.62862
609.732 5.93991
609.792 6.50013
609.851 7.61550
609.881 8.58884
609.911 10.0143
609.955 13.0788
610.000 15.1146
610.045 13.0668
610.089 10.0046
610.120 8.54022
610.150 7.55639
610.211 6.43707
610.272 5.87811
610.333 5.56725
610.455 5.25534
610.577 5.10988
610.821 4.98092
611.065 4.92724
611.554 4.90177
612.042 4.97302
612.286 5.07579
612.530 5.27005
612.774 5.64130
613.018 6.39103
613.262 8.07481
613.384 9.73801
613.506 12.6337
613.628 18.1794
613.689 22.9817
613.750 30.3968
613.811 42.5151
613.872 63.7503
613.902 80.5158
613.933 104.016
613.963 137.375
613.994 184.497
614.047 302.696
614.100 390.039
614.127 373.517
614.153 323.407
614.206 210.672
614.248 148.899
614.289 108.770
614.331 82.6359
614.372 65.0926
614.455 44.1134
614.537 32.6704
614.620 25.7620
614.703 21.2753
614.869 15.9747
615.034 13.0529
615.200 11.2567
615.531 9.22167
615.862 8.13117
616.193 7.46510
616.524 7.02100
616.855 6.70755
617.517 6.31762
617.848 6.22117
618.179 6.22157
618.510 6.43696
618.676 6.73884
618.841 7.35146
619.007 8.69160
619.090 9.97050
619.172 12.1109
619.255 15.9941
619.338 23.8296
619.379 30.9302
619.421 42.2357
619.462 61.0089
619.503 92.5712
619.528 119.134
619.552 150.315
619.600 193.520
619.648 161.772
619.697 107.039
619.744 71.1330
619.791 50.1549
619.838 37.6372
619.885 29.7606
619.932 24.5345
619.979 20.9037
620.074 16.3257
620.168 13.6505
620.262 11.9441
620.450 9.95176
620.639 8.85897
620.827 8.18347
621.204 7.40664
621.581 6.97800
621.957 6.70727
622.711 6.38251
623.464 6.19164
624.218 6.06367
625.725 5.89857
627.232 5.79305
628.739 5.71725
631.753 5.61016
634.767 5.53087
637.781 5.45994
639.288 5.42282
640.041 5.40313
640.795 5.38319
641.548 5.36650
641.925 5.36387
642.302 5.37391
642.679 5.42127
642.867 5.48243
643.055 5.60681
643.244 5.88541
643.338 6.15856
643.432 6.62925
643.526 7.51607
643.573 8.27097
643.621 9.41663
643.668 11.2451
643.715 14.3436
643.762 19.9414
643.809 30.4000
643.854 47.0068
643.900 59.4143
643.946 50.2072
643.991 34.3987
644.038 23.5816
644.086 17.4787
644.133 13.9348
644.180 11.7515
644.227 10.3195
644.274 9.33673
644.369 8.10898
644.463 7.39903
644.557 6.94958
644.746 6.42932
644.934 6.14748
645.123 5.97645
645.500 5.79237
645.877 5.72758
646.066 5.74112
646.255 5.81075
646.443 6.00482
646.537 6.20670
646.632 6.56164
646.726 7.23756
646.773 7.81602
646.820 8.69346
646.868 10.0983
646.915 12.4751
646.962 16.7806
647.009 24.8338
647.055 37.5893
647.100 47.0479
647.146 39.8984
647.191 27.7504
647.221 22.0376
647.250 18.0288
647.309 13.2559
647.367 10.7455
647.426 9.29489
647.485 8.38707
647.543 7.78175
647.661 7.04753
647.778 6.63229
647.896 6.37226
648.131 6.07119
648.365 5.90514
648.600 5.80066
649.070 5.67552
649.540 5.60114
650.009 5.54975
650.949 5.47865
651.888 5.42962
652.358 5.41424
652.827 5.41383
653.062 5.42631
653.297 5.45689
653.532 5.52330
653.767 5.66793
654.002 6.01006
654.119 6.35820
654.236 6.97717
654.354 8.19076
654.413 9.26272
654.471 10.9475
654.530 13.7639
654.589 18.8537
654.647 28.9383
654.677 37.6588
654.706 50.3408
654.753 80.0541
654.800 102.199
654.847 85.6637
654.894 57.3521
654.931 41.6138
654.968 31.4691
655.006 24.8735
655.043 20.4724
655.117 15.2169
655.191 12.3574
655.265 10.6324
655.340 9.51358
655.488 8.18911
655.637 7.45796
655.785 7.00766
655.934 6.70766
656.082 6.49597
656.379 6.22057
656.676 6.05159
656.973 5.93822
657.270 5.85719
657.865 5.74899
658.459 5.67957
659.647 5.59368
660.835 5.54010
662.023 5.50122
664.400 5.44267
666.776 5.39230
667.964 5.36626
669.152 5.33792
670.340 5.30710
670.935 5.29263
671.529 5.28433
671.826 5.28708
672.123 5.30101
672.420 5.33875
672.717 5.43170
672.865 5.52252
673.014 5.67214
673.162 5.93078
673.311 6.41045
673.459 7.39901
673.534 8.31206
673.608 9.80463
673.682 12.4419
673.756 17.5810
673.794 22.0954
673.831 29.0418
673.868 40.1170
673.905 57.9237
673.929 73.9805
673.953 92.8085
674.000 118.786
674.048 99.4298
674.095 66.2962
674.130 48.7734
674.166 37.1560
674.201 29.4325
674.236 24.1625
674.306 17.7533
674.377 14.1959
674.447 12.0254
674.518 10.6071
674.659 8.91805
674.799 7.98051
674.940 7.40176
675.081 7.01574
675.222 6.74378
675.504 6.39090
675.785 6.17562
676.067 6.03242
676.349 5.93107
676.912 5.79822
677.476 5.71571
678.039 5.66000
678.602 5.62045
679.729 5.57182
680.293 5.56019
680.856 5.55978
681.419 5.58125
681.701 5.61022
681.983 5.66733
682.264 5.79013
682.405 5.90803
682.546 6.11026
682.687 6.49738
682.757 6.83676
682.828 7.37284
682.898 8.28729
682.969 10.0065
683.004 11.4734
683.039 13.6920
683.074 17.1562
683.110 22.5951
683.155 32.9012
683.200 39.7566
683.245 32.8787
683.291 22.5962
683.334 16.1466
683.378 12.4794
683.422 10.3349
683.466 9.01028
683.510 8.14529
683.554 7.55618
683.641 6.83078
683.729 6.42001
683.816 6.16634
683.992 5.88208
684.167 5.73456
684.342 5.64779
684.693 5.55374
685.044 5.50509
685.394 5.47551
686.095 5.44034
686.796 5.41851
687.498 5.40212
688.900 5.37571
690.302 5.35176
691.003 5.33990
691.705 5.32872
692.406 5.32185
692.756 5.32444
693.107 5.33947
693.457 5.39005
693.633 5.45040
693.808 5.56914
693.983 5.82838
694.071 6.07865
694.159 6.50402
694.246 7.29401
694.290 7.95632
694.334 8.94809
694.378 10.5037
694.422 13.0784
694.465 17.5825
694.509 25.6829
694.555 39.2113
694.600 49.3068
694.646 41.8315
694.691 28.9966
694.725 22.1937
694.758 17.6853
694.792 14.6814
694.826 12.6392
694.893 10.1527
694.961 8.77316
695.028 7.93251
695.096 7.38226
695.231 6.72679
695.366 6.36298
695.501 6.13809
695.771 5.88245
696.041 5.74543
696.311 5.66239
696.851 5.57111
697.391 5.53085
697.931 5.53471
698.201 5.57182
698.336 5.61309
698.470 5.68748
698.605 5.83363
698.673 5.96292
698.740 6.16743
698.808 6.51478
698.875 7.16365
698.909 7.71321
698.943 8.53404
698.977 9.79884
699.010 11.7540
699.055 15.5627
699.100 18.0953
699.145 15.5521
699.190 11.7501
699.233 9.37740
699.276 8.02249
699.319 7.22579
699.362 6.73363
699.449 6.19133
699.535 5.91943
699.621 5.76461
699.707 5.66838
699.880 5.55930
700.052 5.50151
700.225 5.46664
700.570 5.42723
701.260 5.39203
701.950 5.37749
702.640 5.37754
702.985 5.38686
703.330 5.40999
703.675 5.46561
703.848 5.52175
704.020 5.62116
704.193 5.81786
704.279 5.99571
704.365 6.28447
704.451 6.79698
704.538 7.82200
704.581 8.75757
704.624 10.2659
704.667 12.8352
704.710 17.3172
704.755 24.5407
704.800 29.3412
704.845 24.5181
704.890 17.3092
704.934 12.7487
704.978 10.1717
705.022 8.66933
705.066 7.74728
705.154 6.73841
705.242 6.23675
705.330 5.95341
705.418 5.77895
705.594 5.58492
705.771 5.48679
705.947 5.43303
706.299 5.39496
706.651 5.43761
706.827 5.51313
707.003 5.67184
707.179 6.02646
707.268 6.37074
707.356 6.95626
707.444 8.04239
707.532 10.3095
707.576 12.4400
707.620 15.9475
707.664 22.0530
707.708 32.9662
707.754 51.3371
707.800 65.0390
707.846 54.8656
707.892 37.4265
707.939 25.7702
707.985 19.0685
708.031 15.1198
708.077 12.6619
708.123 11.0380
708.169 9.91768
708.262 8.51070
708.354 7.69244
708.446 7.17349
708.631 6.57084
708.816 6.24257
709.000 6.04133
709.185 5.90725
709.370 5.81250
709.739 5.68859
710.108 5.61182
710.847 5.52223
711.585 5.47142
712.324 5.43837
713.801 5.39753
715.278 5.37462
716.017 5.36874
716.756 5.36849
717.494 5.38004
717.863 5.39598
718.233 5.42793
718.602 5.49802
718.787 5.56658
718.971 5.68652
719.156 5.92308
719.248 6.13721
719.341 6.48708
719.433 7.11316
719.479 7.62800
719.525 8.38803
719.571 9.57242
719.618 11.5208
719.664 14.9443
719.710 21.1261
719.755 30.6158
719.800 36.9413
719.845 30.6109
719.890 21.1194
719.922 16.4357
719.955 13.3365
719.987 11.2845
720.019 9.89147
720.083 8.21342
720.148 7.29720
720.212 6.74899
720.277 6.39708
720.405 5.98978
720.534 5.77240
720.663 5.64324
720.920 5.50377
721.178 5.43409
721.435 5.39456
721.950 5.35557
722.465 5.34435
722.980 5.36302
723.238 5.40044
723.495 5.50301
723.624 5.62746
723.689 5.73590
723.753 5.90527
723.817 6.18974
723.882 6.71255
723.914 7.14766
723.946 7.78997
723.978 8.76232
724.010 10.2298
724.055 13.2014
724.100 15.1768
724.145 13.1941
724.190 10.2290
724.217 8.93655
724.245 8.02823
724.300 6.94241
724.355 6.37284
724.410 6.04661
724.465 5.84504
724.520 5.71269
724.630 5.55612
724.740 5.47112
724.850 5.42025
725.070 5.36599
725.510 5.32986
725.950 5.33352
726.390 5.37585
726.610 5.42529
726.830 5.51716
727.050 5.70611
727.160 5.88207
727.270 6.17635
727.380 6.71952
727.435 7.17922
727.490 7.87956
727.545 9.01265
727.600 10.9886
727.655 14.7459
727.682 17.8806
727.710 22.3306
727.755 32.6236
727.800 39.4691
727.845 32.6079
727.890 22.3398
727.932 16.1397
727.973 12.5127
728.015 10.3427
728.056 8.97980
728.140 7.45950
728.223 6.68964
728.306 6.24945
728.389 5.97576
728.555 5.66698
728.721 5.50522
728.887 5.40931
729.219 5.30378
729.551 5.24766
729.883 5.21247
730.547 5.17091
730.880 5.16055
731.212 5.15999
731.544 5.17817
731.876 5.23937
732.042 5.30493
732.208 5.41772
732.374 5.61940
732.540 6.00435
732.706 6.82178
732.789 7.59319
732.872 8.88132
732.955 11.2170
733.038 15.9401
733.080 20.2288
733.121 27.0804
733.163 38.5132
733.204 57.9127
733.228 74.0809
733.252 92.9700
733.300 119.148
733.348 99.8046
733.396 66.5521
733.433 48.1201
733.471 36.1879
733.508 28.4023
733.546 23.1922
733.621 16.9517
733.696 13.5458
733.771 11.4868
733.846 10.1491
733.996 8.56304
734.146 7.68663
734.296 7.14603
734.447 6.78584
734.597 6.53180
734.897 6.20182
735.197 6.00010
735.497 5.86552
735.798 5.76994
736.398 5.64390
736.998 5.56474
737.599 5.51030
738.199 5.47040
739.400 5.41517
740.601 5.37794
743.003 5.32869
745.405 5.29553
747.807 5.27179
749.007 5.26488
750.208 5.26864
750.809 5.28414
751.109 5.30204
751.409 5.33606
751.710 5.40828
751.860 5.47749
752.010 5.59665
752.160 5.82622
752.235 6.02945
752.310 6.35303
752.385 6.91226
752.460 7.98571
752.498 8.92460
752.535 10.3726
752.573 12.6978
752.610 16.4711
752.655 23.2363
752.700 27.7360
752.745 23.2246
752.790 16.4758
752.818 13.4686
752.846 11.3819
752.903 8.91335
752.959 7.63234
753.016 6.90373
753.072 6.45560
753.128 6.16222
753.241 5.81583
753.354 5.62746
753.467 5.51406
753.693 5.38980
753.918 5.32631
754.144 5.28913
754.595 5.24845
755.498 5.21290
756.400 5.19553
757.303 5.18558
758.205 5.18557
758.657 5.19653
759.108 5.23583
759.334 5.29043
759.446 5.34196
759.559 5.42887
759.672 5.59065
759.728 5.72850
759.785 5.93976
759.841 6.28421
759.898 6.89138
759.954 8.06452
759.982 9.05817
760.010 10.4860
760.055 13.6949
760.100 15.8341
760.145 13.6947
760.190 10.4849
760.243 8.14481
760.297 6.97069
760.350 6.34725
760.404 5.98763
760.458 5.76349
760.511 5.61575
760.618 5.43943
760.725 5.34248
760.832 5.28339
761.047 5.21746
761.475 5.16131
761.903 5.13590
762.760 5.10805
763.617 5.08824
765.331 5.05112
767.045 5.00872
768.758 4.95550
769.615 4.92365
770.472 4.88975
770.900 4.87433
771.329 4.86400
771.757 4.86754
772.186 4.90873
772.400 4.96243
772.614 5.06300
772.828 5.25491
773.043 5.64232
773.257 6.50962
773.364 7.36269
773.471 8.83890
773.578 11.6375
773.632 14.0369
773.685 17.6924
773.739 23.5822
773.792 33.6464
773.846 52.1263
773.873 66.9668
773.899 87.3368
773.925 112.554
773.950 142.147
774.000 183.075
774.050 152.772
774.101 100.756
774.137 73.8275
774.173 55.7709
774.210 43.6195
774.246 35.2897
774.319 25.0642
774.391 19.3519
774.464 15.8474
774.537 13.5460
774.682 10.7975
774.828 9.26650
774.973 8.31897
775.263 7.23872
775.554 6.65654
775.845 6.29945
776.136 6.06021
776.426 5.88932
777.008 5.66082
777.589 5.51302
778.751 5.32404
779.914 5.19618
780.496 5.14488
781.077 5.10615
781.658 5.10342
781.949 5.14169
782.240 5.25323
782.530 5.55918
782.676 5.89371
782.821 6.51657
782.966 7.79975
783.039 8.97929
783.112 10.8963
783.184 14.2529
783.257 20.6984
783.293 26.2745
783.330 34.7251
783.366 47.9400
783.402 68.7155
783.427 88.2417
783.451 111.173
783.500 142.983
783.549 119.674
783.598 79.4507
783.644 53.6927
783.690 38.4157
783.736 29.1692
783.782 23.2909
783.875 16.6130
783.967 13.1375
784.059 11.0956
784.151 9.79166
784.336 8.26667
784.520 7.43073
784.705 6.91496
785.074 6.32339
785.443 5.99764
785.812 5.79115
786.550 5.54042
787.288 5.39817
787.657 5.36343
788.026 5.37614
788.395 5.51119
788.579 5.69699
788.764 6.07936
788.948 6.93463
789.041 7.76819
789.133 9.18985
789.225 11.8317
789.317 17.3456
789.363 22.5024
789.409 30.9787
789.456 45.6548
789.502 71.6994
789.526 92.1572
789.551 116.217
789.600 149.880
789.649 125.810
789.698 83.6901
789.740 58.9187
789.781 43.3264
789.823 33.4424
789.864 26.9398
789.947 19.3098
790.030 15.2141
790.113 12.7610
790.196 11.1734
790.362 9.29865
790.528 8.26133
790.694 7.61928
791.026 6.88273
791.358 6.48021
791.690 6.22887
792.354 5.93295
793.017 5.76776
793.349 5.71667
793.681 5.69181
794.013 5.72044
794.179 5.78212
794.345 5.91961
794.511 6.23632
794.594 6.54636
794.677 7.07383
794.760 8.04776
794.843 10.0569
794.884 11.9158
794.926 14.9357
794.967 20.0833
795.009 29.0143
795.054 44.6678
795.100 56.4025
795.146 47.8342
795.192 33.0129
795.233 23.7780
795.275 18.1811
795.316 14.7418
795.358 12.5351
795.441 9.99777
795.524 8.66073
795.607 7.86992
795.690 7.36122
795.856 6.76217
796.023 6.43029
796.189 6.22355
796.521 5.98283
796.854 5.84752
797.186 5.76038
797.851 5.65336
798.516 5.59080
799.181 5.55844
799.513 5.56021
799.846 5.59847
800.012 5.65899
800.178 5.81164
800.261 5.98203
800.344 6.32326
800.386 6.63252
800.427 7.12652
800.469 7.95907
800.510 9.38282
800.555 11.7356
800.600 13.3036
800.645 11.7323
800.690 9.37588
800.736 7.82999
800.782 6.97869
800.828 6.49397
800.874 6.19992
800.967 5.88199
801.059 5.72445
801.244 5.57872
801.429 5.51370
801.798 5.45409
802.167 5.42425
802.906 5.38893
803.645 5.36433
805.123 5.32584
806.600 5.29370
808.078 5.26505
809.556 5.23975
810.294 5.22968
811.033 5.22547
811.403 5.23045
811.772 5.25302
811.957 5.28517
812.141 5.36513
812.234 5.45542
812.326 5.64058
812.372 5.81348
812.419 6.09990
812.465 6.60508
812.511 7.52331
812.555 8.92119
812.600 9.85210
812.645 8.91829
812.689 7.51927
812.735 6.60655
812.781 6.10347
812.826 5.81589
812.872 5.64187
812.963 5.45411
813.054 5.36214
813.237 5.28004
813.419 5.24743
813.785 5.23004
814.150 5.24529
814.515 5.30317
814.697 5.36585
814.880 5.47939
815.062 5.70775
815.154 5.91624
815.245 6.25752
815.336 6.86955
815.382 7.37139
815.427 8.11272
815.473 9.26572
815.519 11.1563
815.564 14.4525
815.610 20.3739
815.655 29.5569
815.700 35.6634
815.745 29.5403
815.790 20.3780
815.818 16.4057
815.845 13.6066
815.900 10.2537
815.955 8.48450
816.010 7.46997
816.065 6.84032
816.120 6.42659
816.230 5.93457
816.340 5.66514
816.450 5.50162
816.670 5.32067
816.889 5.22715
817.109 5.17257
817.549 5.12069
817.988 5.13016
818.208 5.17613
818.428 5.28843
818.648 5.56501
818.758 5.84970
818.868 6.35686
818.977 7.34857
819.032 8.22089
819.087 9.58036
819.142 11.8345
819.197 15.8378
819.252 23.5954
819.307 39.4719
819.330 50.0700
819.354 62.4673
819.400 79.7313
819.447 67.1679
819.493 45.4102
819.533 32.4424
819.573 24.3604
819.613 19.2791
819.653 15.9571
819.732 12.0837
819.812 10.0153
819.892 8.78342
819.972 7.98846
820.131 7.05245
820.291 6.53605
820.450 6.21706
820.769 5.85170
821.089 5.65203
821.408 5.52708
822.046 5.37806
822.684 5.28940
823.322 5.22745
824.599 5.13771
825.875 5.06487
826.514 5.03081
827.152 4.99999
827.790 4.98313
828.109 4.99258
828.428 5.03758
828.748 5.18119
828.907 5.34810
829.067 5.66987
829.226 6.35609
829.306 7.00410
829.386 8.08240
829.466 10.0280
829.545 13.9338
829.585 17.4480
829.625 23.0085
829.665 32.1671
829.705 47.4147
829.729 60.4588
829.753 75.7842
829.800 97.0815
829.848 81.5796
829.895 54.7347
829.948 35.3882
830.000 24.8650
830.052 18.9086
830.105 15.2955
830.157 12.9590
830.210 11.3652
830.314 9.39107
830.419 8.25597
830.524 7.53887
830.734 6.70774
830.943 6.25356
831.153 5.97274
831.572 5.64717
831.991 5.46341
832.411 5.34291
833.249 5.18674
834.088 5.08659
834.507 5.05712
834.926 5.05878
835.136 5.08535
835.345 5.14802
835.555 5.28127
835.764 5.56658
835.974 6.22845
836.079 6.89090
836.184 8.04906
836.288 10.2656
836.341 12.1767
836.393 15.1087
836.446 19.8511
836.498 28.0268
836.550 43.1423
836.577 55.3685
836.603 72.3183
836.627 93.0171
836.651 117.354
836.700 151.340
836.749 126.847
836.797 84.1804
836.830 63.4810
836.862 49.0931
836.927 32.1462
836.992 23.3455
837.056 18.3056
837.121 15.1609
837.186 13.0713
837.315 10.5471
837.445 9.12517
837.575 8.23848
837.834 7.21962
838.093 6.66637
838.352 6.32489
838.611 6.09492
838.870 5.92997
839.388 5.70849
839.906 5.56506
840.943 5.38410
841.979 5.26638
843.015 5.17580
845.088 5.02358
847.161 4.87054
848.197 4.78482
849.233 4.69241
849.752 4.64708
850.270 4.60939
850.788 4.59565
851.306 4.65146
851.565 4.74253
851.824 4.92485
852.083 5.28732
852.343 6.03963
852.602 7.75839
852.731 9.46914
852.861 12.4486
852.990 18.1401
853.055 23.0386
853.120 30.5284
853.185 42.6343
853.249 63.4065
853.282 79.5147
853.314 101.705
853.347 132.571
853.379 175.085
853.439 289.129
853.500 375.220
853.561 313.313
853.621 205.320
853.679 135.614
853.737 94.3362
853.794 69.4422
853.852 53.6783
853.967 35.7974
854.083 26.4917
854.198 21.0331
854.313 17.5443
854.544 13.4683
854.774 11.2362
855.005 9.86169
855.236 8.94347
855.466 8.29231
855.927 7.43659
856.389 6.90108
856.850 6.53270
857.311 6.26098
858.233 5.88090
858.695 5.74702
859.156 5.65746
859.617 5.66468
859.848 5.76113
860.078 6.01667
860.309 6.67087
860.424 7.35381
860.539 8.57690
860.655 10.9734
860.712 13.0800
860.770 16.3576
860.828 21.7738
860.885 31.3420
860.943 49.7231
860.972 65.0671
861.001 86.8913
861.025 112.034
861.050 141.616
861.100 182.912
861.150 153.244
861.200 101.555
861.240 71.8811
861.281 52.9815
861.322 40.8235
861.362 32.7702
861.443 23.2192
861.525 18.0433
861.606 14.9314
861.687 12.9106
861.850 10.5186
862.012 9.19701
862.175 8.38793
862.500 7.51670
862.825 7.22795
862.988 7.31460
863.150 7.68246
863.313 8.65996
863.394 9.64595
863.475 11.3269
863.557 14.3993
863.638 20.5925
863.679 26.1613
863.719 34.9090
863.760 49.1981
863.800 72.8166
863.825 93.4903
863.850 117.876
863.900 152.300
863.950 128.342
864.000 85.8661
864.041 61.0534
864.083 45.3164
864.124 35.2747
864.166 28.6321
864.249 20.7884
864.332 16.5418
864.415 13.9848
864.498 12.3188
864.664 10.3325
864.830 9.21761
864.995 8.51718
865.327 7.69588
865.659 7.23298
865.991 6.93564
866.655 6.57371
867.319 6.36246
867.983 6.23879
868.314 6.21605
868.480 6.22451
868.646 6.26044
868.812 6.35576
868.895 6.45096
868.978 6.61169
869.061 6.90322
869.144 7.49103
869.186 8.02414
869.227 8.87800
869.269 10.3124
869.310 12.7596
869.355 16.8283
869.400 19.5319
869.445 16.8091
869.490 12.7396
869.533 10.2022
869.576 8.74974
869.619 7.89482
869.662 7.36344
869.749 6.77492
869.835 6.47584
869.921 6.30261
870.007 6.19244
870.180 6.06204
870.525 5.93703
870.869 5.87040
871.559 5.78615
872.249 5.72486
872.939 5.67749
873.284 5.66305
873.628 5.66513
873.973 5.71341
874.146 5.78323
874.318 5.92940
874.491 6.26006
874.577 6.58351
874.663 7.13703
874.749 8.16605
874.836 10.3182
874.879 12.3321
874.922 15.6432
874.965 21.3765
875.008 31.5511
875.054 48.9923
875.100 62.1719
875.146 52.7710
875.192 36.3220
875.221 28.7778
875.249 23.3895
875.307 16.8282
875.364 13.3029
875.421 11.2365
875.478 9.93018
875.535 9.05278
875.650 7.98161
875.764 7.37175
875.878 6.98859
876.107 6.54456
876.336 6.30084
876.564 6.14878
877.022 5.96997
877.479 5.86714
877.937 5.79887
878.851 5.71035
879.766 5.65274
880.681 5.61369
881.139 5.60346
881.596 5.61120
881.825 5.63602
882.053 5.71059
882.168 5.80285
882.282 6.00666
882.339 6.21055
882.396 6.57334
882.454 7.28196
882.482 7.88774
882.511 8.76077
882.555 10.7033
882.600 11.9943
882.645 10.6963
882.689 8.75541
882.724 7.73308
882.758 7.08070
882.793 6.65969
882.827 6.38094
882.896 6.05161
882.965 5.87507
883.103 5.70232
883.240 5.62277
883.516 5.55045
883.791 5.51596
884.342 5.47745
884.893 5.45087
885.995 5.40534
887.097 5.35968
888.198 5.31045
888.749 5.28608
889.300 5.26812
889.576 5.26699
889.851 5.27900
890.127 5.31949
890.402 5.42677
890.540 5.53430
890.677 5.71337
890.815 6.02487
890.953 6.60368
891.091 7.79350
891.160 8.88431
891.228 10.6510
891.297 13.7274
891.366 19.5797
891.401 24.5928
891.435 32.1133
891.469 43.7241
891.504 61.7130
891.528 79.1693
891.552 99.7233
891.600 128.499
891.648 108.042
891.696 72.2106
891.753 45.1912
891.809 30.9844
891.865 23.1299
891.922 18.4532
891.978 15.4571
892.034 13.4328
892.147 10.9407
892.260 9.51671
892.373 8.62056
892.598 7.58587
892.823 7.02360
893.049 6.67812
893.274 6.44737
893.499 6.28372
893.950 6.06865
894.401 5.93484
894.852 5.84426
895.302 5.77964
896.204 5.69831
896.655 5.67655
897.106 5.67022
897.556 5.69228
897.782 5.72624
898.007 5.79473
898.232 5.94217
898.345 6.08205
898.458 6.31806
898.571 6.75654
898.627 7.12954
898.683 7.69838
898.740 8.62341
898.796 10.2402
898.852 13.3304
898.880 15.9261
898.909 19.6117
898.954 28.0764
899.000 33.7036
899.046 28.0551
899.092 19.6072
899.121 15.7349
899.151 13.0746
899.211 9.98550
899.270 8.40930
899.330 7.52231
899.389 6.97971
899.449 6.62668
899.568 6.21099
899.687 5.98490
899.806 5.84826
900.044 5.69680
900.282 5.61747
900.520 5.56932
900.996 5.51318
901.949 5.45625
902.901 5.42172
903.854 5.39524
904.806 5.37488
905.282 5.36954
905.758 5.37602
905.996 5.39385
906.235 5.44711
906.354 5.51338
906.473 5.66117
906.532 5.81083
906.592 6.08006
906.651 6.61607
906.681 7.08387
906.711 7.76913
906.755 9.24299
906.800 10.2227
906.845 9.23737
906.889 7.76469
906.916 7.12817
906.943 6.68038
906.997 6.14116
907.051 5.85578
907.105 5.69099
907.214 5.52012
907.322 5.43821
907.538 5.36319
907.754 5.32874
908.186 5.29356
908.618 5.27166
909.482 5.23629
910.346 5.20192
910.779 5.18468
911.211 5.16874
911.643 5.15777
912.075 5.16266
912.291 5.18013
912.507 5.21988
912.723 5.30442
912.939 5.48733
913.155 5.91825
913.263 6.35447
913.371 7.12433
913.479 8.61604
913.533 9.91352
913.587 11.9207
913.641 15.2008
913.695 20.9325
913.749 31.7266
913.776 40.6028
913.803 53.0678
913.827 67.8739
913.852 85.3093
913.900 109.794
913.948 92.4723
913.997 62.0196
914.033 45.6707
914.070 34.8325
914.106 27.6506
914.142 22.7728
914.215 16.8322
914.288 13.5410
914.361 11.5304
914.433 10.2141
914.579 8.64058
914.724 7.76343
914.870 7.21867
915.015 6.85358
915.161 6.59487
915.452 6.25622
915.743 6.04709
916.034 5.90599
916.325 5.80462
916.907 5.66816
917.488 5.57937
918.652 5.46589
919.816 5.38966
920.398 5.35819
920.980 5.33078
921.562 5.31276
921.853 5.31420
922.144 5.33574
922.435 5.41264
922.580 5.50427
922.726 5.68211
922.871 6.06154
922.944 6.41881
923.017 7.00996
923.090 8.06662
923.162 10.1497
923.199 11.9925
923.235 14.8457
923.271 19.4428
923.308 26.8775
923.354 41.4495
923.400 52.5463
923.446 44.7622
923.492 31.0166
923.525 24.0215
923.557 19.2517
923.590 16.0115
923.622 13.7619
923.687 10.9743
923.752 9.39701
923.817 8.42246
923.882 7.77785
924.012 7.00159
924.142 6.56472
924.272 6.29171
924.532 5.97680
924.792 5.80412
925.052 5.69634
925.572 5.56930
926.092 5.49598
926.612 5.44721
927.651 5.38418
928.691 5.34482
929.731 5.32544
930.251 5.33186
930.770 5.37695
931.030 5.44721
931.160 5.51592
931.290 5.63434
931.420 5.86061
931.485 6.05791
931.550 6.36643
931.615 6.88551
931.680 7.84182
931.713 8.63966
931.745 9.82006
931.778 11.6120
931.810 14.3249
931.855 19.7881
931.900 23.4209
931.945 19.7755
931.990 14.3234
932.035 10.7985
932.081 8.83529
932.126 7.70830
932.172 7.02127
932.217 6.57757
932.262 6.27651
932.353 5.90794
932.444 5.70021
932.535 5.57173
932.716 5.42702
932.898 5.35048
933.079 5.30412
933.443 5.25068
934.169 5.19757
934.895 5.16493
936.348 5.11266
937.800 5.06136
939.253 5.00476
940.705 4.93994
941.432 4.90530
942.158 4.87547
942.521 4.87108
942.884 4.89780
943.066 4.94983
943.247 5.09170
943.338 5.25723
943.429 5.60075
943.474 5.92173
943.520 6.45186
943.565 7.38053
943.611 9.05087
943.655 11.6386
943.700 13.3577
943.745 11.6256
943.790 9.03659
943.822 7.72894
943.855 6.87229
943.888 6.30967
943.921 5.92981
943.986 5.47367
944.052 5.22400
944.183 4.97454
944.314 4.85597
944.577 4.74260
944.839 4.68447
945.364 4.62159
945.889 4.61546
946.151 4.65406
946.413 4.75345
946.676 4.97601
946.938 5.47229
947.200 6.66737
947.332 7.89440
947.463 10.0805
947.594 14.3645
947.660 18.1316
947.725 24.0132
947.791 33.7390
947.856 51.0057
947.889 64.7818
947.922 84.2535
947.955 112.152
947.987 151.810
948.044 251.008
948.100 326.490
948.128 314.162
948.156 273.504
948.213 179.935
948.277 110.278
948.342 73.1255
948.407 52.4371
948.471 40.0210
948.536 32.0472
948.601 26.6331
948.730 19.9538
948.860 16.1255
948.989 13.7110
949.248 10.9179
949.507 9.39559
949.765 8.45806
950.024 7.83011
950.283 7.38313
950.800 6.79114
951.318 6.41623
951.835 6.15467
952.353 5.95864
953.388 5.67739
953.906 5.57650
954.423 5.51216
954.941 5.53886
955.200 5.64502
955.458 5.91497
955.717 6.60405
955.846 7.32817
955.976 8.63460
956.105 11.2255
956.170 13.5249
956.235 17.1439
956.299 23.1892
956.364 34.0712
956.396 42.8832
956.429 55.4446
956.461 73.6793
956.493 100.066
956.547 163.891
956.600 212.445
956.653 178.275
956.707 118.039
956.740 90.3317
956.773 70.6149
956.840 46.6070
956.906 33.7065
956.973 26.1429
957.039 21.3548
957.105 18.1441
957.238 14.2217
957.371 11.9905
957.504 10.5904
957.770 8.97261
958.035 8.09026
958.301 7.54474
958.567 7.17747
958.832 6.91457
959.364 6.56373
959.895 6.33984
960.958 6.06687
962.021 5.90200
963.083 5.78760
965.209 5.62963
967.334 5.51388
969.460 5.41287
970.522 5.36365
971.585 5.31660
972.116 5.29839
972.648 5.29805
972.913 5.32186
973.179 5.40623
973.312 5.51797
973.445 5.77763
973.511 6.04922
973.578 6.55611
973.611 6.98325
973.644 7.62047
973.677 8.59728
973.710 10.0976
973.755 13.0547
973.800 15.0191
973.845 13.0422
973.890 10.0861
973.921 8.65111
973.952 7.69148
974.015 6.61171
974.077 6.07698
974.140 5.78074
974.265 5.48314
974.390 5.34296
974.640 5.21325
974.890 5.15110
975.390 5.08826
975.890 5.07515
976.141 5.09932
976.391 5.16687
976.641 5.32171
976.891 5.67010
977.141 6.51212
977.266 7.37775
977.391 8.91976
977.516 11.9387
977.579 14.5869
977.641 18.7128
977.704 25.5141
977.766 37.5328
977.797 47.0963
977.829 60.5148
977.860 79.7105
977.891 106.870
977.946 175.727
978.000 228.313
978.055 191.764
978.109 126.917
978.165 82.2170
978.222 56.8572
978.278 42.0179
978.334 32.8322
978.390 26.7863
978.447 22.6216
978.559 17.3968
978.672 14.3592
978.784 12.4272
979.009 10.1776
979.234 8.94890
979.459 8.19441
979.684 7.69346
979.909 7.34281
980.359 6.90498
980.809 6.70454
981.034 6.71501
981.147 6.77713
981.259 6.91593
981.372 7.21180
981.428 7.47768
981.484 7.89321
981.540 8.58042
981.597 9.79532
981.653 12.1352
981.681 14.1044
981.709 16.9167
981.755 23.3591
981.800 27.6401
981.846 23.3221
981.891 16.8713
981.922 13.7802
981.954 11.6996
981.985 10.2999
982.016 9.33931
982.079 8.15987
982.141 7.50193
982.204 7.10000
982.266 6.83623
982.391 6.51960
982.516 6.34004
982.641 6.22501
982.891 6.08414
983.141 5.99759
983.391 5.93604
983.891 5.84861
984.891 5.73412
985.891 5.65358
987.892 5.53333
989.892 5.43271
991.892 5.32932
992.892 5.27039
993.892 5.20336
994.392 5.16683
994.892 5.13006
995.392 5.09846
995.892 5.08946
996.142 5.10866
996.392 5.16482
996.642 5.29755
996.892 5.60300
997.142 6.35335
997.267 7.13164
997.392 8.52773
997.517 11.2751
997.580 13.6975
997.642 17.4852
997.705 23.7548
997.767 34.8904
997.798 43.7903
997.830 56.3248
997.861 74.3326
997.892 99.9296
997.946 164.452
998.000 213.859
998.054 179.922
998.108 119.420
998.167 75.6926
998.226 51.6971
998.285 38.0073
998.345 29.6768
998.404 24.2583
998.463 20.5558
998.581 15.9491
998.699 13.2851
998.818 11.5974
999.054 9.63435
999.291 8.56097
999.527 7.89907
999.764 7.45604
1000.00 7.14135
1000.44 6.75091
1000.88 6.50124
1001.32 6.32824
1001.75 6.20149
1002.63 6.02817
1003.51 5.91513
1004.38 5.83617
1005.26 5.78200
1005.70 5.76645
1006.13 5.77042
1006.35 5.79403
1006.57 5.86780
1006.68 5.95985
1006.79 6.15982
1006.85 6.35905
1006.90 6.70930
1006.96 7.38043
1007.01 8.71055
1007.06 10.5419
1007.10 11.7683
1007.15 10.5395
1007.19 8.70467
1007.24 7.47646
1007.29 6.81515
1007.33 6.44465
1007.38 6.22594
1007.48 5.98555
1007.57 5.86802
1007.76 5.75816
1007.95 5.70827
1008.34 5.66054
1008.72 5.63485
1009.48 5.60187
1010.25 5.57742
1011.77 5.53800
1013.30 5.50516
1016.36 5.45178
1017.12 5.44246
1017.88 5.44009
1018.27 5.44768
1018.65 5.47788
1018.84 5.52031
1019.03 5.62635
1019.13 5.74784
1019.22 5.99713
1019.27 6.23448
1019.32 6.62219
1019.36 7.32855
1019.41 8.60650
1019.46 10.5463
1019.50 11.8453
1019.55 10.5468
1019.59 8.60607
1019.62 7.65448
1019.65 7.04064
1019.72 6.33865
1019.78 5.99325
1019.84 5.80546
1019.97 5.61645
1020.09 5.52916
1020.34 5.45211
1020.59 5.41877
1021.09 5.38752
1021.59 5.37053
1023.60 5.32710
1025.60 5.28798
1027.60 5.24516
1029.60 5.19468
1030.60 5.16497
1031.60 5.13111
1032.61 5.09265
1033.11 5.07256
1033.61 5.05496
1034.11 5.05020
1034.36 5.06369
1034.61 5.10723
1034.86 5.23129
1034.98 5.36755
1035.11 5.62074
1035.23 6.13755
1035.30 6.61203
1035.36 7.36271
1035.42 8.67382
1035.48 11.0873
1035.52 13.1824
1035.55 16.1936
1035.58 20.7340
1035.61 27.5821
1035.65 42.6871
1035.70 54.1060
1035.75 45.9845
1035.79 31.7069
1035.82 25.2656
1035.85 20.6285
1035.90 15.0004
1035.96 11.8754
1036.01 10.0602
1036.07 8.88395
1036.13 8.10466
1036.24 7.13801
1036.35 6.58564
1036.46 6.23691
1036.68 5.83175
1036.90 5.60538
1037.12 5.46167
1037.57 5.28634
1038.01 5.17673
1038.45 5.09572
1039.34 4.96936
1039.78 4.91667
1040.23 4.87414
1040.67 4.85479
1041.11 4.89842
1041.34 4.97680
1041.56 5.13677
1041.78 5.45772
1042.00 6.12219
1042.22 7.64394
1042.33 9.15245
1042.44 11.7360
1042.56 16.6483
1042.61 20.8720
1042.67 27.1486
1042.72 37.2977
1042.78 54.0221
1042.81 66.9005
1042.83 83.6154
1042.86 107.111
1042.89 137.592
1042.94 228.896
1043.00 297.413
1043.03 285.707
1043.06 248.637
1043.11 164.292
1043.16 114.739
1043.21 83.8571
1043.25 63.9808
1043.30 50.7427
1043.39 35.0077
1043.48 26.4439
1043.57 21.2782
1043.67 17.9145
1043.85 13.9182
1044.04 11.6894
1044.22 10.3159
1044.40 9.39560
1044.59 8.74312
1044.96 7.88869
1045.32 7.36462
1045.69 7.01349
1046.06 6.76621
1046.80 6.45198
1047.17 6.35746
1047.54 6.30341
1047.90 6.31042
1048.09 6.35836
1048.27 6.46983
1048.46 6.72329
1048.55 6.96405
1048.64 7.36588
1048.73 8.09406
1048.78 8.69488
1048.83 9.58468
1048.87 10.9671
1048.92 13.2395
1048.96 17.2003
1049.01 24.3039
1049.06 35.3806
1049.10 42.5190
1049.15 35.1158
1049.19 24.2845
1049.24 17.1688
1049.28 13.2602
1049.33 10.9494
1049.37 9.56501
1049.42 8.64683
1049.46 8.03540
1049.56 7.27353
1049.65 6.84134
1049.74 6.57211
1049.92 6.26514
1050.10 6.09968
1050.28 5.99726
1050.65 5.87600
1051.01 5.80315
1051.37 5.75185
1052.10 5.67928
1052.83 5.62736
1053.56 5.59254
1053.92 5.58774
1054.28 5.61142
1054.47 5.65677
1054.65 5.77902
1054.74 5.92096
1054.83 6.21540
1054.88 6.49470
1054.92 6.94675
1054.97 7.73569
1055.01 9.15182
1055.06 11.3608
1055.10 12.7831
1055.15 11.3045
1055.19 9.14308
1055.23 7.84227
1055.27 7.08213
1055.31 6.61626
1055.35 6.31797
1055.43 5.97524
1055.50 5.79967
1055.66 5.62988
1055.82 5.55182
1056.13 5.47679
1056.44 5.43676
1057.07 5.38365
1057.70 5.34184
1058.32 5.31203
1058.64 5.31139
1058.95 5.34040
1059.27 5.45528
1059.42 5.59756
1059.58 5.87803
1059.74 6.49238
1059.81 7.08477
1059.89 8.06695
1059.97 9.87313
1060.05 13.4697
1060.09 16.7005
1060.13 21.7973
1060.17 30.1517
1060.21 44.0242
1060.23 56.2574
1060.25 70.7059
1060.30 90.6587
1060.35 76.5119
1060.40 51.9941
1060.42 40.7677
1060.45 32.6892
1060.51 22.8825
1060.57 17.5107
1060.62 14.3185
1060.68 12.2806
1060.74 10.9019
1060.85 9.20512
1060.97 8.23338
1061.08 7.61983
1061.31 6.90738
1061.54 6.51649
1061.76 6.27360
1061.99 6.10927
1062.22 5.99094
1062.68 5.83125
1063.13 5.72772
1064.05 5.59657
1064.96 5.51093
1065.87 5.44513
1067.70 5.33500
1069.52 5.22460
1070.43 5.16160
1071.35 5.09031
1071.80 5.05182
1072.26 5.01386
1072.71 4.98292
1073.17 4.97922
1073.40 5.00511
1073.63 5.07320
1073.86 5.22773
1074.08 5.57483
1074.31 6.41144
1074.43 7.26804
1074.54 8.78810
1074.65 11.7388
1074.71 14.3077
1074.77 18.2769
1074.82 24.7439
1074.88 35.9821
1074.91 44.9455
1074.94 56.9511
1074.97 74.3942
1075.00 97.8718
1075.02 127.849
1075.05 161.928
1075.10 210.076
1075.13 202.079
1075.15 176.325
1075.21 117.419
1075.25 84.3507
1075.29 62.7300
1075.33 48.5747
1075.37 39.0263
1075.45 27.5339
1075.53 21.2053
1075.62 17.3592
1075.70 14.8419
1075.86 11.8360
1076.03 10.1581
1076.19 9.11350
1076.35 8.41140
1076.52 7.91467
1076.84 7.25763
1077.17 6.84940
1077.50 6.57248
1077.83 6.37281
1078.48 6.10059
1079.14 5.92076
1080.45 5.68236
1081.76 5.50920
1082.42 5.43234
1083.07 5.36393
1083.40 5.33817
1083.73 5.32720
1084.06 5.34996
1084.38 5.45523
1084.55 5.57695
1084.71 5.79279
1084.87 6.18630
1085.04 6.93952
1085.20 8.54620
1085.28 10.0536
1085.37 12.5440
1085.45 16.9692
1085.53 25.6373
1085.57 33.2297
1085.61 44.9148
1085.65 63.4669
1085.69 92.2188
1085.75 151.493
1085.80 197.109
1085.85 166.028
1085.91 110.376
1085.94 83.8494
1085.98 65.1600
1086.05 43.0091
1086.12 31.2125
1086.19 24.3294
1086.26 19.9378
1086.32 17.0411
1086.46 13.5012
1086.60 11.4751
1086.74 10.2118
1087.02 8.74900
1087.29 7.94709
1087.57 7.45304
1087.85 7.11951
1088.12 6.88204
1088.68 6.56565
1089.23 6.36595
1089.78 6.22800
1090.33 6.12660
1091.44 5.98616
1092.55 5.89216
1094.76 5.77015
1096.97 5.69034
1099.19 5.63117
1100.29 5.60713
1101.40 5.58912
1101.95 5.58645
1102.50 5.60002
1102.78 5.62727
1103.06 5.70497
1103.20 5.80274
1103.33 6.02515
1103.40 6.25758
1103.47 6.69442
1103.51 7.07268
1103.54 7.62662
1103.58 8.51406
1103.61 9.86098
1103.66 12.4801
1103.70 14.2343
1103.75 12.4794
1103.79 9.85857
1103.82 8.60697
1103.85 7.76781
1103.91 6.82994
1103.97 6.36045
1104.04 6.09912
1104.16 5.83723
1104.28 5.71568
1104.52 5.60827
1104.77 5.56144
1105.26 5.51731
1105.74 5.49282
1106.72 5.45676
1107.70 5.42244
1108.68 5.38500
1109.16 5.36609
1109.65 5.35192
1109.90 5.35084
1110.14 5.35999
1110.39 5.39134
1110.63 5.47477
1110.87 5.69721
1111.00 5.93785
1111.12 6.38183
1111.24 7.28235
1111.30 8.09634
1111.36 9.39730
1111.42 11.6117
1111.48 15.6966
1111.54 23.9978
1111.58 31.4662
1111.61 42.1974
1111.63 53.8668
1111.65 67.6619
1111.70 86.7750
1111.75 73.3749
1111.80 50.0189
1111.85 32.0529
1111.91 22.7183
1111.96 17.4478
1112.02 14.3503
1112.07 12.3261
1112.13 10.9770
1112.24 9.30498
1112.35 8.33451
1112.46 7.72621
1112.68 7.01564
1112.90 6.62531
1113.12 6.38528
1113.34 6.22401
1113.57 6.10896
1114.01 5.95637
1114.45 5.86050
1115.33 5.74605
1116.22 5.67899
1117.10 5.63391
1118.87 5.57438
1120.64 5.53398
1122.41 5.50234
1125.95 5.44980
1129.49 5.39893
1131.26 5.37010
1133.02 5.33579
1134.79 5.29140
1135.68 5.26305
1136.56 5.22915
1137.45 5.19090
1137.89 5.17449
1138.33 5.17089
1138.55 5.18266
1138.77 5.21549
1139.00 5.29189
1139.22 5.46629
1139.44 5.89188
1139.55 6.33360
1139.66 7.11471
1139.77 8.65555
1139.82 9.99315
1139.88 12.0656
1139.94 15.5341
1139.99 21.5152
1140.05 32.7697
1140.07 42.2129
1140.10 54.9886
1140.13 70.6681
1140.15 89.2508
1140.20 115.790
1140.25 97.8650
1140.30 65.7274
1140.36 41.3321
1140.42 28.6787
1140.48 21.5513
1140.53 17.3617
1140.59 14.6276
1140.65 12.8038
1140.77 10.5301
1140.89 9.22514
1141.00 8.40055
1141.24 7.44661
1141.47 6.92229
1141.70 6.59980
1141.94 6.38251
1142.17 6.22846
1142.64 6.02436
1143.10 5.89688
1143.57 5.80973
1144.04 5.74633
1144.97 5.65973
1145.91 5.60273
1147.78 5.52982
1149.65 5.48239
1151.51 5.44653
1155.25 5.38914
1158.99 5.33539
1160.86 5.30559
1162.73 5.27079
1164.60 5.22679
1165.53 5.19913
1166.47 5.16608
1167.40 5.12749
1167.87 5.10856
1168.34 5.09700
1168.57 5.09988
1168.80 5.11695
1169.04 5.16423
1169.27 5.28037
1169.50 5.57899
1169.62 5.89587
1169.74 6.46655
1169.85 7.61499
1169.91 8.65199
1169.97 10.2645
1170.03 13.0219
1170.09 17.9302
1170.15 27.5796
1170.18 35.8277
1170.20 47.7669
1170.23 61.0471
1170.25 76.7084
1170.30 98.9178
1170.35 83.8429
1170.40 56.6992
1170.43 42.0477
1170.47 32.2821
1170.50 25.7837
1170.54 21.3450
1170.61 15.9357
1170.68 12.9220
1170.76 11.0772
1170.83 9.86416
1170.97 8.40970
1171.12 7.59502
1171.26 7.08686
1171.55 6.50299
1171.84 6.18236
1172.12 5.98284
1172.41 5.84722
1172.70 5.74917
1173.27 5.61458
1173.85 5.52457
1175.00 5.40209
1176.15 5.30876
1176.73 5.26582
1177.30 5.22686
1177.59 5.21204
1177.88 5.20576
1178.17 5.21929
1178.45 5.28156
1178.60 5.35362
1178.74 5.48145
1178.88 5.71446
1179.03 6.15950
1179.17 7.10700
1179.24 7.99311
1179.32 9.45175
1179.39 12.0291
1179.46 17.0334
1179.50 21.3765
1179.53 28.0011
1179.57 38.3996
1179.60 54.2437
1179.63 70.0468
1179.65 88.0074
1179.70 114.191
1179.75 96.6110
1179.80 64.9732
1179.83 49.8058
1179.86 39.1522
1179.93 26.5805
1179.99 19.8219
1180.05 15.9587
1180.12 13.4891
1180.18 11.8612
1180.31 9.86902
1180.43 8.72588
1180.56 8.00777
1180.81 7.17963
1181.07 6.72480
1181.32 6.44425
1181.57 6.25452
1181.83 6.11932
1182.33 5.93920
1182.84 5.82527
1183.85 5.68982
1184.87 5.61457
1185.88 5.57803
1186.39 5.58148
1186.90 5.62913
1187.15 5.70540
1187.28 5.77997
1187.40 5.90697
1187.53 6.14987
1187.59 6.35877
1187.66 6.68349
1187.72 7.23466
1187.78 8.22462
1187.82 9.05508
1187.85 10.2303
1187.88 12.0452
1187.91 14.6715
1187.96 20.2833
1188.00 23.9295
1188.05 20.1516
1188.09 14.6687
1188.13 11.3912
1188.17 9.45206
1188.21 8.28380
1188.26 7.54627
1188.34 6.72028
1188.42 6.29978
1188.50 6.05941
1188.58 5.91007
1188.75 5.74402
1188.91 5.65950
1189.07 5.61359
1189.40 5.58052
1189.73 5.60533
1189.89 5.64914
1190.06 5.73462
1190.22 5.91200
1190.30 6.07426
1190.38 6.33438
1190.47 6.79791
1190.55 7.71569
1190.59 8.53956
1190.63 9.84952
1190.67 12.0309
1190.71 15.6064
1190.76 21.6704
1190.80 25.6913
1190.85 21.5258
1190.89 15.4907
1190.92 12.4528
1190.96 10.5095
1190.99 9.18398
1191.02 8.31244
1191.09 7.24333
1191.15 6.65936
1191.22 6.30946
1191.28 6.08433
1191.41 5.82237
1191.54 5.68130
1191.67 5.59624
1191.93 5.50179
1192.45 5.42080
1192.97 5.38343
1194.01 5.34242
1195.05 5.31496
1197.13 5.27392
1198.17 5.27405
1198.43 5.28992
1198.69 5.33842
1198.82 5.39982
1198.95 5.53986
1199.02 5.68481
1199.08 5.95332
1199.15 6.51177
1199.18 7.02937
1199.21 7.79382
1199.26 9.34771
1199.30 10.3492
1199.35 9.30910
1199.39 7.78994
1199.44 6.65354
1199.50 6.09438
1199.55 5.79562
1199.60 5.62204
1199.71 5.44135
1199.81 5.35449
1200.03 5.27514
1200.24 5.23958
1200.66 5.20469
1201.09 5.18440
1202.79 5.12586
1204.49 5.06443
1206.19 4.98768
1207.89 4.88462
1208.74 4.81867
1209.59 4.74191
1210.01 4.70138
1210.44 4.66406
1210.86 4.64129
1211.29 4.66577
1211.50 4.72285
1211.71 4.84521
1211.93 5.09938
1212.14 5.63573
1212.35 6.87896
1212.46 8.10998
1212.56 10.2409
1212.67 14.3045
1212.72 17.7248
1212.78 22.8784
1212.83 31.0062
1212.88 44.5243
1212.91 54.8911
1212.94 68.2697
1212.96 87.0082
1212.99 111.157
1213.02 144.919
1213.05 184.865
1213.10 240.533
1213.13 231.858
1213.16 201.887
1213.21 134.111
1213.26 90.2069
1213.31 64.2686
1213.37 48.0781
1213.42 37.8976
1213.52 26.0896
1213.62 19.8695
1213.73 16.1873
1213.83 13.8162
1214.04 11.0216
1214.24 9.47486
1214.45 8.51387
1214.65 7.86759
1214.86 7.40818
1215.27 6.81867
1215.48 6.64160
1215.68 6.55021
1215.89 6.61072
1215.99 6.76231
1216.10 7.09239
1216.20 7.80671
1216.25 8.46710
1216.30 9.49290
1216.35 11.2342
1216.40 14.2565
1216.46 20.1179
1216.51 31.5379
1216.55 49.3859
1216.60 62.9920
1216.65 54.0633
1216.69 37.8639
1216.72 30.2013
1216.75 24.6869
1216.81 17.9153
1216.87 14.2387
1216.93 12.0615
1216.98 10.6708
1217.04 9.72635
1217.16 8.56070
1217.27 7.87327
1217.39 7.43224
1217.62 6.89566
1217.85 6.58102
1218.08 6.37090
1218.54 6.09896
1219.01 5.92089
1219.47 5.78830
1220.39 5.58762
1221.32 5.43087
1221.78 5.37066
1222.24 5.34332
1222.47 5.35952
1222.70 5.41975
1222.93 5.56890
1223.17 5.91457
1223.40 6.75644
1223.51 7.62387
1223.63 9.14565
1223.74 12.1102
1223.80 14.6814
1223.86 18.5516
1223.92 24.8976
1223.97 35.8037
1224.03 55.8138
1224.06 71.8573
1224.09 93.0502
1224.15 153.619
1224.20 199.365
1224.26 167.979
1224.31 112.414
1224.36 75.7130
1224.42 54.1733
1224.47 40.8147
1224.52 32.4493
1224.63 22.7886
1224.73 17.7536
1224.84 14.7435
1224.94 12.8085
1225.15 10.5389
1225.36 9.27688
1225.57 8.49677
1225.78 7.97138
1225.99 7.59638
1226.41 7.09956
1226.82 6.78796
1227.24 6.57470
1227.66 6.41968
1228.50 6.20724
1229.34 6.06726
1231.01 5.88863
1232.69 5.77360
1234.36 5.68859
1235.20 5.65402
1236.04 5.62881
1236.46 5.62661
1236.87 5.65110
1237.08 5.69634
1237.29 5.81921
1237.40 5.96598
1237.50 6.27725
1237.55 6.58579
1237.61 7.10903
1237.66 8.08271
1237.71 9.98894
1237.76 12.6830
1237.80 14.4870
1237.85 12.6791
1237.89 9.98082
1237.93 8.40420
1237.97 7.46456
1238.01 6.89465
1238.05 6.53271
1238.13 6.12407
1238.21 5.91332
1238.37 5.71288
1238.53 5.62194
1238.85 5.53644
1239.17 5.49204
1239.81 5.43355
1240.45 5.38586
1240.77 5.36503
1241.09 5.34965
1241.41 5.34804
1241.72 5.38341
1241.88 5.43357
1242.04 5.52948
1242.20 5.71384
1242.36 6.08142
1242.52 6.89420
1242.60 7.67581
1242.68 8.97087
1242.76 11.3445
1242.84 16.1250
1242.88 20.4212
1242.92 27.1934
1242.96 38.2727
1243.00 56.0338
1243.03 72.2794
1243.05 91.5707
1243.10 118.608
1243.15 100.170
1243.20 67.6691
1243.25 44.3638
1243.30 31.5487
1243.36 23.9855
1243.41 19.4107
1243.46 16.3550
1243.51 14.2894
1243.62 11.6908
1243.72 10.1601
1243.83 9.18482
1244.04 8.04857
1244.25 7.41961
1244.46 7.03140
1244.67 6.76895
1244.88 6.58258
1245.29 6.33537
1245.71 6.18009
1246.13 6.07367
1246.55 5.99609
1247.39 5.88998
1248.23 5.82000
1249.90 5.73113
1251.58 5.67469
1253.25 5.63400
1256.60 5.57581
1259.96 5.53301
1263.31 5.49833
1264.98 5.48393
1266.66 5.47483
1267.50 5.47703
1268.33 5.49779
1268.75 5.53239
1269.17 5.63035
1269.38 5.75727
1269.49 5.87437
1269.59 6.06667
1269.70 6.42147
1269.75 6.71621
1269.80 7.16019
1269.85 7.88515
1269.91 9.10638
1269.96 11.3623
1270.01 15.7411
1270.06 22.0441
1270.10 26.1420
1270.15 21.8995
1270.19 15.7427
1270.24 11.4222
1270.29 9.16787
1270.34 7.93579
1270.40 7.21012
1270.45 6.75286
1270.50 6.44826
1270.60 6.08242
1270.70 5.88032
1270.80 5.75724
1271.01 5.62162
1271.41 5.51021
1271.82 5.46536
1272.64 5.42721
1273.45 5.41126
1274.27 5.40893
1275.08 5.43725
1275.49 5.49033
1275.69 5.54558
1275.89 5.64484
1276.10 5.84656
1276.20 6.03258
1276.30 6.33706
1276.40 6.89554
1276.45 7.36160
1276.51 8.06158
1276.56 9.17188
1276.61 11.0531
1276.66 14.4790
1276.71 20.8135
1276.75 30.1085
1276.80 36.3003
1276.85 30.1037
1276.89 20.8054
1276.93 16.1961
1276.96 13.1508
1276.99 11.1373
1277.02 9.77188
1277.09 8.12858
1277.16 7.23170
1277.22 6.69479
1277.29 6.34964
1277.42 5.95065
1277.55 5.73398
1277.68 5.60427
1277.95 5.45913
1278.21 5.38142
1278.47 5.33257
1279.00 5.27395
1279.26 5.25776
1279.52 5.25315
1279.79 5.27007
1280.05 5.33602
1280.31 5.53403
1280.45 5.75896
1280.58 6.18051
1280.71 7.06104
1280.77 7.87115
1280.84 9.15935
1280.91 11.4144
1280.97 15.6620
1281.00 19.2401
1281.04 24.5455
1281.07 32.5852
1281.10 44.3216
1281.13 56.8782
1281.15 71.1209
1281.20 91.9017
1281.25 78.1929
1281.30 53.1699
1281.34 36.9923
1281.39 27.2669
1281.44 21.3316
1281.48 17.5994
1281.57 13.2511
1281.66 10.9531
1281.75 9.58948
1281.85 8.70990
1282.03 7.67154
1282.21 7.09631
1282.39 6.73898
1282.57 6.49875
1282.76 6.32767
1283.12 6.10184
1283.48 5.96146
1284.21 5.79706
1284.94 5.70383
1285.67 5.64354
1287.13 5.56862
1288.58 5.52218
1290.04 5.48899
1292.95 5.44073
1295.87 5.40235
1298.78 5.36596
1300.24 5.34723
1301.70 5.32908
1302.43 5.32276
1303.15 5.32665
1303.52 5.34299
1303.88 5.39745
1304.06 5.47089
1304.25 5.65088
1304.34 5.85259
1304.43 6.26413
1304.47 6.65079
1304.52 7.27257
1304.57 8.38281
1304.61 10.3344
1304.66 13.3797
1304.70 15.4097
1304.75 13.3776
1304.79 10.3298
1304.83 8.71835
1304.86 7.71446
1304.89 7.04776
1304.93 6.61726
1305.00 6.10024
1305.07 5.82308
1305.20 5.55354
1305.34 5.43100
1305.62 5.32264
1305.89 5.27347
1306.45 5.22181
1307.00 5.18915
1307.55 5.17227
1307.83 5.18059
1308.10 5.22283
1308.38 5.36085
1308.52 5.52290
1308.65 5.83644
1308.79 6.50236
1308.86 7.12560
1308.93 8.15123
1309.00 9.96104
1309.07 13.4639
1309.10 16.5454
1309.14 21.0899
1309.17 28.1338
1309.21 39.0879
1309.23 49.8400
1309.25 62.5388
1309.30 80.2222
1309.35 68.2242
1309.40 46.8435
1309.43 36.3856
1309.46 29.1997
1309.52 20.3474
1309.58 15.6280
1309.64 12.9078
1309.70 11.1565
1309.76 9.99758
1309.88 8.56370
1310.00 7.73991
1310.12 7.22550
1310.37 6.62800
1310.61 6.29901
1310.85 6.09576
1311.33 5.86009
1311.82 5.72848
1312.30 5.64455
1313.27 5.54228
1314.24 5.47984
1315.21 5.43543
1317.15 5.36937
1319.09 5.31208
1320.06 5.28188
1321.03 5.24827
1322.00 5.20976
1322.48 5.18936
1322.97 5.17170
1323.45 5.16990
1323.69 5.18944
1323.94 5.24863
1324.18 5.41563
1324.30 5.59910
1324.42 5.94017
1324.54 6.63499
1324.60 7.27027
1324.66 8.26847
1324.72 9.99433
1324.78 13.1140
1324.84 19.5264
1324.87 25.0614
1324.90 33.2159
1324.95 52.5956
1325.00 67.6740
1325.05 57.6599
1325.10 39.5315
1325.14 27.8887
1325.19 20.9075
1325.23 16.6525
1325.28 13.9801
1325.36 10.8665
1325.45 9.22120
1325.54 8.23593
1325.63 7.60838
1325.81 6.86574
1325.99 6.45076
1326.17 6.19317
1326.52 5.89288
1326.88 5.72362
1327.24 5.61408
1327.95 5.47587
1328.66 5.38782
1329.02 5.35801
1329.38 5.34592
1329.73 5.38194
1329.91 5.44909
1330.09 5.59980
1330.27 5.95985
1330.36 6.31984
1330.45 6.94521
1330.54 8.12308
1330.63 10.6136
1330.67 12.9917
1330.72 16.8261
1330.76 23.6369
1330.80 35.4637
1330.83 44.9660
1330.85 56.2147
1330.90 72.3707
1330.95 61.8684
1331.00 42.5398
1331.05 28.7843
1331.10 21.1520
1331.15 16.6836
1331.20 13.9048
1331.25 12.0439
1331.30 10.7853
1331.40 9.20030
1331.50 8.26585
1331.60 7.67562
1331.80 6.98484
1332.00 6.60596
1332.20 6.37687
1332.60 6.13849
1333.00 6.07097
1333.21 6.10241
1333.41 6.20750
1333.61 6.46710
1333.71 6.71946
1333.81 7.14516
1333.91 7.93591
1333.96 8.59085
1334.01 9.57101
1334.06 11.1154
1334.11 13.7044
1334.16 18.3444
1334.21 26.9728
1334.25 39.8291
1334.30 48.1201
1334.35 39.5365
1334.39 26.9629
1334.42 21.0011
1334.46 16.9328
1334.52 12.2966
1334.58 9.93228
1334.64 8.60134
1334.70 7.78753
1334.76 7.25630
1334.88 6.62930
1335.00 6.28698
1335.13 6.07873
1335.37 5.84585
1335.62 5.72173
1335.86 5.64576
1336.35 5.55598
1336.84 5.50246
1337.32 5.46523
1338.30 5.41414
1339.28 5.38317
1339.77 5.37742
1340.26 5.38531
1340.74 5.42588
1340.99 5.47538
1341.23 5.57091
1341.48 5.77381
1341.60 5.96652
1341.72 6.29341
1341.84 6.90671
1341.90 7.43345
1341.96 8.24712
1342.03 9.58850
1342.09 11.9915
1342.15 16.7505
1342.18 20.9609
1342.21 26.9279
1342.25 39.9336
1342.30 48.5881
1342.35 39.9174
1342.39 26.9035
1342.45 17.4114
1342.50 12.6440
1342.56 10.1111
1342.61 8.64746
1342.67 7.73696
1342.72 7.13567
1342.83 6.42336
1342.94 6.02683
1343.05 5.78498
1343.27 5.51523
1343.49 5.37106
1343.71 5.28266
1344.15 5.18033
1344.59 5.14151
1344.81 5.15867
1345.03 5.23467
1345.25 5.46214
1345.36 5.71387
1345.47 6.17292
1345.58 7.10033
1345.63 7.92631
1345.68 9.19504
1345.74 11.3314
1345.79 15.1275
1345.85 22.4152
1345.90 36.7735
1345.93 47.1883
1345.95 59.0451
1346.00 76.0220
1346.05 64.6068
1346.10 44.2961
1346.15 28.6421
1346.21 20.4642
1346.27 15.8282
1346.32 13.0921
1346.38 11.2981
1346.44 10.0977
1346.55 8.60250
1346.66 7.72812
1346.77 7.17532
1347.00 6.52079
1347.22 6.15458
1347.45 5.92329
1347.90 5.65759
1348.35 5.56039
1348.57 5.59783
1348.80 5.76373
1349.02 6.24643
1349.14 6.77441
1349.25 7.72822
1349.36 9.63582
1349.42 11.3035
1349.47 13.8969
1349.53 18.2473
1349.59 25.7640
1349.64 39.9130
1349.67 51.5245
1349.70 67.8018
1349.72 87.9095
1349.75 110.776
1349.80 144.223
1349.85 122.417
1349.90 82.3630
1349.93 64.1449
1349.96 50.9634
1350.03 34.6617
1350.09 25.7553
1350.15 20.4703
1350.21 17.0978
1350.27 14.8154
1350.40 12.0198
1350.52 10.3987
1350.64 9.37972
1350.89 8.18490
1351.14 7.52588
1351.39 7.11514
1351.63 6.83710
1351.88 6.63740
1352.37 6.37096
1352.87 6.20216
1353.86 6.00291
1354.84 5.89661
1355.83 5.85711
1356.33 5.88091
1356.57 5.92007
1356.82 6.00036
1357.07 6.17508
1357.19 6.34316
1357.31 6.62681
1357.44 7.16509
1357.50 7.62961
1357.56 8.33595
1357.62 9.52143
1357.69 11.6608
1357.72 13.4089
1357.75 15.9442
1357.78 19.6978
1357.81 25.0264
1357.85 36.6783
1357.90 44.4667
1357.95 36.6856
1357.99 25.0329
1358.03 18.5847
1358.07 14.6769
1358.10 12.2056
1358.14 10.5863
1358.22 8.68626
1358.29 7.70037
1358.37 7.11592
1358.44 6.75133
1358.59 6.33275
1358.74 6.10917
1358.89 5.97602
1359.18 5.83045
1359.48 5.75424
1359.78 5.70801
1360.37 5.65358
1361.56 5.59823
1362.75 5.56606
1363.94 5.54367
1365.13 5.52988
1365.73 5.52946
1366.32 5.54388
1366.62 5.56941
1366.92 5.64022
1367.07 5.72866
1367.21 5.93136
1367.29 6.14980
1367.36 6.56424
1367.40 6.92428
1367.44 7.47852
1367.47 8.36378
1367.51 9.79127
1367.56 12.3798
1367.60 14.1088
1367.65 12.3821
1367.69 9.79349
1367.73 8.36499
1367.76 7.49736
1367.84 6.58613
1367.91 6.16549
1367.98 5.94297
1368.12 5.72868
1368.27 5.63413
1368.56 5.55365
1368.85 5.52084
1369.42 5.49433
1370.00 5.48628
1370.58 5.49106
1371.16 5.52384
1371.44 5.57366
1371.73 5.70630
1371.88 5.86929
1372.02 6.23934
1372.09 6.62825
1372.17 7.36668
1372.20 8.00228
1372.24 8.97188
1372.27 10.5024
1372.31 12.9355
1372.36 17.4351
1372.40 20.4355
1372.45 17.4421
1372.49 12.9435
1372.52 10.6722
1372.56 9.18521
1372.59 8.20996
1372.62 7.56943
1372.69 6.77599
1372.75 6.35149
1372.88 5.93156
1373.01 5.74257
1373.27 5.57983
1373.54 5.51297
1374.06 5.45734
1374.58 5.43309
1375.63 5.40806
1376.67 5.39191
1378.76 5.36505
1380.85 5.33778
1382.94 5.30542
1383.98 5.28550
1385.03 5.26149
1386.07 5.23160
1386.60 5.21428
1387.12 5.19700
1387.64 5.18738
1387.90 5.19462
1388.16 5.22718
1388.42 5.33128
1388.55 5.45306
1388.68 5.68531
1388.82 6.17851
1388.88 6.63333
1388.95 7.37481
1389.01 8.69347
1389.08 11.1763
1389.11 13.3285
1389.14 16.4518
1389.17 21.3956
1389.21 28.7659
1389.25 45.1291
1389.30 57.9283
1389.35 49.5839
1389.39 34.3239
1389.43 26.5216
1389.46 21.1796
1389.49 17.5375
1389.53 15.0005
1389.59 11.8433
1389.66 10.0683
1389.72 8.94574
1389.79 8.20064
1389.92 7.30383
1390.05 6.79198
1390.18 6.47278
1390.45 6.10060
1390.71 5.89549
1390.97 5.76702
1391.50 5.61541
1392.02 5.52721
1392.55 5.46757
1393.60 5.38543
1394.65 5.32172
1395.18 5.29200
1395.70 5.26449
1396.23 5.24795
1396.49 5.25491
1396.75 5.29306
1397.02 5.41952
1397.15 5.56883
1397.28 5.85476
1397.41 6.46390
1397.48 7.03219
1397.54 7.94578
1397.61 9.56566
1397.67 12.6018
1397.71 15.2218
1397.74 19.1536
1397.77 25.1990
1397.81 34.1679
1397.83 43.4532
1397.85 54.4743
1397.90 69.9619
1397.95 59.6262
1398.00 41.1479
1398.03 31.8926
1398.06 25.6110
1398.12 17.9963
1398.18 13.9972
1398.25 11.7117
1398.31 10.2491
1398.37 9.27116
1398.50 8.08702
1398.62 7.40781
1398.75 6.98395
1399.00 6.49138
1399.25 6.22376
1399.50 6.06111
1400.00 5.88774
1400.50 5.82889
1400.76 5.84100
1401.01 5.89911
1401.26 6.05427
1401.38 6.21236
1401.51 6.48506
1401.63 7.00984
1401.70 7.46616
1401.76 8.16366
1401.82 9.34024
1401.88 11.4308
1401.92 13.1989
1401.95 15.6911
1401.98 19.3718
1402.01 24.7926
1402.05 36.2636
1402.10 43.8783
1402.15 36.2620
1402.19 24.7861
1402.25 16.4925
1402.30 12.3231
1402.35 10.0629
1402.41 8.73844
1402.46 7.89395
1402.51 7.34469
1402.62 6.68474
1402.73 6.31660
1402.83 6.09394
1403.04 5.84519
1403.26 5.71425
1403.47 5.63590
1403.89 5.54658
1404.74 5.46248
1405.59 5.41675
1407.30 5.35500
1409.00 5.30167
1410.70 5.24184
1411.55 5.20553
1412.40 5.16265
1413.25 5.11393
1413.67 5.09202
1414.10 5.08404
1414.31 5.09513
1414.52 5.12980
1414.74 5.21399
1414.95 5.40834
1415.16 5.88791
1415.27 6.38035
1415.37 7.25474
1415.48 8.96901
1415.53 10.4448
1415.59 12.7111
1415.64 16.3692
1415.69 22.6361
1415.74 34.0812
1415.77 43.4266
1415.80 55.7820
1415.82 72.0264
1415.85 91.3044
1415.90 118.429
1415.95 100.318
1416.00 67.9205
1416.04 50.0759
1416.08 38.4614
1416.12 30.5046
1416.16 25.1970
1416.23 18.6060
1416.31 14.9559
1416.39 12.6779
1416.46 11.1764
1416.62 9.37936
1416.77 8.36102
1416.92 7.72786
1417.08 7.30034
1417.23 6.99548
1417.54 6.59363
1417.84 6.34521
1418.15 6.17879
1418.46 6.06161
1419.07 5.91397
1419.68 5.85121
1419.99 5.86565
1420.30 5.96896
1420.45 6.12074
1420.60 6.48779
1420.68 6.88975
1420.76 7.66175
1420.80 8.36030
1420.83 9.42257
1420.87 11.1371
1420.91 13.9334
1420.96 18.8826
1421.00 22.1737
1421.05 18.8784
1421.09 13.9231
1421.13 11.1787
1421.16 9.47159
1421.20 8.40005
1421.24 7.70214
1421.31 6.89530
1421.39 6.47513
1421.53 6.06710
1421.68 5.88272
1421.97 5.71975
1422.27 5.64707
1422.86 5.57537
1423.45 5.53489
1424.62 5.48074
1425.80 5.43825
1426.98 5.39761
1428.15 5.35455
1428.74 5.33577
1429.04 5.33274
1429.33 5.34458
1429.63 5.40153
1429.77 5.47525
1429.92 5.62475
1430.07 5.95488
1430.14 6.27480
1430.21 6.80485
1430.29 7.77720
1430.36 9.69431
1430.40 11.4255
1430.43 14.1409
1430.47 18.5513
1430.51 25.5383
1430.55 39.6758
1430.60 50.4271
1430.65 43.2521
1430.69 30.3988
1430.74 21.9218
1430.78 16.9266
1430.82 13.8520
1430.87 11.8704
1430.95 9.58593
1431.04 8.37468
1431.12 7.65399
1431.21 7.18800
1431.38 6.63620
1431.56 6.32788
1431.73 6.13691
1432.07 5.91566
1432.42 5.79299
1432.76 5.71596
1433.45 5.62426
1434.14 5.57098
1434.83 5.53568
1436.20 5.49074
1437.58 5.46336
1438.96 5.44896
1439.65 5.45047
1440.33 5.47165
1440.68 5.50679
1441.02 5.60388
1441.19 5.72611
1441.37 6.01545
1441.45 6.33254
1441.54 6.96655
1441.58 7.54292
1441.62 8.47255
1441.67 10.0531
1441.71 12.8029
1441.76 17.2350
1441.80 20.1863
1441.85 17.2352
1441.89 12.8024
1441.94 9.64450
1441.99 8.02291
1442.05 7.14756
1442.10 6.64409
1442.20 6.10735
1442.30 5.85356
1442.51 5.62729
1442.72 5.53275
1443.13 5.45540
1443.55 5.42403
1444.37 5.39708
1445.20 5.38562
1446.03 5.38273
1446.86 5.39586
1447.27 5.42136
1447.68 5.49565
1447.89 5.59234
1448.10 5.82979
1448.20 6.10280
1448.30 6.67235
1448.36 7.22543
1448.41 8.15215
1448.46 9.89744
1448.51 13.2084
1448.56 17.9186
1448.60 21.0557
1448.65 17.9268
1448.69 13.2180
1448.74 10.0939
1448.78 8.38512
1448.83 7.41824
1448.88 6.84479
1448.97 6.21813
1449.06 5.90984
1449.25 5.63071
1449.44 5.51211
1449.81 5.41418
1450.18 5.37449
1450.93 5.34001
1451.67 5.32294
1453.16 5.30130
1454.65 5.28381
1457.63 5.25193
1458.38 5.24769
1459.12 5.25464
1459.49 5.27350
1459.87 5.33268
1460.05 5.41171
1460.24 5.60394
1460.33 5.81962
1460.42 6.26152
1460.47 6.67884
1460.52 7.35437
1460.56 8.57057
1460.61 10.7330
1460.66 14.0447
1460.70 16.2465
1460.75 14.0420
1460.79 10.7282
1460.82 9.17825
1460.85 8.15080
1460.91 6.93384
1460.97 6.31466
1461.03 5.97129
1461.14 5.61771
1461.26 5.45426
1461.50 5.30923
1461.73 5.24686
1462.20 5.18923
1462.67 5.15782
1463.61 5.11056
1464.54 5.06204
1465.48 5.00486
1465.95 4.97500
1466.42 4.95326
1466.66 4.95340
1466.89 4.97260
1467.13 5.03343
1467.36 5.19098
1467.60 5.60765
1467.71 6.05250
1467.83 6.86429
1467.95 8.50361
1468.01 9.96812
1468.06 12.2300
1468.12 16.0564
1468.18 22.7533
1468.24 35.8919
1468.27 46.7298
1468.30 62.1275
1468.32 80.6147
1468.35 101.666
1468.40 132.601
1468.45 112.770
1468.50 76.0227
1468.55 53.2986
1468.59 39.1776
1468.64 30.3245
1468.68 24.6489
1468.77 17.9061
1468.86 14.2780
1468.95 12.1009
1469.04 10.6860
1469.22 9.00427
1469.39 8.06308
1469.57 7.48051
1469.75 7.08811
1469.93 6.80844
1470.29 6.43940
1470.64 6.21059
1471.00 6.05535
1471.35 5.94416
1472.07 5.79551
1472.78 5.70122
1473.49 5.63635
1474.21 5.58938
1475.63 5.52805
1477.06 5.50045
1477.77 5.50696
1478.48 5.55764
1478.84 5.63773
1479.02 5.71690
1479.20 5.85589
1479.37 6.12930
1479.46 6.37568
1479.55 6.77564
1479.64 7.48395
1479.73 8.90109
1479.77 10.2087
1479.82 12.2728
1479.86 15.8713
1479.91 22.0058
1479.95 32.1128
1480.00 38.6764
1480.05 31.8930
1480.09 22.0168
1480.13 16.7622
1480.16 13.4835
1480.20 11.3064
1480.24 9.89904
1480.31 8.21020
1480.38 7.31615
1480.45 6.77878
1480.52 6.44098
1480.66 6.04860
1480.80 5.83904
1480.94 5.71551
1481.22 5.58140
1481.51 5.51301
1481.79 5.47308
1482.35 5.42944
1483.48 5.39854
1484.05 5.42134
1484.33 5.51427
1484.47 5.71733
1484.54 6.00954
1484.61 6.71530
1484.66 7.53353
1484.70 8.06179
1484.75 7.51368
1484.79 6.71368
1484.85 6.06480
1484.91 5.77103
1485.03 5.53920
1485.27 5.41706
1485.75 5.36606
1486.72 5.34180
1488.65 5.32403
1489.61 5.32281
1490.58 5.33679
1491.06 5.36313
1491.54 5.44019
1491.79 5.54223
1491.91 5.63770
1492.03 5.79694
1492.15 6.09664
1492.21 6.35138
1492.27 6.74370
1492.33 7.40241
1492.39 8.56534
1492.45 10.8627
1492.48 12.8517
1492.51 15.7619
1492.56 22.1323
1492.60 26.2594
1492.65 21.9863
1492.69 15.7634
1492.72 13.0146
1492.75 11.1433
1492.80 8.87201
1492.86 7.64371
1492.91 6.94797
1492.96 6.50749
1493.02 6.22241
1493.13 5.88200
1493.24 5.69365
1493.34 5.58064
1493.56 5.45561
1494.00 5.35399
1494.43 5.31322
1495.30 5.27789
1496.17 5.26031
1497.90 5.23776
1499.64 5.21941
1503.12 5.18282
1506.59 5.13967
1510.07 5.08145
1511.80 5.04161
1513.54 4.98893
1514.41 4.95520
1515.28 4.91437
1516.15 4.86409
1517.02 4.80196
1517.45 4.76633
1517.89 4.72957
1518.32 4.69728
1518.75 4.68818
1518.97 4.70867
1519.19 4.76831
1519.41 4.90913
1519.62 5.23205
1519.84 6.01832
1519.95 6.82940
1520.06 8.25081
1520.17 11.0139
1520.22 13.3740
1520.27 16.9708
1520.33 22.8549
1520.38 32.6695
1520.41 40.1443
1520.44 50.2837
1520.46 64.1356
1520.49 82.9343
1520.52 108.555
1520.55 137.858
1520.60 179.991
1520.63 173.830
1520.66 152.295
1520.71 102.265
1520.76 70.1025
1520.81 50.8120
1520.86 38.6091
1520.91 30.8684
1521.01 21.7980
1521.11 16.9724
1521.20 14.0960
1521.30 12.2344
1521.50 10.0370
1521.70 8.80772
1521.90 8.04577
1522.09 7.52985
1522.29 7.16383
1522.69 6.67897
1523.08 6.37758
1523.48 6.17299
1523.87 6.02548
1524.66 5.82707
1525.45 5.69979
1526.24 5.61055
1527.03 5.54392
1528.61 5.44919
1530.19 5.38263
1533.35 5.28627
1536.52 5.20522
1538.10 5.16220
1539.68 5.11238
1541.26 5.04886
1542.05 5.00853
1542.84 4.96018
1543.63 4.90497
1544.02 4.88032
1544.42 4.87202
1544.62 4.88545
1544.81 4.92619
1545.01 5.02406
1545.21 5.24811
1545.41 5.79650
1545.51 6.35886
1545.60 7.33951
1545.70 9.23622
1545.75 10.8852
1545.80 13.3445
1545.85 17.3493
1545.90 23.9578
1545.95 35.6688
1545.97 44.9932
1546.00 57.0388
1546.02 74.0852
1546.05 93.5733
1546.10 122.430
1546.15 104.205
1546.20 70.3067
1546.23 54.4689
1546.27 43.1372
1546.33 29.4669
1546.39 21.9465
1546.46 17.5796
1546.52 14.7565
1546.58 12.8797
1546.71 10.5622
1546.84 9.22010
1546.96 8.37126
1547.22 7.38573
1547.47 6.84092
1547.72 6.50355
1547.98 6.27567
1548.23 6.11243
1548.74 5.89527
1549.24 5.75889
1549.75 5.66578
1550.26 5.59936
1551.27 5.51692
1552.28 5.49510
1552.79 5.52921
1553.04 5.57573
1553.29 5.66726
1553.55 5.86382
1553.68 6.05120
1553.80 6.36686
1553.93 6.96554
1553.99 7.47756
1554.05 8.26991
1554.12 9.60711
1554.18 11.9890
1554.21 13.9705
1554.24 16.7524
1554.28 21.0043
1554.31 27.0828
1554.35 40.2201
1554.40 48.7043
1554.45 39.9269
1554.49 27.0856
1554.53 20.6855
1554.56 16.5363
1554.59 13.6752
1554.62 11.7785
1554.69 9.43274
1554.75 8.14188
1554.82 7.36517
1554.88 6.86434
1555.01 6.28121
1555.14 5.96791
1555.27 5.78002
1555.53 5.57400
1555.79 5.46759
1556.05 5.40394
1556.57 5.33143
1557.61 5.26081
1558.65 5.22026
1559.69 5.19167
1560.73 5.17865
1561.25 5.19013
1561.77 5.25016
1562.03 5.34164
1562.16 5.43090
1562.29 5.58488
1562.42 5.87893
1562.49 6.13526
1562.55 6.53664
1562.62 7.21047
1562.68 8.44949
1562.71 9.49987
1562.75 11.0026
1562.78 13.2608
1562.81 16.6542
1562.86 23.7038
1562.90 28.2735
1562.95 23.5417
1562.99 16.6529
1563.02 13.2564
1563.05 11.0523
1563.09 9.52738
1563.12 8.51524
1563.18 7.25943
1563.24 6.57437
1563.31 6.15261
1563.37 5.87993
1563.49 5.56254
1563.62 5.38835
1563.74 5.28289
1563.99 5.16277
1564.50 5.05202
1565.00 4.99676
1565.50 4.97847
1565.75 4.99968
1566.00 5.07612
1566.25 5.30186
1566.37 5.55345
1566.50 6.02400
1566.63 6.99734
1566.69 7.88409
1566.75 9.27915
1566.81 11.6893
1566.88 16.0409
1566.94 24.9427
1566.97 32.5902
1567.00 43.8001
1567.03 56.0372
1567.05 70.5156
1567.10 91.3346
1567.15 77.9373
1567.20 53.1009
1567.25 36.1542
1567.30 26.4158
1567.35 20.4650
1567.40 16.7846
1567.45 14.2827
1567.50 12.5732
1567.60 10.3965
1567.69 9.09907
1567.79 8.27328
1567.99 7.29386
1568.19 6.75095
1568.38 6.41286
1568.78 6.02165
1569.17 5.80529
1569.57 5.66885
1570.35 5.50615
1571.14 5.41117
1571.93 5.34747
1573.51 5.26395
1575.08 5.20834
1576.66 5.16856
1577.45 5.15616
1578.23 5.15860
1578.63 5.17809
1579.02 5.24451
1579.22 5.33459
1579.42 5.55758
1579.52 5.81284
1579.61 6.33869
1579.66 6.84842
1579.71 7.69244
1579.76 9.21363
1579.81 12.0650
1579.86 16.2309
1579.90 18.9996
1579.95 16.2358
1579.99 12.0696
1580.02 10.0644
1580.05 8.75004
1580.11 7.23475
1580.17 6.46827
1580.23 6.03913
1580.35 5.60526
1580.47 5.40612
1580.71 5.23109
1580.95 5.15721
1581.44 5.09210
1581.92 5.06055
1582.88 5.02233
1583.84 4.99293
1585.77 4.93694
1587.69 4.87435
1589.62 4.79601
1590.58 4.74665
1591.55 4.68683
1592.51 4.61385
1592.99 4.57392
1593.47 4.53950
1593.71 4.53140
1593.95 4.54000
1594.20 4.58603
1594.44 4.72061
1594.68 5.09535
1594.80 5.50396
1594.92 6.25808
1595.04 7.79567
1595.10 9.16441
1595.16 11.3263
1595.22 14.9402
1595.28 21.4233
1595.31 26.6334
1595.34 34.0354
1595.37 44.6979
1595.40 59.9993
1595.42 77.8334
1595.45 99.0077
1595.50 128.934
1595.53 124.817
1595.55 109.372
1595.60 73.9238
1595.64 55.5639
1595.68 42.9270
1595.71 34.2758
1595.75 28.3713
1595.82 20.7565
1595.89 16.4610
1595.96 13.7439
1596.03 11.9586
1596.18 9.77034
1596.32 8.52775
1596.46 7.74515
1596.75 6.83501
1597.03 6.33267
1597.32 6.01816
1597.61 5.80365
1597.89 5.64845
1598.46 5.43627
1599.03 5.29651
1600.18 5.11543
1601.32 4.99326
1602.46 4.89596
1604.75 4.72455
1607.04 4.54270
1608.18 4.43550
1609.32 4.30911
1610.47 4.15497
1611.04 4.06533
1611.61 3.97071
1612.18 3.89114
1612.47 3.88259
1612.75 3.94369
1613.04 4.20717
1613.18 4.53646
1613.32 5.18670
1613.47 6.57782
1613.54 7.88881
1613.61 10.0031
1613.68 13.7463
1613.75 20.7508
1613.79 26.7610
1613.82 35.4283
1613.86 48.9525
1613.89 68.8935
1613.92 90.0673
1613.95 114.250
1614.00 149.981
1614.03 145.137
1614.05 127.627
1614.11 85.6315
1614.15 62.6276
1614.19 47.5660
1614.22 37.4249
1614.26 30.4277
1614.34 21.7994
1614.42 16.9281
1614.50 13.9142
1614.58 11.9143
1614.73 9.48911
1614.89 8.10418
1615.04 7.23571
1615.36 6.21944
1615.67 5.65666
1615.98 5.31701
1616.61 5.02173
1617.23 5.26709
1617.54 5.80011
1617.86 6.98140
1618.17 9.71260
1618.33 12.3761
1618.48 16.8910
1618.64 25.1223
1618.72 31.8708
1618.79 41.7209
1618.87 56.6220
1618.95 80.0632
1619.03 118.297
1619.11 181.391
1619.20 305.752
1619.30 402.513
1619.40 340.034
1619.50 225.809
1619.58 156.289
1619.66 113.056
1619.75 85.5680
1619.83 67.4209
1620.00 45.9197
1620.16 34.3620
1620.33 27.3578
1620.49 22.8207
1620.83 17.4021
1621.16 14.3587
1621.49 12.4550
1621.83 11.1681
1622.16 10.2497
1622.82 9.02879
1623.49 8.26301
1624.15 7.73829
1624.82 7.35730
1626.15 6.83775
1627.48 6.49617
1628.81 6.24948
1630.14 6.05783
1632.81 5.75958
1634.14 5.62848
1635.47 5.49587
1636.80 5.35000
1637.46 5.26798
1638.13 5.18033
1638.46 5.13718
1638.80 5.10042
1639.13 5.08350
1639.46 5.12333
1639.63 5.19457
1639.79 5.33793
1639.96 5.62154
1640.13 6.20047
1640.29 7.49235
1640.38 8.72696
1640.46 10.7938
1640.54 14.5073
1640.62 21.8481
1640.67 28.4069
1640.71 38.2891
1640.75 54.4193
1640.79 79.6711
1640.82 104.049
1640.85 131.999
1640.90 173.429
1640.96 147.628
1641.01 99.1953
1641.05 72.4755
1641.09 55.0737
1641.14 43.1902
1641.18 35.2550
1641.26 25.4156
1641.34 19.9092
1641.43 16.5226
1641.51 14.2852
1641.67 11.5968
1641.84 10.0664
1642.00 9.10934
1642.34 7.99121
1642.67 7.37087
1643.00 6.98270
1643.33 6.71746
1643.66 6.52520
1644.32 6.26689
1644.99 6.11340
1645.32 6.07482
1645.65 6.09294
1645.81 6.16134
1645.98 6.35724
1646.06 6.58614
1646.15 7.05189
1646.19 7.48259
1646.23 8.15744
1646.27 9.28593
1646.31 11.2057
1646.36 14.4233
1646.40 16.5692
1646.45 14.4136
1646.49 11.1847
1646.52 9.59609
1646.55 8.54206
1646.62 7.37732
1646.68 6.79306
1646.74 6.47466
1646.87 6.15038
1647.00 5.99563
1647.25 5.84875
1647.51 5.77503
1648.01 5.68918
1648.52 5.63092
1649.54 5.54061
1650.55 5.46496
1651.57 5.39698
1652.58 5.33750
1653.09 5.31631
1653.60 5.31788
1653.85 5.34748
1654.10 5.44825
1654.23 5.57934
1654.36 5.88007
1654.42 6.19390
1654.48 6.76232
1654.55 7.92268
1654.58 8.97802
1654.61 10.5099
1654.66 13.7045
1654.70 15.8324
1654.75 13.7009
1654.79 10.5003
1654.83 8.80559
1654.86 7.72405
1654.93 6.56964
1655.00 6.02755
1655.07 5.73661
1655.21 5.45123
1655.35 5.31827
1655.63 5.19357
1655.91 5.12981
1656.47 5.04962
1657.03 4.98557
1658.15 4.85890
1659.27 4.71560
1659.83 4.63594
1660.39 4.55374
1660.95 4.47920
1661.51 4.44601
1661.79 4.47456
1662.07 4.57432
1662.35 4.82174
1662.63 5.39996
1662.91 6.81590
1663.05 8.26566
1663.19 10.8184
1663.33 15.6890
1663.40 19.8432
1663.47 26.1214
1663.54 36.0364
1663.61 52.5124
1663.68 81.3455
1663.75 133.099
1663.83 223.472
1663.90 295.219
1663.98 251.181
1664.05 167.750
1664.10 127.872
1664.15 99.9486
1664.24 65.4893
1664.34 46.9318
1664.43 36.0122
1664.53 29.0770
1664.62 24.3957
1664.81 18.6362
1665.00 15.3299
1665.19 13.2344
1665.57 10.7866
1665.95 9.43327
1666.33 8.58767
1666.71 8.01365
1667.09 7.59993
1667.85 7.04401
1668.61 6.68616
1669.37 6.43392
1670.13 6.24389
1671.65 5.96826
1673.17 5.76725
1673.93 5.68418
1674.69 5.61727
1675.07 5.60020
1675.45 5.62396
1675.64 5.68502
1675.83 5.86017
1675.93 6.06851
1676.02 6.50689
1676.07 6.92708
1676.12 7.61469
1676.16 8.86638
1676.21 11.1211
1676.26 14.5141
1676.30 16.7629
1676.35 14.5030
1676.39 11.0999
1676.42 9.33321
1676.46 8.21547
1676.52 6.98278
1676.59 6.38480
1676.66 6.05736
1676.79 5.73139
1676.92 5.57917
1677.18 5.44523
1677.45 5.40689
1677.71 5.45925
1677.85 5.55416
1677.98 5.75527
1678.11 6.20395
1678.18 6.62635
1678.24 7.32226
1678.31 8.54581
1678.37 10.8923
1678.41 12.8992
1678.44 15.9153
1678.47 20.5605
1678.51 27.7309
1678.55 43.1657
1678.60 55.1704
1678.65 47.4021
1678.69 33.0344
1678.73 24.5553
1678.77 19.2358
1678.81 15.7797
1678.85 13.4605
1678.92 10.6798
1679.00 9.15050
1679.08 8.20944
1679.15 7.60033
1679.30 6.86549
1679.46 6.44521
1679.61 6.17915
1679.91 5.85905
1680.22 5.66910
1680.52 5.53883
1681.13 5.35874
1682.35 5.10735
1683.57 4.88300
1684.18 4.76648
1684.79 4.64729
1685.40 4.53482
1686.01 4.46543
1686.31 4.48037
1686.62 4.57606
1686.92 4.84237
1687.23 5.49414
1687.53 7.14471
1687.68 8.85755
1687.83 11.9055
1687.99 17.8420
1688.06 22.9326
1688.14 30.6923
1688.22 43.0775
1688.29 63.9402
1688.37 101.107
1688.41 130.129
1688.44 169.304
1688.52 286.140
1688.60 377.613
1688.68 320.761
1688.76 214.507
1688.83 147.430
1688.90 105.815
1688.97 79.7590
1689.04 62.9532
1689.18 43.1112
1689.31 32.4352
1689.45 26.0211
1689.59 21.8452
1689.87 16.8670
1690.15 14.0735
1690.43 12.3339
1690.71 11.1594
1690.98 10.3222
1691.54 9.22947
1692.10 8.60485
1692.37 8.44523
1692.65 8.48089
1692.79 8.68739
1692.86 8.90804
1692.93 9.27730
1693.00 9.94347
1693.07 11.2045
1693.10 12.2991
1693.14 13.9537
1693.17 16.5240
1693.21 20.3803
1693.25 27.9667
1693.30 33.0008
1693.35 27.9246
1693.39 20.2920
1693.44 15.5340
1693.48 12.8348
1693.52 11.1915
1693.57 10.1846
1693.65 9.03927
1693.74 8.44572
1693.83 8.09415
1693.91 7.86413
1694.09 7.58109
1694.44 7.28325
1694.78 7.10944
1695.48 6.88009
1696.17 6.71729
1697.56 6.48173
1698.95 6.31025
1700.34 6.17414
1701.73 6.06068
1703.12 5.97567
1703.47 5.97140
1703.82 6.00226
1703.99 6.05978
1704.16 6.21202
1704.25 6.38754
1704.34 6.74657
1704.38 7.08205
1704.42 7.61540
1704.47 8.52466
1704.51 10.1095
1704.56 12.6673
1704.60 14.3722
1704.65 12.6670
1704.69 10.1039
1704.74 8.22717
1704.80 7.29702
1704.85 6.79671
1704.90 6.50419
1705.01 6.19672
1705.12 6.04630
1705.33 5.90435
1705.54 5.83545
1705.96 5.75851
1706.39 5.70543
1707.24 5.61194
1708.09 5.51471
1708.51 5.46286
1708.94 5.41095
1709.36 5.36554
1709.78 5.34870
1710.00 5.37004
1710.21 5.43716
1710.42 5.59804
1710.63 5.96665
1710.85 6.86197
1710.95 7.76700
1711.06 9.34799
1711.16 12.3355
1711.27 18.6499
1711.32 24.5739
1711.38 34.2924
1711.43 51.0146
1711.48 80.4196
1711.54 133.344
1711.60 175.455
1711.66 149.643
1711.72 100.780
1711.76 73.8020
1711.81 55.8597
1711.85 43.9423
1711.90 35.8086
1711.99 25.8905
1712.08 20.3503
1712.17 16.9460
1712.26 14.6978
1712.44 11.9957
1712.62 10.4581
1712.80 9.49586
1712.98 8.83958
1713.16 8.37189
1713.51 7.74992
1713.87 7.35962
1714.23 7.09314
1714.59 6.89985
1715.31 6.63774
1716.03 6.46709
1717.46 6.25452
1718.90 6.12483
1720.34 6.04343
1721.05 6.02567
1721.77 6.05227
1722.13 6.11920
1722.31 6.19134
1722.49 6.32160
1722.67 6.58520
1722.76 6.82587
1722.85 7.21424
1722.94 7.91333
1722.98 8.48469
1723.03 9.32511
1723.07 10.6207
1723.12 12.7298
1723.16 16.3584
1723.21 22.5720
1723.25 32.5856
1723.30 39.2577
1723.35 32.5873
1723.39 22.5711
1723.44 15.7413
1723.49 12.1507
1723.54 10.1351
1723.59 8.92525
1723.64 8.13956
1723.69 7.62313
1723.79 6.99509
1723.89 6.64056
1723.98 6.42479
1724.18 6.18220
1724.38 6.05363
1724.57 5.97586
1724.97 5.88629
1725.75 5.79662
1726.54 5.74102
1728.11 5.65000
1729.69 5.55503
1731.26 5.43721
1732.05 5.36349
1732.83 5.27743
1733.23 5.23098
1733.62 5.18670
1734.01 5.15547
1734.41 5.16975
1734.60 5.22115
1734.80 5.33845
1735.00 5.58742
1735.19 6.11774
1735.39 7.34435
1735.49 8.54582
1735.59 10.5938
1735.68 14.4021
1735.78 22.0803
1735.83 29.0082
1735.88 39.9461
1735.93 57.8502
1735.98 87.4932
1736.04 145.479
1736.10 191.703
1736.16 163.913
1736.22 110.575
1736.27 78.1945
1736.33 57.9489
1736.38 44.7216
1736.43 36.1128
1736.53 25.7804
1736.63 20.1955
1736.74 16.7762
1736.84 14.5600
1737.04 11.8918
1737.25 10.3968
1737.45 9.46493
1737.66 8.84172
1737.86 8.40598
1738.27 7.87711
1738.48 7.74247
1738.68 7.70241
1738.89 7.81730
1738.99 7.98859
1739.09 8.31075
1739.20 8.94701
1739.25 9.48713
1739.30 10.3036
1739.35 11.6296
1739.40 13.8270
1739.45 17.7695
1739.50 25.1042
1739.55 36.1137
1739.60 43.4838
1739.65 36.0846
1739.70 25.0414
1739.74 17.9876
1739.79 14.0410
1739.84 11.7635
1739.89 10.3904
1739.98 8.85076
1740.08 8.08388
1740.17 7.63762
1740.27 7.35758
1740.46 7.02752
1740.65 6.83937
1740.84 6.71683
1741.22 6.56188
1741.99 6.38958
1742.75 6.28527
1744.27 6.15303
1745.80 6.06746
1747.33 6.00524
1748.85 5.95691
1751.90 5.88467
1754.95 5.83153
1758.01 5.79083
1759.53 5.77567
1761.06 5.76909
1761.82 5.77599
1762.58 5.80989
1762.97 5.86165
1763.35 6.00279
1763.54 6.18177
1763.63 6.34361
1763.73 6.60837
1763.82 7.08963
1763.92 8.06552
1763.97 8.98614
1764.01 10.4774
1764.06 13.1641
1764.11 17.9565
1764.15 25.3385
1764.20 30.2764
1764.25 25.3424
1764.29 17.9607
1764.32 14.4028
1764.36 12.0861
1764.39 10.4784
1764.42 9.40872
1764.48 8.07849
1764.54 7.34284
1764.61 6.89882
1764.67 6.61196
1764.80 6.27758
1765.05 5.99052
1765.30 5.87340
1765.80 5.77869
1766.31 5.74006
1767.32 5.70504
1768.32 5.68631
1770.34 5.66093
1772.35 5.64047
1774.37 5.62232
1776.38 5.60835
1777.39 5.60684
1778.40 5.62092
1778.90 5.64871
1779.40 5.73167
1779.65 5.84235
1779.91 6.12218
1780.03 6.45276
1780.10 6.73801
1780.16 7.18132
1780.22 7.91894
1780.28 9.25925
1780.32 10.3832
1780.35 11.9724
1780.38 14.3291
1780.41 17.8165
1780.46 25.2217
1780.50 30.0004
1780.55 25.0518
1780.59 17.8174
1780.63 13.8824
1780.66 11.3901
1780.70 9.80207
1780.73 8.78023
1780.81 7.55949
1780.88 6.90907
1780.95 6.52172
1781.02 6.27972
1781.16 6.00168
1781.45 5.76596
1781.73 5.67047
1782.30 5.59206
1782.87 5.55808
1784.01 5.52265
1785.15 5.49882
1786.29 5.47832
1787.43 5.46247
1788.00 5.46154
1788.57 5.48147
1788.86 5.51872
1789.14 5.62498
1789.28 5.75888
1789.43 6.06543
1789.50 6.38805
1789.57 6.99931
1789.60 7.53264
1789.64 8.32032
1789.68 9.59308
1789.71 11.5460
1789.76 15.2368
1789.80 17.6960
1789.85 15.2420
1789.89 11.5502
1789.92 9.91985
1789.95 8.77884
1790.00 7.43911
1790.06 6.72328
1790.11 6.32044
1790.22 5.90187
1790.33 5.70357
1790.56 5.52605
1790.78 5.44807
1791.22 5.37437
1791.67 5.33270
1792.55 5.26756
1793.44 5.19932
1794.33 5.11954
1794.77 5.07900
1795.21 5.05243
1795.44 5.05656
1795.66 5.08983
1795.88 5.18552
1796.10 5.42314
1796.32 6.03211
1796.43 6.67078
1796.54 7.81454
1796.66 10.0376
1796.71 11.9840
1796.77 14.9103
1796.82 19.6942
1796.88 27.6575
1796.93 41.8788
1796.96 53.2392
1796.99 68.0373
1797.02 88.8478
1797.04 112.731
1797.10 147.523
1797.16 125.969
1797.21 85.6271
1797.26 62.2002
1797.30 47.1276
1797.35 37.1650
1797.39 30.3894
1797.48 22.1543
1797.57 17.5667
1797.66 14.7261
1797.74 12.8764
1797.92 10.6436
1798.10 9.37571
1798.27 8.58354
1798.45 8.04389
1798.63 7.65991
1798.98 7.15053
1799.33 6.83232
1799.68 6.61634
1800.04 6.46081
1800.74 6.25261
1801.45 6.11999
1802.16 6.02822
1802.86 5.96100
1804.27 5.86988
1805.69 5.81559
1806.39 5.80277
1807.10 5.81316
1807.45 5.84496
1807.80 5.94288
1807.98 6.07074
1808.16 6.37567
1808.25 6.71679
1808.33 7.39685
1808.38 8.01803
1808.42 9.02472
1808.47 10.7475
1808.51 13.7704
1808.56 18.6718
1808.60 21.8506
1808.65 18.5553
1808.69 13.7655
1808.73 10.9513
1808.77 9.26311
1808.81 8.23459
1808.85 7.57981
1808.93 6.84019
1809.01 6.46024
1809.17 6.10422
1809.33 5.94845
1809.65 5.81714
1809.97 5.76279
1810.61 5.71602
1811.25 5.69565
1811.89 5.68789
1812.53 5.69892
1812.85 5.72472
1813.17 5.80041
1813.33 5.89681
1813.49 6.12388
1813.57 6.36985
1813.65 6.85311
1813.69 7.28377
1813.73 7.96365
1813.77 9.08538
1813.81 10.9032
1813.86 14.0587
1813.90 16.1613
1813.95 14.0657
1813.99 10.9110
1814.04 8.72227
1814.09 7.58578
1814.14 6.94407
1814.19 6.57084
1814.29 6.17088
1814.39 5.97866
1814.58 5.80453
1814.78 5.73035
1815.17 5.66775
1815.57 5.64087
1817.15 5.59991
1820.30 5.56267
1823.46 5.53969
1824.24 5.53981
1825.03 5.55226
1825.43 5.57427
1825.82 5.63685
1826.02 5.71733
1826.22 5.91274
1826.32 6.13477
1826.41 6.59077
1826.46 7.03222
1826.51 7.76273
1826.56 9.07892
1826.61 11.5456
1826.66 15.1497
1826.70 17.5461
1826.75 15.1576
1826.79 11.5553
1826.82 9.77595
1826.85 8.62379
1826.92 7.30232
1826.98 6.65115
1827.04 6.29302
1827.17 5.93896
1827.29 5.77868
1827.54 5.64092
1827.80 5.58558
1828.30 5.54418
1828.80 5.53509
1829.30 5.54729
1829.81 5.60409
1830.06 5.68455
1830.31 5.89073
1830.43 6.13641
1830.56 6.67335
1830.62 7.22053
1830.68 8.21617
1830.72 9.05223
1830.75 10.2361
1830.78 11.9953
1830.81 14.6061
1830.86 20.1804
1830.90 23.8010
1830.95 20.0569
1830.99 14.6126
1831.04 10.7857
1831.09 8.81511
1831.14 7.72599
1831.19 7.07925
1831.29 6.39494
1831.39 6.06387
1831.59 5.76774
1831.79 5.64301
1832.19 5.54029
1832.59 5.49842
1833.39 5.46135
1834.20 5.44236
1835.80 5.41749
1837.40 5.39744
1839.00 5.37979
1840.60 5.36910
1841.40 5.37437
1842.21 5.41049
1842.61 5.46937
1843.01 5.63428
1843.21 5.84687
1843.31 6.04062
1843.41 6.35970
1843.51 6.93631
1843.56 7.41417
1843.61 8.12717
1843.66 9.24829
1843.71 11.1251
1843.76 14.4859
1843.81 20.7328
1843.85 30.0393
1843.90 36.0432
1843.95 29.8366
1843.99 20.7411
1844.04 14.9569
1844.08 11.6472
1844.13 9.70791
1844.17 8.50870
1844.22 7.72642
1844.26 7.19188
1844.35 6.53324
1844.44 6.16021
1844.53 5.92923
1844.71 5.67082
1844.89 5.53491
1845.07 5.45459
1845.43 5.36523
1846.15 5.28473
1846.87 5.24110
1848.30 5.17429
1849.74 5.10251
1850.46 5.05920
1851.18 5.00825
1851.90 4.94713
1852.62 4.87449
1852.98 4.83481
1853.33 4.79667
1853.69 4.76929
1854.05 4.78035
1854.23 4.82350
1854.41 4.92204
1854.59 5.13290
1854.77 5.58281
1854.95 6.62511
1855.04 7.65316
1855.13 9.38539
1855.22 12.5985
1855.31 19.1417
1855.35 25.0603
1855.40 34.4260
1855.44 49.7979
1855.49 74.6046
1855.52 97.2069
1855.54 124.202
1855.60 163.926
1855.63 159.196
1855.66 139.972
1855.71 94.2873
1855.75 70.3684
1855.79 54.3570
1855.83 43.3620
1855.87 35.6535
1855.95 25.9868
1856.03 20.4386
1856.10 16.9692
1856.18 14.6508
1856.34 11.8228
1856.49 10.2019
1856.65 9.18523
1856.96 7.99809
1857.28 7.33905
1857.59 6.92770
1857.90 6.64753
1858.21 6.44488
1858.84 6.17074
1859.46 5.99294
1860.09 5.86578
1860.71 5.76824
1861.96 5.61938
1863.21 5.49569
1863.83 5.43692
1864.14 5.41115
1864.46 5.39577
1864.77 5.41633
1864.93 5.46555
1865.08 5.58314
1865.24 5.86966
1865.32 6.15901
1865.39 6.66008
1865.47 7.59278
1865.55 9.51501
1865.59 11.2703
1865.63 14.0709
1865.67 18.7146
1865.71 26.5219
1865.73 33.4865
1865.75 41.8141
1865.80 53.8132
1865.85 46.5057
1865.90 32.7875
1865.94 23.3403
1865.99 17.7721
1866.04 14.4253
1866.08 12.3398
1866.13 10.9095
1866.18 9.92672
1866.27 8.65425
1866.36 7.89720
1866.45 7.40633
1866.64 6.82115
1866.83 6.49020
1867.01 6.28212
1867.39 6.03546
1868.13 5.80108
1868.87 5.68391
1869.62 5.60925
1870.36 5.55481
1871.85 5.47472
1873.34 5.41386
1874.83 5.36722
1875.58 5.35510
1876.32 5.37155
1876.69 5.41684
1877.06 5.55764
1877.25 5.74299
1877.34 5.91314
1877.44 6.19285
1877.53 6.69513
1877.62 7.71871
1877.67 8.68010
1877.72 10.2278
1877.76 12.9942
1877.81 17.8734
1877.85 25.5262
1877.90 30.6582
1877.95 25.5338
1877.99 17.8799
1878.04 12.5438
1878.10 9.77501
1878.15 8.26732
1878.20 7.39444
1878.25 6.83182
1878.30 6.45735
1878.41 6.01046
1878.51 5.75965
1878.61 5.60713
1878.82 5.43444
1879.23 5.28504
1879.65 5.21577
1880.47 5.13663
1881.30 5.07756
1882.96 4.96132
1884.61 4.82202
1885.44 4.73765
1886.27 4.64110
1887.09 4.53285
1887.92 4.42347
1888.33 4.38115
1888.75 4.36802
1889.16 4.42700
1889.57 4.66811
1889.99 5.42335
1890.20 6.29261
1890.40 7.93456
1890.61 11.3450
1890.71 14.4724
1890.82 19.4311
1890.92 27.9330
1891.02 43.3110
1891.07 55.9770
1891.13 73.8158
1891.18 100.348
1891.23 138.178
1891.31 232.632
1891.40 308.051
1891.49 262.830
1891.57 175.972
1891.67 109.259
1891.77 73.6460
1891.87 53.4273
1891.97 41.3183
1892.07 33.4003
1892.17 28.0393
1892.37 21.3209
1892.57 17.4209
1892.77 14.9329
1893.16 12.0123
1893.56 10.3933
1893.96 9.38205
1894.36 8.69710
1894.76 8.20518
1895.55 7.54882
1896.35 7.13157
1897.14 6.84182
1897.94 6.62722
1899.53 6.32140
1901.12 6.09652
1901.92 5.99564
1902.71 5.90293
1903.11 5.87728
1903.31 5.88705
1903.51 5.94007
1903.71 6.10805
1903.81 6.29908
1903.91 6.65047
1904.01 7.36322
1904.06 7.99640
1904.11 8.96114
1904.16 10.5707
1904.21 13.3051
1904.26 18.4719
1904.31 28.1975
1904.35 44.2020
1904.40 56.6707
1904.45 49.0253
1904.50 34.6624
1904.52 27.9510
1904.55 23.0724
1904.61 17.0851
1904.67 13.7208
1904.73 11.7437
1904.78 10.4502
1904.84 9.58460
1904.96 8.49804
1905.07 7.86732
1905.19 7.46364
1905.41 6.98712
1905.64 6.71670
1905.87 6.54439
1906.33 6.33454
1906.79 6.20854
1907.25 6.12189
1908.17 6.00355
1910.01 5.85162
1911.84 5.73441
1913.68 5.61703
1914.60 5.54996
1915.52 5.47164
1916.44 5.37724
1916.89 5.32522
1917.35 5.27848
1917.58 5.26530
1917.81 5.27133
1918.04 5.32098
1918.27 5.47433
1918.50 5.90816
1918.62 6.38388
1918.73 7.24862
1918.85 8.98332
1918.90 10.5306
1918.96 12.8944
1919.02 16.8270
1919.08 23.5282
1919.13 35.8557
1919.16 45.9551
1919.19 59.3892
1919.22 77.1291
1919.25 98.3123
1919.30 128.941
1919.36 110.524
1919.41 75.5577
1919.46 53.8242
1919.51 40.0944
1919.56 31.3702
1919.60 25.7112
1919.70 18.8675
1919.79 15.1885
1919.89 12.9389
1919.98 11.4823
1920.17 9.73210
1920.37 8.74010
1920.56 8.11907
1920.75 7.69483
1920.94 7.39160
1921.32 6.98665
1921.70 6.73101
1922.08 6.55565
1922.46 6.42823
1923.22 6.25712
1923.99 6.15724
1924.37 6.13504
1924.75 6.15673
1924.94 6.21534
1925.13 6.38039
1925.22 6.57750
1925.32 6.98686
1925.37 7.37782
1925.41 8.01607
1925.46 9.17540
1925.51 11.2624
1925.56 14.4975
1925.60 16.6030
1925.65 14.4198
1925.69 11.2541
1925.75 8.94196
1925.80 7.77777
1925.85 7.15675
1925.91 6.79612
1926.02 6.42031
1926.12 6.23894
1926.34 6.07233
1926.56 5.99616
1926.99 5.92108
1927.42 5.87879
1929.14 5.77808
1930.87 5.70349
1932.60 5.63291
1934.32 5.55610
1935.19 5.51150
1936.05 5.45966
1936.91 5.39780
1937.34 5.36341
1937.77 5.33097
1938.21 5.31769
1938.42 5.33792
1938.64 5.41127
1938.85 5.62964
1938.96 5.87367
1939.07 6.32732
1939.18 7.24186
1939.23 8.05641
1939.29 9.33320
1939.34 11.4413
1939.39 15.1492
1939.45 22.1420
1939.50 35.5594
1939.53 45.3359
1939.55 56.9920
1939.60 74.1627
1939.65 64.0102
1939.70 44.3445
1939.73 34.3942
1939.77 27.4381
1939.84 19.2856
1939.90 14.9838
1939.97 12.4821
1940.04 10.9039
1940.10 9.84250
1940.24 8.53920
1940.37 7.78618
1940.51 7.31159
1940.77 6.75256
1941.04 6.43765
1941.31 6.23767
1941.85 5.99443
1942.39 5.84712
1942.92 5.74250
1944.00 5.58611
1945.07 5.44946
1945.61 5.37934
1946.14 5.30829
1946.68 5.25167
1946.95 5.24969
1947.22 5.30641
1947.49 5.53476
1947.62 5.81533
1947.76 6.36503
1947.89 7.52919
1947.96 8.60504
1948.02 10.3440
1948.09 13.3252
1948.16 18.8340
1948.22 29.9623
1948.26 39.8614
1948.29 54.0105
1948.32 70.3955
1948.35 89.2732
1948.40 117.103
1948.46 100.425
1948.51 68.7658
1948.55 50.5014
1948.60 38.4822
1948.64 30.5742
1948.68 25.2151
1948.77 18.7227
1948.85 15.1141
1948.94 12.9010
1949.03 11.4397
1949.20 9.68129
1949.37 8.67669
1949.54 8.04518
1949.71 7.61196
1949.88 7.30145
1950.23 6.88446
1950.57 6.61874
1951.25 6.29717
1951.94 6.10419
1952.63 5.96981
1954.00 5.77590
1955.37 5.61283
1956.06 5.52826
1956.74 5.43605
1957.43 5.33788
1957.77 5.29556
1958.12 5.28041
1958.29 5.30064
1958.46 5.36287
1958.63 5.51127
1958.80 5.84486
1958.98 6.63985
1959.06 7.43259
1959.15 8.77243
1959.23 11.2589
1959.32 16.2976
1959.36 20.8203
1959.40 27.9126
1959.45 39.4063
1959.49 57.6466
1959.52 74.9681
1959.55 95.7095
1959.60 125.939
1959.66 108.259
1959.71 74.2061
1959.75 57.8368
1959.78 46.3415
1959.85 31.9011
1959.92 24.0138
1959.99 19.3781
1960.06 16.3579
1960.12 14.3076
1960.26 11.7816
1960.40 10.3067
1960.54 9.37163
1960.81 8.26710
1961.09 7.64648
1961.36 7.25459
1961.64 6.98575
1961.91 6.79050
1962.46 6.52259
1963.01 6.34565
1964.11 6.11501
1965.21 5.95454
1965.76 5.88428
1966.31 5.81723
1966.86 5.75743
1967.13 5.73879
1967.40 5.74589
1967.68 5.83077
1967.82 5.95103
1967.95 6.20062
1968.09 6.76027
1968.16 7.29715
1968.23 8.17586
1968.30 9.75835
1968.37 12.7753
1968.40 15.4557
1968.43 19.3999
1968.47 25.4905
1968.50 34.9262
1968.53 44.6260
1968.55 55.7395
1968.60 72.4544
1968.65 62.5012
1968.70 43.3680
1968.75 29.8517
1968.80 22.1105
1968.85 17.5596
1968.90 14.7190
1968.95 12.8405
1969.00 11.5355
1969.11 9.89674
1969.21 8.91963
1969.31 8.29555
1969.51 7.55032
1969.71 7.13203
1969.92 6.86775
1970.32 6.55478
1970.73 6.37516
1971.14 6.25714
1971.95 6.10678
1972.76 6.00917
1973.57 5.93555
1975.20 5.81704
1976.82 5.70330
1977.63 5.63885
1978.45 5.56380
1979.26 5.47536
1979.66 5.42937
1980.07 5.39463
1980.27 5.39230
1980.48 5.41557
1980.68 5.49419
1980.88 5.70065
1981.08 6.23902
1981.19 6.81064
1981.29 7.82479
1981.39 9.81179
1981.49 14.0923
1981.54 18.2483
1981.59 25.2425
1981.64 37.6659
1981.67 47.1115
1981.69 59.7472
1981.72 77.5776
1981.75 98.8737
1981.80 129.651
1981.85 111.133
1981.91 76.0111
1981.95 55.8066
1981.99 42.4744
1982.03 33.6838
1982.08 27.7174
1982.16 20.4796
1982.24 16.4896
1982.33 14.0060
1982.41 12.3837
1982.58 10.4078
1982.74 9.28253
1982.91 8.57776
1983.08 8.09856
1983.25 7.75437
1983.58 7.29588
1983.91 7.00847
1984.25 6.81148
1984.58 6.66906
1985.25 6.47601
1985.92 6.35102
1986.59 6.26293
1987.26 6.19716
1988.60 6.10443
1989.93 6.04346
1991.27 6.01857
1991.61 6.03221
1991.94 6.08519
1992.11 6.15786
1992.28 6.33411
1992.36 6.52952
1992.44 6.91328
1992.53 7.82251
1992.57 8.76282
1992.61 10.3240
1992.66 12.9975
1992.70 14.7343
1992.75 12.9351
1992.79 10.3216
1992.85 8.33788
1992.90 7.38623
1992.96 6.88038
1993.02 6.59645
1993.13 6.30217
1993.24 6.16387
1993.47 6.03928
1993.69 5.98477
1994.14 5.93448
1994.59 5.90832
1996.40 5.84715
1998.20 5.79333
1999.10 5.76230
2000.00 5.72524
2000.00 11.2112
2500.00 10.4969
3000.00 9.97486
3500.00 9.57311
4000.00 9.25244
5000.00 8.76911
6000.00 8.41929
7000.00 8.15271
8000.00 7.94198
10000.0 7.62883
12500.0 7.36062
15000.0 7.17208
17000.0 7.05748
20000.0 6.92545
25000.0 6.77279
30000.0 6.67047
35000.0 6.59818
40000.0 6.54514
50000.0 6.47412
60000.0 6.42994
70000.0 6.40037
80000.0 6.37938
99999.9 6.35054
100000 6.34743
150000 6.32081
200000 6.31831
250000 6.32579
300000 6.33778
339151 6.34899
339151 6.34899
379364 6.36105
419576 6.37196
500000 6.39112
602241 6.40628
671380 6.40778
700000 6.40836
800000 6.39720
835672 6.38990
871584 6.38082
900000 6.37241
941795 6.35812
949462 6.35526
1.00000E+06 6.33443
1.08746E+06 6.29122
1.08746E+06 6.29122
1.14244E+06 6.25958
1.14244E+06 6.25958
1.25000E+06 6.18880
1.30183E+06 6.15066
1.43045E+06 6.04640
1.46142E+06 6.01946
1.47534E+06 6.00716
1.49884E+06 5.98612
1.49884E+06 5.98610
1.50000E+06 5.98508
1.51317E+06 5.97314
1.63159E+06 5.84692
1.75000E+06 5.74433
1.87500E+06 5.60462
2.00000E+06 5.48709
2.05619E+06 5.41337
2.11237E+06 5.34428
2.16856E+06 5.27945
2.22475E+06 5.21855
2.28093E+06 5.16126
2.33712E+06 5.10731
2.39330E+06 5.05646
2.44949E+06 5.00847
2.51830E+06 4.94116
2.58712E+06 4.87847
2.65593E+06 4.82001
2.72475E+06 4.76543
2.79356E+06 4.71441
2.86237E+06 4.66667
2.93119E+06 4.62196
3.00000E+06 4.58005
3.04811E+06 4.54822
3.09621E+06 4.51756
3.14432E+06 4.48802
3.19243E+06 4.45953
3.24053E+06 4.43205
3.28864E+06 4.40554
3.33674E+06 4.37994
3.38485E+06 4.35521
3.43296E+06 4.33132
3.48106E+06 4.30823
3.52917E+06 4.28591
3.57728E+06 4.26432
3.62538E+06 4.24342
3.67349E+06 4.22320
3.72159E+06 4.20362
3.76970E+06 4.18466
3.82728E+06 4.15900
3.88485E+06 4.13432
3.94243E+06 4.11057
4.00000E+06 4.08770
4.06806E+06 4.07151
4.13612E+06 4.05581
4.20418E+06 4.04056
4.27224E+06 4.02575
4.34030E+06 4.01135
4.40836E+06 3.99734
4.47642E+06 3.98371
4.54448E+06 3.97044
4.60142E+06 3.95894
4.65836E+06 3.94769
4.71530E+06 3.93667
4.77224E+06 3.92589
4.82918E+06 3.91532
4.88612E+06 3.90497
4.94306E+06 3.89482
5.00000E+06 3.88487
5.06250E+06 3.88327
5.12500E+06 3.88175
5.18750E+06 3.88030
5.25000E+06 3.87892
5.31250E+06 3.87760
5.37500E+06 3.87634
5.43750E+06 3.87514
5.50000E+06 3.87399
5.56250E+06 3.87289
5.62500E+06 3.87183
5.68750E+06 3.87083
5.75000E+06 3.86986
5.81250E+06 3.86894
5.87500E+06 3.86805
5.93750E+06 3.86721
6.00000E+06 3.86640
6.10936E+06 3.87845
6.21872E+06 3.89062
6.32808E+06 3.90288
6.43744E+06 3.91525
6.54679E+06 3.92770
6.65615E+06 3.94023
6.76551E+06 3.95283
6.87487E+06 3.96549
6.93744E+06 3.97214
7.00000E+06 3.97881
7.05373E+06 3.98919
7.10746E+06 3.99959
7.16119E+06 4.01001
7.21492E+06 4.02044
7.26864E+06 4.03089
7.32237E+06 4.04135
7.37610E+06 4.05183
7.42983E+06 4.06232
7.48331E+06 4.07249
7.54790E+06 4.08443
7.61248E+06 4.09639
7.67707E+06 4.10836
7.74166E+06 4.12034
7.80624E+06 4.13233
7.87083E+06 4.14433
7.93541E+06 4.15635
8.00000E+06 4.16837
8.06066E+06 4.18164
8.12132E+06 4.19491
8.18198E+06 4.20818
8.24264E+06 4.22144
8.30330E+06 4.23469
8.36396E+06 4.24795
8.42462E+06 4.26119
8.48528E+06 4.27444
8.54962E+06 4.28806
8.61396E+06 4.30167
8.67830E+06 4.31528
8.74264E+06 4.32888
8.80698E+06 4.34247
8.87132E+06 4.35606
8.93566E+06 4.36963
9.00000E+06 4.38320
9.06024E+06 4.39493
9.12048E+06 4.40703
9.16029E+06 4.41445
9.20011E+06 4.42196
9.23992E+06 4.42958
9.27973E+06 4.43729
9.31954E+06 4.44510
9.35936E+06 4.45302
9.39917E+06 4.46102
9.43898E+06 4.46913
9.48683E+06 4.47805
9.55098E+06 4.48969
9.61512E+06 4.50148
9.67927E+06 4.51344
9.74342E+06 4.52555
9.80756E+06 4.53783
9.87171E+06 4.55025
9.93585E+06 4.56283
1.00000E+07 4.57556
1.00610E+07 4.58090
1.01220E+07 4.58641
1.01830E+07 4.59208
1.02441E+07 4.59791
1.03051E+07 4.60391
1.03661E+07 4.61006
1.04271E+07 4.61637
1.04881E+07 4.62283
1.05000E+07 4.62410
1.05610E+07 4.62921
1.06220E+07 4.63448
1.06829E+07 4.63992
1.07439E+07 4.64553
1.08049E+07 4.65131
1.08659E+07 4.65724
1.09268E+07 4.66333
1.09878E+07 4.66958
1.10000E+07 4.67084
1.10611E+07 4.67587
1.11223E+07 4.68104
1.11834E+07 4.68634
1.12446E+07 4.69178
1.13057E+07 4.69736
1.13668E+07 4.70307
1.14280E+07 4.70892
1.14891E+07 4.71489
1.15000E+07 4.71596
1.15625E+07 4.72094
1.16250E+07 4.72605
1.16875E+07 4.73130
1.17500E+07 4.73668
1.18125E+07 4.74220
1.18750E+07 4.74785
1.19375E+07 4.75364
1.20000E+07 4.75957
1.20625E+07 4.75485
1.21250E+07 4.75034
1.21875E+07 4.74602
1.22500E+07 4.74191
1.23125E+07 4.73799
1.23750E+07 4.73426
1.24375E+07 4.73073
1.25000E+07 4.72740
1.25625E+07 4.72313
1.26250E+07 4.71898
1.26875E+07 4.71496
1.27500E+07 4.71106
1.28125E+07 4.70729
1.28750E+07 4.70365
1.29375E+07 4.70015
1.30000E+07 4.69681
1.31250E+07 4.68881
1.32500E+07 4.68125
1.33750E+07 4.67414
1.35000E+07 4.66748
1.36693E+07 4.65766
1.37106E+07 4.65528
1.37520E+07 4.65293
1.37933E+07 4.65061
1.38347E+07 4.64832
1.38760E+07 4.64605
1.39173E+07 4.64382
1.39587E+07 4.64162
1.40000E+07 4.63944
1.40358E+07 4.63429
1.41519E+07 4.61753
1.42679E+07 4.60116
1.43840E+07 4.58516
1.45000E+07 4.56955
1.47500E+07 4.53542
1.50000E+07 4.50302
1.52500E+07 4.45981
1.55000E+07 4.41871
1.57500E+07 4.37970
1.60000E+07 4.34278
1.60581E+07 4.33184
1.61161E+07 4.32102
1.61742E+07 4.31032
1.62323E+07 4.29975
1.62903E+07 4.28930
1.63484E+07 4.27897
1.64064E+07 4.26877
1.64645E+07 4.25869
1.65000E+07 4.25242
1.65625E+07 4.24143
1.66250E+07 4.23051
1.66875E+07 4.21967
1.67500E+07 4.20890
1.68125E+07 4.19820
1.68750E+07 4.18759
1.69375E+07 4.17705
1.70000E+07 4.16659
1.70625E+07 4.15559
1.71250E+07 4.14473
1.71875E+07 4.13402
1.72500E+07 4.12343
1.73125E+07 4.11299
1.73750E+07 4.10268
1.74375E+07 4.09250
1.75000E+07 4.08246
1.75625E+07 4.07256
1.76250E+07 4.06279
1.76875E+07 4.05316
1.77500E+07 4.04366
1.78125E+07 4.03430
1.78750E+07 4.02507
1.79375E+07 4.01598
1.80000E+07 4.00702
1.80625E+07 3.99493
1.81250E+07 3.98308
1.81875E+07 3.97146
1.82500E+07 3.96007
1.83125E+07 3.94890
1.83750E+07 3.93796
1.84375E+07 3.92724
1.85000E+07 3.91675
1.85625E+07 3.90647
1.86250E+07 3.89641
1.86875E+07 3.88657
1.87500E+07 3.87694
1.88125E+07 3.86753
1.88750E+07 3.85833
1.89375E+07 3.84935
1.90000E+07 3.84058
1.90625E+07 3.82897
1.91250E+07 3.81766
1.91875E+07 3.80664
1.92500E+07 3.79592
1.93125E+07 3.78548
1.93750E+07 3.77533
1.94375E+07 3.76546
1.95000E+07 3.75587
1.95625E+07 3.74655
1.96250E+07 3.73752
1.96875E+07 3.72876
1.97500E+07 3.72027
1.98125E+07 3.71206
1.98750E+07 3.70412
1.99375E+07 3.69646
2.00000E+07 3.68907