Sn-117(n,tot) ENDF/B-VII.1
Energy(eV) XS(b)
1.00000E-05 59.1230
1.25000E-05 53.4414
1.50000E-05 49.2474
2.00000E-05 43.3603
2.75000E-05 37.7588
3.50000E-05 34.0723
4.25000E-05 31.4110
5.00000E-05 29.3736
6.25000E-05 26.8327
7.50000E-05 24.9571
0.000100000 22.3243
0.000125000 20.5276
0.000150000 19.2014
0.000200000 17.3397
0.000275000 15.5684
0.000350000 14.4026
0.000425000 13.5610
0.000500000 12.9168
0.000625000 12.1133
0.000750000 11.5201
0.00100000 10.6876
0.00125000 10.1194
0.00150000 9.70005
0.00200000 9.11136
0.00275000 8.55122
0.00350000 8.18259
0.00425000 7.91647
0.00500000 7.71274
0.00625000 7.45866
0.00750000 7.27111
0.0100000 7.00785
0.0125000 6.82820
0.0150000 6.69558
0.0200000 6.50943
0.0253000 6.37599
0.0314750 6.26532
0.0376500 6.18314
0.0500000 6.06714
0.0625000 5.98678
0.0750000 5.92746
0.100000 5.84418
0.125000 5.78734
0.150000 5.74539
0.200000 5.68653
0.275000 5.63067
0.350000 5.59419
0.500000 5.54908
0.750000 5.51566
0.875000 5.51650
1.00000 5.54264
1.06325 5.57967
1.12650 5.65830
1.18975 5.84463
1.22138 6.03322
1.25300 6.34736
1.29000 6.90860
1.32700 7.29931
1.36400 6.94521
1.40100 6.38943
1.43844 6.02391
1.47588 5.81757
1.51331 5.69737
1.55075 5.62284
1.62563 5.53966
1.70050 5.49630
1.85025 5.45284
2.00000 5.43069
2.37500 5.40195
2.75000 5.38516
3.50000 5.36218
5.00000 5.33049
7.50000 5.29191
10.0000 5.26034
12.6585 5.23041
13.9878 5.21643
14.6524 5.21020
14.9847 5.20901
15.1509 5.21306
15.2339 5.22274
15.2755 5.23507
15.3170 5.26047
15.3850 5.31813
15.4530 5.25933
15.4885 5.23582
15.5241 5.22281
15.5951 5.21062
15.7372 5.20228
16.0214 5.19649
16.5898 5.18975
17.7265 5.17801
20.0000 5.15549
20.6638 5.14991
20.9956 5.15006
21.1616 5.15759
21.2445 5.17431
21.2860 5.19624
21.3275 5.24368
21.3900 5.34525
21.4525 5.24273
21.4892 5.19828
21.5259 5.17554
21.5993 5.15585
21.7461 5.14374
22.0398 5.13655
22.6270 5.12933
23.8015 5.11747
24.9760 5.10834
25.5633 5.11341
25.7101 5.12212
25.8569 5.14538
25.9303 5.17274
26.0037 5.23088
26.0404 5.28691
26.0771 5.38276
26.1138 5.55958
26.1505 5.90144
26.1828 6.38773
26.2150 6.71248
26.2473 6.38865
26.2795 5.90207
26.3096 5.60574
26.3396 5.43306
26.3697 5.33021
26.3998 5.26582
26.4599 5.19410
26.5200 5.15759
26.6403 5.12327
26.7605 5.10783
27.2416 5.08668
28.2036 5.07197
30.1278 5.05284
31.0898 5.04716
32.0519 5.04917
32.5329 5.05825
33.0139 5.08544
33.2545 5.12026
33.4950 5.20661
33.6152 5.30960
33.7355 5.54512
33.7956 5.79657
33.8558 6.28653
33.8858 6.72094
33.9159 7.40401
33.9459 8.52715
33.9760 10.4030
34.0100 13.6145
34.0440 15.7593
34.0780 13.6256
34.1120 10.4188
34.1482 8.26813
34.1843 7.10677
34.2204 6.45596
34.2566 6.06665
34.3289 5.65317
34.4012 5.45413
34.5457 5.28111
34.6903 5.21532
34.9795 5.18053
35.2686 5.19360
35.8469 5.29908
36.4252 5.55139
36.7144 5.78690
37.0035 6.16767
37.2927 6.82317
37.5818 8.06002
37.7264 9.11945
37.8710 10.7460
38.0155 13.4057
38.1601 18.1486
38.3047 27.7539
38.3770 36.6740
38.4493 51.5964
38.5215 79.1599
38.5577 102.483
38.5938 137.949
38.6300 195.152
38.6481 237.474
38.6661 294.214
38.6842 371.899
38.7023 480.366
38.7203 633.806
38.7384 849.611
38.7538 1090.83
38.7692 1368.25
38.8000 1723.75
38.8154 1629.30
38.8308 1391.21
38.8616 878.332
38.8834 625.445
38.9051 456.675
38.9269 343.994
38.9486 267.020
38.9921 173.521
39.0356 121.981
39.0792 90.8922
39.1227 70.7919
39.2097 47.3052
39.2967 34.6380
39.3837 27.0298
39.4707 22.0974
39.5578 18.7126
39.7318 14.4815
39.9058 12.0251
40.0799 10.4651
40.2539 9.40813
40.6020 8.09963
40.9501 7.34341
41.2981 6.86229
41.6462 6.53455
42.3424 6.12419
43.0385 5.88234
43.7347 5.72507
44.4308 5.61542
45.8231 5.47332
47.2154 5.38527
48.6077 5.32500
50.0000 5.28073
53.0453 5.21422
56.0905 5.16949
62.1810 5.10876
68.2715 5.06578
69.7941 5.05703
71.3168 5.05013
72.0781 5.04881
72.4587 5.04972
72.8394 5.05314
73.2200 5.06269
73.4104 5.07295
73.6007 5.09183
73.7910 5.13088
73.8862 5.16762
73.9814 5.22982
74.0765 5.34687
74.1241 5.44796
74.1717 5.60520
74.2193 5.86722
74.2668 6.34447
74.2906 6.73829
74.3144 7.31503
74.3382 8.17963
74.3620 9.47522
74.3960 12.1439
74.4300 13.9240
74.4640 12.1468
74.4980 9.47852
74.5229 8.13329
74.5478 7.25291
74.5727 6.67520
74.5976 6.28610
74.6474 5.82085
74.6972 5.56868
74.7471 5.41848
74.7969 5.32233
74.8965 5.21121
74.9961 5.15197
75.0957 5.11666
75.2949 5.07823
75.4942 5.05859
75.6934 5.04697
76.0919 5.03390
76.4904 5.02650
76.8888 5.02143
77.6858 5.01417
79.2796 5.00348
80.8735 4.99426
87.2490 4.95963
93.6245 4.92329
100.000 4.88029
105.121 4.83480
107.681 4.80501
110.242 4.76721
111.522 4.74401
112.802 4.71708
114.082 4.68600
115.362 4.65203
116.002 4.63618
116.643 4.62519
117.283 4.62823
117.923 4.67093
118.243 4.72823
118.563 4.83796
118.883 5.05335
119.203 5.50508
119.363 5.91809
119.523 6.57917
119.683 7.70499
119.843 9.79624
119.923 11.5585
120.003 14.2199
120.083 18.4722
120.163 25.8022
120.243 39.8656
120.283 52.1881
120.323 71.5597
120.343 85.6098
120.363 104.188
120.383 129.334
120.403 164.275
120.423 214.247
120.443 287.830
120.463 398.729
120.483 565.773
120.512 911.287
120.540 1150.96
120.555 1090.56
120.569 932.327
120.598 590.091
120.623 390.149
120.649 269.621
120.674 195.510
120.699 147.929
120.750 93.6102
120.801 65.3330
120.851 48.8590
120.902 38.4398
121.003 26.4859
121.104 20.1200
121.205 16.3205
121.307 13.8595
121.408 12.1689
121.610 10.0508
121.813 8.82353
122.015 8.05659
122.218 7.56316
122.622 7.11391
122.825 7.15119
123.027 7.47549
123.230 8.42215
123.331 9.42758
123.432 11.2408
123.533 14.8548
123.584 18.1110
123.635 23.3548
123.685 32.4705
123.736 50.0438
123.761 65.3450
123.786 88.8988
123.812 126.461
123.837 186.912
123.869 300.231
123.900 379.588
123.932 309.071
123.963 197.938
123.997 122.325
124.030 81.0467
124.064 57.6905
124.097 43.5707
124.131 34.4896
124.164 28.3374
124.231 20.8009
124.298 16.5391
124.365 13.8923
124.499 10.8969
124.633 9.31351
124.767 8.36446
125.035 7.31177
125.303 6.75478
125.571 6.41466
126.107 6.02168
126.643 5.80017
127.179 5.65657
128.250 5.47866
129.322 5.37070
130.394 5.29708
132.538 5.20142
134.682 5.14062
136.825 5.09759
141.113 5.03868
145.400 4.99801
149.687 4.96630
153.975 4.93939
158.262 4.91540
158.330 4.91519
158.398 4.91468
158.644 4.91323
158.889 4.91193
159.380 4.90938
160.362 4.90447
162.325 4.89631
163.307 4.89479
163.798 4.89602
164.289 4.90052
164.779 4.91310
165.025 4.92672
165.270 4.95204
165.516 5.00528
165.639 5.05623
165.761 5.14421
165.884 5.31484
165.945 5.46719
166.007 5.71193
166.068 6.14099
166.129 6.98284
166.160 7.73578
166.191 8.92863
166.221 10.9080
166.252 14.2350
166.286 19.8482
166.320 23.5881
166.354 19.8508
166.388 14.2380
166.417 11.0365
166.446 9.08674
166.475 7.88451
166.504 7.11455
166.562 6.23526
166.621 5.78018
166.679 5.51713
166.737 5.35221
166.853 5.16539
166.969 5.06765
167.085 5.01022
167.318 4.94855
167.550 4.91748
167.783 4.89933
168.248 4.87924
168.712 4.86810
169.177 4.86056
170.107 4.84986
171.967 4.83366
173.826 4.81857
177.545 4.78538
181.264 4.74304
183.124 4.71600
184.983 4.68285
186.843 4.64088
188.702 4.58588
189.632 4.55177
190.562 4.51249
191.491 4.46884
192.421 4.42713
192.886 4.41427
193.351 4.41849
193.816 4.46446
194.281 4.61833
194.513 4.78867
194.745 5.09119
194.978 5.65379
195.210 6.78464
195.327 7.79075
195.443 9.36862
195.559 11.9955
195.675 16.7410
195.791 26.3984
195.849 35.3306
195.908 50.1211
195.937 61.3911
195.966 76.8686
195.995 98.9824
196.024 131.608
196.053 182.391
196.082 265.234
196.111 409.042
196.125 518.479
196.140 663.548
196.170 1079.98
196.200 1373.57
196.230 1120.21
196.260 715.685
196.289 455.397
196.319 305.840
196.348 217.497
196.377 162.422
196.406 126.104
196.436 101.189
196.494 70.1492
196.552 52.2855
196.611 41.0990
196.728 28.3329
196.845 21.5498
196.961 17.4919
197.078 14.8549
197.195 13.0358
197.429 10.7330
197.663 9.37049
197.896 8.48750
198.130 7.87832
198.598 7.10905
199.065 6.66530
199.533 6.41893
199.766 6.37128
200.000 6.41356
200.178 6.58261
200.267 6.76985
200.356 7.10544
200.445 7.75498
200.490 8.31972
200.534 9.19595
200.579 10.6426
200.623 13.2298
200.668 18.3250
200.690 22.7272
200.712 29.1075
200.746 42.9651
200.780 52.1608
200.814 42.9541
200.848 29.0809
200.888 19.1051
200.927 13.9934
200.967 11.2377
201.006 9.63165
201.046 8.62143
201.085 7.95123
201.165 7.14369
201.244 6.69345
201.323 6.41568
201.481 6.09905
201.639 5.92624
201.798 5.81714
202.114 5.68330
202.430 5.59975
202.747 5.53935
203.380 5.45264
204.646 5.34079
205.912 5.26703
208.443 5.17201
210.975 5.11212
213.507 5.07053
216.039 5.04065
217.304 5.03003
217.937 5.02651
218.570 5.02541
219.203 5.02978
219.520 5.03683
219.836 5.05162
220.153 5.08503
220.311 5.11823
220.469 5.17703
220.627 5.29474
220.706 5.40278
220.786 5.58185
220.865 5.90905
220.904 6.18395
220.944 6.59826
220.983 7.26299
221.023 8.40143
221.062 10.5232
221.102 14.6634
221.136 20.4782
221.170 24.3413
221.204 20.4620
221.238 14.6654
221.265 11.6043
221.291 9.65673
221.317 8.40538
221.343 7.57580
221.396 6.59919
221.449 6.07967
221.501 5.77306
221.554 5.57870
221.659 5.35560
221.765 5.23766
221.870 5.16783
222.080 5.09251
222.291 5.05451
222.502 5.03238
222.923 5.00822
223.344 4.99526
223.765 4.98691
224.607 4.97599
226.292 4.96211
227.976 4.95170
231.345 4.93461
234.714 4.92009
241.452 4.89537
248.190 4.87405
261.666 4.83633
265.035 4.82748
268.404 4.81907
270.089 4.81543
271.773 4.81344
272.615 4.81469
273.458 4.82221
273.879 4.83427
274.089 4.84652
274.300 4.86859
274.510 4.91385
274.616 4.95646
274.721 5.02888
274.826 5.16667
274.879 5.28731
274.931 5.47717
274.984 5.80049
275.037 6.40647
275.063 6.92214
275.089 7.70018
275.116 8.91124
275.142 10.8057
275.176 14.4146
275.210 16.8112
275.244 14.4045
275.278 10.8070
275.300 9.19908
275.321 8.08118
275.364 6.76269
275.407 6.08074
275.450 5.69378
275.493 5.45620
275.536 5.30090
275.622 5.11787
275.708 5.01867
275.794 4.95905
275.966 4.89408
276.138 4.86123
276.310 4.84225
276.654 4.82207
276.998 4.81183
277.342 4.80570
278.030 4.79851
279.406 4.79077
280.782 4.78547
283.533 4.77652
286.285 4.76811
289.037 4.75999
291.788 4.75305
293.164 4.75146
293.852 4.75221
294.540 4.75553
295.228 4.76529
295.572 4.77609
295.916 4.79648
296.088 4.81381
296.260 4.84016
296.432 4.88279
296.604 4.95783
296.776 5.10811
296.862 5.24674
296.948 5.47809
297.034 5.90568
297.077 6.26886
297.120 6.82468
297.163 7.73026
297.206 9.32644
297.249 12.4124
297.270 15.0282
297.292 18.7690
297.326 27.2001
297.360 32.8243
297.394 27.2025
297.428 18.7718
297.450 15.0016
297.471 12.3844
297.515 9.30779
297.558 7.71452
297.601 6.81330
297.644 6.25897
297.687 5.89762
297.773 5.47176
297.860 5.24076
297.946 5.10222
298.118 4.95131
298.291 4.87520
298.463 4.83145
298.636 4.80389
298.808 4.78531
299.154 4.76233
299.499 4.74892
300.189 4.73387
300.879 4.72522
301.569 4.71912
302.949 4.70992
305.709 4.69482
308.469 4.68001
313.990 4.64646
319.510 4.60310
325.031 4.54099
327.791 4.49685
330.551 4.43654
333.312 4.34660
334.692 4.28143
336.072 4.19231
336.762 4.13404
337.452 4.06256
338.142 3.97346
338.832 3.86210
339.177 3.79806
339.522 3.73202
339.867 3.67553
340.212 3.66676
340.385 3.71452
340.557 3.84587
340.730 4.15518
340.902 4.88016
340.989 5.57996
341.075 6.73284
341.161 8.74449
341.247 12.5382
341.291 15.7651
341.334 20.6343
341.377 28.3912
341.398 34.0870
341.420 41.6421
341.442 52.0190
341.463 66.6588
341.485 88.1002
341.506 120.795
341.528 174.067
341.549 266.245
341.560 338.919
341.571 440.425
341.582 583.966
341.592 783.608
341.611 1282.80
341.630 1642.08
341.649 1346.37
341.668 863.082
341.683 588.938
341.699 416.395
341.714 307.010
341.730 235.128
341.761 151.080
341.792 106.249
341.823 79.6736
341.854 62.6369
341.916 42.7920
341.978 32.0438
342.040 25.5249
342.102 21.2457
342.164 18.2722
342.288 14.4713
342.411 12.2002
342.535 10.7145
342.659 9.68054
342.907 8.35166
343.155 7.54594
343.403 7.01078
343.651 6.63173
344.147 6.13305
344.643 5.82067
345.138 5.60650
345.634 5.44991
346.626 5.23382
347.617 5.08798
349.601 4.88914
350.592 4.81032
351.584 4.73595
352.576 4.66159
353.567 4.58484
354.063 4.54664
354.559 4.51210
355.055 4.49042
355.550 4.50900
355.798 4.55664
356.046 4.66182
356.294 4.88455
356.542 5.37237
356.666 5.82591
356.790 6.55544
356.914 7.79753
357.038 10.0804
357.162 14.7983
357.224 19.1967
357.286 26.4924
357.348 39.7208
357.379 50.6239
357.410 66.7254
357.441 91.5869
357.472 131.982
357.487 161.740
357.503 201.055
357.518 253.233
357.534 321.398
357.567 525.436
357.600 672.400
357.617 640.947
357.633 552.383
357.667 355.889
357.687 266.977
357.708 204.045
357.749 128.342
357.791 88.1250
357.832 64.7887
357.873 50.1763
357.914 40.4513
357.997 28.7202
358.080 22.1583
358.162 18.1094
358.328 13.5344
358.493 11.1116
358.658 9.65730
358.823 8.70483
358.989 8.04184
359.319 7.19101
359.650 6.67648
359.980 6.33560
360.310 6.09475
360.971 5.77845
361.632 5.58067
362.293 5.44514
362.954 5.34614
364.276 5.20997
365.598 5.11924
366.920 5.05309
368.242 5.00172
370.886 4.92450
373.530 4.86611
378.817 4.77402
384.105 4.69151
389.392 4.60066
392.036 4.54500
393.358 4.51228
394.680 4.47464
396.002 4.43054
396.663 4.40619
397.324 4.38252
397.654 4.37323
397.985 4.36924
398.315 4.37796
398.646 4.41888
398.811 4.46677
398.976 4.55284
399.142 4.71300
399.307 5.03134
399.472 5.74219
399.555 6.44578
399.637 7.67937
399.720 10.0767
399.761 12.1892
399.802 15.5142
399.844 21.1022
399.885 31.3149
399.926 51.9764
399.947 70.2534
399.968 97.2767
399.999 157.130
400.030 200.499
400.061 165.451
400.092 107.679
400.113 80.8011
400.133 62.0083
400.173 39.7419
400.213 28.0933
400.253 21.3999
400.293 17.2270
400.333 14.4698
400.413 11.1560
400.494 9.30743
400.574 8.16811
400.734 6.87984
400.895 6.19651
401.055 5.78441
401.216 5.51315
401.376 5.32285
401.697 5.07552
402.018 4.92237
402.660 4.74107
403.302 4.63346
403.944 4.55805
405.228 4.44855
407.796 4.27647
410.364 4.09328
411.648 3.98303
412.932 3.85297
414.216 3.69733
415.500 3.51462
416.142 3.41880
416.784 3.33400
417.426 3.29490
418.068 3.40355
418.389 3.59926
418.710 4.00700
419.031 4.84682
419.352 6.65725
419.512 8.32584
419.673 10.9975
419.833 15.5159
419.914 18.9838
419.994 23.7673
420.074 30.5819
420.154 40.6298
420.235 56.1929
420.315 81.7373
420.395 127.303
420.435 164.202
420.475 217.821
420.516 298.866
420.556 426.833
420.596 637.426
420.636 989.075
420.683 1626.84
420.730 2091.25
420.777 1720.67
420.824 1106.40
420.862 766.262
420.899 548.228
420.937 407.839
420.974 314.657
421.049 204.086
421.124 144.325
421.199 108.574
421.274 85.5007
421.424 58.4353
421.573 43.6638
421.723 34.6703
421.873 28.7527
422.023 24.6380
422.323 19.4540
422.622 16.6328
422.772 15.9591
422.922 16.1603
422.997 17.0399
423.072 19.3404
423.109 21.7008
423.147 25.7917
423.184 33.3442
423.221 47.6625
423.256 68.7239
423.290 82.7213
423.324 68.4620
423.359 47.1349
423.393 33.2710
423.428 25.5356
423.463 21.0419
423.498 18.2732
423.567 15.1809
423.637 13.5611
423.706 12.5767
423.776 11.9102
423.915 11.0411
424.193 10.0440
424.470 9.41726
425.026 8.58541
425.582 8.02537
426.694 7.29609
427.806 6.83729
428.917 6.52108
430.029 6.28962
432.253 5.97246
434.476 5.76369
436.699 5.61390
441.146 5.40604
445.593 5.25409
447.817 5.18371
450.040 5.10875
452.264 5.01871
453.375 4.96210
454.487 4.89217
455.043 4.85037
455.599 4.80330
456.155 4.75202
456.711 4.70385
456.989 4.68909
457.267 4.69354
457.544 4.74400
457.822 4.91131
457.961 5.09457
458.100 5.41677
458.239 6.00786
458.378 7.17209
458.517 9.75328
458.587 12.2956
458.656 16.7208
458.726 25.2593
458.760 32.7311
458.795 44.3513
458.830 63.6862
458.865 98.2436
458.882 126.228
458.899 166.021
458.917 224.223
458.934 308.096
458.962 504.746
458.990 648.267
459.018 534.565
459.046 345.380
459.075 217.962
459.103 146.089
459.132 104.376
459.161 78.7387
459.189 61.9286
459.218 50.4336
459.275 36.1130
459.333 27.8675
459.390 22.6891
459.505 16.7426
459.619 13.5492
459.734 11.6184
459.849 10.3491
459.963 9.46275
460.192 8.32388
460.422 7.63567
460.651 7.18086
460.880 6.86068
461.339 6.44292
461.797 6.18456
462.256 6.00975
462.714 5.88379
463.631 5.71426
464.548 5.60497
465.466 5.52811
466.383 5.47069
468.217 5.38952
470.051 5.33379
473.719 5.25971
477.387 5.21058
481.056 5.17432
484.724 5.14604
486.558 5.13509
487.475 5.13432
487.934 5.14829
488.163 5.19479
488.277 5.29755
488.335 5.44899
488.363 5.59786
488.392 5.83976
488.426 6.26999
488.460 6.55667
488.494 6.26965
488.528 5.83903
488.573 5.50319
488.618 5.34584
488.707 5.22113
488.887 5.15474
489.245 5.12779
489.962 5.11603
491.396 5.10622
494.264 5.09161
500.000 5.06735
506.568 5.04459
513.136 5.02597
516.420 5.01835
519.704 5.01296
521.346 5.01253
522.988 5.01775
523.809 5.02766
524.219 5.03810
524.630 5.05741
525.040 5.09829
525.245 5.13811
525.451 5.20848
525.553 5.26591
525.656 5.35070
525.758 5.48343
525.861 5.70805
525.964 6.13253
526.015 6.50170
526.066 7.08077
526.118 8.05794
526.169 9.87342
526.195 11.4061
526.220 13.6865
526.246 17.2050
526.271 22.6068
526.306 33.1621
526.340 40.1956
526.374 33.1632
526.409 22.6083
526.433 17.4811
526.457 14.0582
526.481 11.7742
526.505 10.2142
526.553 8.32290
526.601 7.28383
526.649 6.65968
526.697 6.25800
526.793 5.79194
526.889 5.54321
526.985 5.39544
527.177 5.23649
527.369 5.15751
527.560 5.11288
527.944 5.06744
528.328 5.04685
528.712 5.03704
529.480 5.03387
530.248 5.04978
530.632 5.07023
531.016 5.10959
531.208 5.14315
531.400 5.19424
531.592 5.27702
531.784 5.42325
531.880 5.54234
531.976 5.71792
532.072 5.99188
532.167 6.45253
532.263 7.31650
532.311 8.06118
532.359 9.21834
532.407 11.1447
532.455 14.6506
532.479 17.5418
532.503 21.7739
532.527 28.1140
532.551 37.5587
532.586 57.1277
532.620 70.1214
532.654 57.0707
532.689 37.5632
532.710 28.9411
532.731 22.9396
532.774 15.8013
532.817 12.0765
532.859 9.95054
532.902 8.64021
532.944 7.78133
533.030 6.76674
533.115 6.21575
533.200 5.88453
533.370 5.52392
533.541 5.34243
533.711 5.23844
533.882 5.17332
534.052 5.12982
534.393 5.07697
534.734 5.04717
535.415 5.01611
536.097 5.00068
536.779 4.99158
538.142 4.98115
540.869 4.97060
543.595 4.96417
546.322 4.95945
549.048 4.95676
550.412 4.95750
551.775 4.96376
552.457 4.97425
552.797 4.98510
553.138 5.00499
553.479 5.04684
553.650 5.08731
553.820 5.15830
553.990 5.29987
554.076 5.43015
554.161 5.64714
554.246 6.04717
554.289 6.38611
554.331 6.90362
554.374 7.74405
554.416 9.21851
554.459 12.0493
554.480 14.4333
554.502 17.8434
554.536 25.5974
554.570 30.7479
554.604 25.5749
554.639 17.8454
554.675 12.6780
554.711 9.87659
554.747 8.30177
554.783 7.35624
554.820 6.75248
554.856 6.34648
554.928 5.85452
555.001 5.58073
555.073 5.41346
555.218 5.22862
555.363 5.13432
555.507 5.07982
555.797 5.02247
556.087 4.99438
556.376 4.97847
556.955 4.96182
558.114 4.94854
559.272 4.94277
561.588 4.93671
563.905 4.93291
566.222 4.93033
568.538 4.93001
569.697 4.93260
570.855 4.94281
571.434 4.95809
571.724 4.97345
572.013 5.00120
572.303 5.05878
572.448 5.11388
572.592 5.20958
572.737 5.39761
572.810 5.56799
572.882 5.84707
572.954 6.34884
572.991 6.76310
573.027 7.37929
573.063 8.34455
573.099 9.95257
573.135 12.8135
573.172 18.0706
573.206 25.9729
573.240 31.2206
573.274 25.9518
573.309 18.0750
573.338 13.5798
573.367 10.8425
573.396 9.15480
573.426 8.07400
573.484 6.83845
573.543 6.20056
573.601 5.83147
573.660 5.60066
573.777 5.33950
573.894 5.20323
574.011 5.12350
574.245 5.03862
574.479 4.99673
574.713 4.97296
575.181 4.94820
576.118 4.92900
577.054 4.92115
578.927 4.91297
579.864 4.90845
580.332 4.90277
580.566 4.89286
580.683 4.87387
580.741 4.83689
580.771 4.76557
580.785 4.63401
580.793 4.41297
580.796 4.12672
580.798 4.16599
580.799 6.23149
580.800 18.7759
580.800 50.7944
580.800 117.050
580.800 202.317
580.800 380.188
580.800 808.093
580.800 665.627
580.800 432.816
580.800 237.718
580.800 146.736
580.800 50.3134
580.801 19.4067
580.802 10.4550
580.803 7.04562
580.806 5.83614
580.812 5.33612
580.823 5.11316
580.847 5.00980
580.893 4.95988
580.987 4.93526
581.173 4.92283
581.546 4.91618
582.291 4.91201
583.783 4.90835
586.765 4.90371
592.731 4.89628
604.661 4.88311
616.592 4.87093
622.557 4.86544
625.539 4.86418
627.031 4.86888
627.404 4.87454
627.776 4.89020
627.963 4.91048
628.149 4.96112
628.242 5.02052
628.336 5.15072
628.382 5.28188
628.429 5.51905
628.475 5.99601
628.499 6.41628
628.522 7.04029
628.556 8.35139
628.590 9.22231
628.624 8.34771
628.658 7.04077
628.693 6.18274
628.728 5.71060
628.763 5.44215
628.798 5.28003
628.869 5.10499
628.939 5.01922
629.079 4.94178
629.219 4.90915
629.500 4.88267
629.780 4.87233
630.902 4.86085
633.147 4.85611
637.635 4.85226
639.879 4.85169
642.123 4.85413
643.245 4.85933
644.367 4.87562
644.929 4.89855
645.209 4.92119
645.490 4.96176
645.770 5.04536
645.910 5.12506
646.051 5.26293
646.191 5.53293
646.261 5.77649
646.331 6.17383
646.401 6.88542
646.436 7.46994
646.471 8.33207
646.506 9.67635
646.541 11.8861
646.577 15.7718
646.612 22.7841
646.646 33.5699
646.680 40.7335
646.714 33.5335
646.749 22.7806
646.771 17.7443
646.794 14.3330
646.840 10.4094
646.886 8.42835
646.931 7.32593
646.977 6.65549
647.022 6.22190
647.114 5.71501
647.205 5.44227
647.296 5.27948
647.479 5.10352
647.661 5.01550
647.844 4.96534
648.209 4.91323
648.574 4.88811
648.939 4.87409
649.669 4.85982
651.130 4.84972
652.590 4.84767
654.050 4.85111
654.780 4.85645
655.511 4.86733
656.241 4.89179
656.606 4.91642
656.971 4.96110
657.153 4.99838
657.336 5.05457
657.519 5.14496
657.701 5.30368
657.884 5.62165
657.975 5.91579
658.066 6.40789
658.157 7.32420
658.203 8.10705
658.249 9.31350
658.294 11.3044
658.340 14.8606
658.386 21.8968
658.408 27.9981
658.431 36.9375
658.466 56.2450
658.500 69.0734
658.535 56.1909
658.569 36.9445
658.595 26.8461
658.622 20.3795
658.648 16.2186
658.675 13.4659
658.728 10.2125
658.781 8.47924
658.834 7.45562
658.887 6.80669
658.992 6.06274
659.098 5.66982
659.204 5.43805
659.310 5.29014
659.416 5.19014
659.628 5.06728
659.839 4.99763
660.263 4.92553
660.686 4.89076
661.110 4.87126
661.957 4.85104
662.804 4.84102
663.651 4.83511
665.345 4.82827
668.732 4.82108
672.120 4.81638
675.508 4.81269
678.896 4.81045
680.590 4.81097
682.284 4.81604
683.131 4.82469
683.978 4.85031
684.401 4.88555
684.613 4.91996
684.825 4.98090
685.036 5.10445
685.142 5.22016
685.248 5.41635
685.354 5.78911
685.407 6.11447
685.460 6.62709
685.513 7.49984
685.566 9.13532
685.592 10.5303
685.619 12.6271
685.645 15.9040
685.672 21.0117
685.706 30.7644
685.740 37.2456
685.774 30.7360
685.809 21.0141
685.842 14.8773
685.875 11.4063
685.909 9.38333
685.942 8.13704
685.976 7.32634
686.009 6.77365
686.076 6.09458
686.143 5.71107
686.210 5.47508
686.343 5.21214
686.477 5.07693
686.610 4.99854
686.878 4.91582
687.145 4.87535
687.412 4.85253
687.947 4.82897
689.016 4.81117
690.085 4.80462
691.154 4.80201
692.224 4.80278
692.758 4.80596
693.293 4.81589
693.560 4.82928
693.827 4.86404
693.961 4.90693
694.095 5.00789
694.162 5.11873
694.228 5.34164
694.262 5.54579
694.295 5.87780
694.329 6.44900
694.362 7.45812
694.396 9.05810
694.430 10.1212
694.464 9.05366
694.498 7.45891
694.527 6.54526
694.557 5.99224
694.586 5.65077
694.615 5.43258
694.674 5.18406
694.732 5.05583
694.849 4.93575
694.966 4.88382
695.200 4.84164
695.434 4.82610
695.902 4.81749
696.369 4.82107
696.837 4.83688
697.305 4.88514
697.539 4.94934
697.656 5.01006
697.773 5.11385
697.890 5.31320
697.948 5.48936
698.007 5.76965
698.065 6.25453
698.124 7.18868
698.153 8.00732
698.182 9.27209
698.211 11.3095
698.241 14.6281
698.275 20.5264
698.310 24.4570
698.345 20.5276
698.379 14.6295
698.408 11.3642
698.437 9.33888
698.465 8.07083
698.494 7.24930
698.551 6.30031
698.608 5.80388
698.665 5.51468
698.722 5.33301
698.836 5.12661
698.951 5.01854
699.065 4.95522
699.293 4.88784
699.750 4.83624
700.207 4.81770
701.121 4.80651
702.035 4.80842
702.949 4.82279
703.406 4.83939
703.863 4.87074
704.320 4.93801
704.549 5.00403
704.777 5.12147
704.891 5.21779
705.006 5.36065
705.120 5.58587
705.234 5.96993
705.348 6.70577
705.406 7.35385
705.463 8.38453
705.520 10.1587
705.577 13.5574
705.605 16.5186
705.634 21.0662
705.663 28.3683
705.691 40.1233
705.726 61.3208
705.760 75.4499
705.795 61.3329
705.829 40.1384
705.870 24.8047
705.911 17.0522
705.951 12.9146
705.992 10.5175
706.033 9.02476
706.074 8.03907
706.155 6.86725
706.237 6.22548
706.318 5.83835
706.482 5.41480
706.645 5.20077
706.808 5.07800
706.971 5.00106
707.134 4.94965
707.460 4.88725
707.787 4.85217
708.439 4.81588
709.091 4.79810
709.744 4.78781
711.049 4.77636
713.659 4.76524
716.268 4.75839
721.488 4.74737
726.708 4.73674
737.147 4.71323
747.587 4.68394
758.026 4.64438
763.246 4.61810
768.465 4.58454
773.685 4.53886
776.295 4.50837
778.905 4.46920
781.515 4.41531
782.820 4.37900
784.125 4.33234
784.777 4.30346
785.430 4.26964
786.082 4.23002
786.734 4.18514
787.061 4.16266
787.387 4.14413
787.713 4.13876
788.039 4.17260
788.203 4.22563
788.366 4.33132
788.529 4.54199
788.692 4.98254
788.855 6.00271
788.937 7.03321
789.018 8.85535
789.100 12.4199
789.140 15.5621
789.181 20.4776
789.222 28.6946
789.242 34.9443
789.263 43.5055
789.283 55.5125
789.304 72.7413
789.324 97.8795
789.344 134.235
789.361 173.905
789.377 220.096
789.410 284.029
789.427 272.265
789.443 236.233
789.476 154.413
789.499 113.430
789.522 85.5742
789.544 66.6113
789.567 53.4268
789.613 37.0518
789.658 27.8187
789.704 22.1145
789.750 18.3615
789.841 13.8608
789.932 11.3480
790.023 9.79341
790.115 8.75502
790.206 8.02360
790.389 7.07459
790.571 6.49706
790.754 6.11370
790.936 5.84297
791.301 5.48875
791.666 5.26876
792.031 5.11902
792.396 5.01020
793.126 4.86106
793.856 4.76131
795.316 4.62831
796.777 4.53343
798.237 4.45222
801.157 4.28984
802.617 4.19481
804.077 4.08048
805.537 3.93554
806.997 3.74212
807.727 3.61877
808.457 3.47183
809.188 3.29786
809.918 3.10308
810.283 3.01066
810.648 2.94586
811.013 2.96318
811.378 3.21376
811.560 3.54902
811.743 4.18585
811.925 5.41710
812.017 6.44247
812.108 7.93388
812.199 10.1701
812.290 13.6418
812.382 19.3160
812.473 29.2064
812.518 37.0511
812.564 48.1744
812.610 64.5545
812.655 89.7659
812.701 130.862
812.747 202.135
812.792 335.434
812.815 444.414
812.838 596.751
812.879 991.879
812.920 1287.36
812.961 1070.22
813.002 695.973
813.041 457.353
813.080 315.132
813.118 228.924
813.157 174.067
813.234 111.756
813.311 79.3105
813.388 60.2458
813.465 48.0703
813.620 33.8796
813.774 26.1320
813.928 21.3868
814.083 18.2353
814.237 16.0162
814.546 13.1364
814.854 11.3765
815.163 10.2032
815.472 9.37141
816.089 8.27834
816.706 7.59780
817.324 7.13579
817.941 6.80263
819.176 6.35542
820.410 6.06959
821.645 5.87118
822.880 5.72530
825.349 5.52462
827.818 5.39234
830.288 5.29780
832.757 5.22617
837.696 5.12255
842.634 5.04757
847.573 4.98666
848.808 4.97377
850.042 4.96519
850.660 4.96687
851.277 4.98523
851.586 5.01627
851.894 5.10436
852.049 5.21806
852.126 5.32258
852.203 5.49534
852.280 5.81035
852.319 6.07355
852.357 6.46825
852.396 7.09715
852.434 8.16688
852.473 10.1276
852.512 13.8761
852.546 19.2559
852.580 22.8276
852.614 19.2397
852.649 13.8760
852.672 11.3439
852.695 9.63402
852.718 8.47151
852.741 7.67168
852.787 6.68729
852.833 6.13956
852.879 5.80759
852.925 5.59248
853.017 5.34110
853.109 5.20536
853.202 5.12393
853.386 5.03456
853.754 4.96096
854.123 4.92950
854.860 4.89791
855.598 4.87745
857.072 4.84096
858.547 4.79871
859.284 4.77266
860.021 4.74153
860.758 4.70338
861.496 4.65607
861.864 4.62877
862.233 4.60016
862.601 4.57424
862.970 4.56448
863.154 4.57779
863.339 4.62040
863.523 4.72511
863.707 4.97301
863.800 5.21113
863.892 5.59937
863.984 6.26479
864.076 7.48393
864.168 9.96220
864.214 12.2168
864.260 15.8439
864.306 22.1221
864.352 33.9921
864.376 44.0860
864.399 59.1111
864.422 82.1243
864.445 117.460
864.461 152.192
864.477 193.019
864.510 249.790
864.526 240.018
864.543 208.642
864.576 137.287
864.610 87.4432
864.645 59.6355
864.679 43.5766
864.714 33.7002
864.748 27.2522
864.783 22.8243
864.852 17.3056
864.921 14.1161
864.990 12.0969
865.128 9.75762
865.266 8.48640
865.404 7.70776
865.542 7.19014
865.680 6.82500
865.956 6.34952
866.232 6.05744
866.508 5.86159
866.784 5.72190
867.336 5.53685
867.888 5.42031
868.440 5.34028
868.992 5.28191
870.096 5.20222
871.200 5.15009
872.304 5.11313
873.408 5.08552
875.616 5.04785
877.824 5.02889
878.929 5.03115
879.481 5.03973
880.033 5.05998
880.585 5.10858
880.861 5.15853
881.137 5.24949
881.275 5.32516
881.413 5.43866
881.551 5.61953
881.689 5.93274
881.827 6.54491
881.896 7.09621
881.965 7.99308
882.034 9.58911
882.068 10.8929
882.103 12.8121
882.137 15.7760
882.172 20.6169
882.206 28.9936
882.241 43.8990
882.275 67.2404
882.310 82.7963
882.345 67.2484
882.379 43.9087
882.407 31.2711
882.435 23.3481
882.463 18.3079
882.490 15.0143
882.546 11.1761
882.601 9.15413
882.657 7.96872
882.712 7.22084
882.823 6.36679
882.934 5.91798
883.045 5.65374
883.156 5.48521
883.267 5.37114
883.489 5.23087
883.710 5.15092
884.154 5.06715
884.598 5.02564
885.041 5.00143
885.928 4.97438
887.703 4.94858
889.477 4.93380
893.026 4.91326
896.575 4.89713
903.673 4.87001
910.771 4.84592
924.966 4.79943
932.064 4.77451
935.613 4.76096
937.387 4.75372
938.274 4.75031
938.718 4.75099
938.940 4.76033
939.051 4.78672
939.106 4.83172
939.162 4.96769
939.220 5.22718
939.279 5.00685
939.364 4.82801
939.450 4.78471
939.622 4.76099
939.965 4.74995
940.652 4.74342
942.025 4.73606
944.771 4.72292
950.264 4.69446
955.757 4.66057
961.250 4.61838
966.743 4.56330
972.236 4.48691
974.982 4.43605
977.729 4.37275
979.102 4.33556
980.475 4.29612
981.162 4.27874
981.848 4.27321
982.192 4.28785
982.535 4.34997
982.707 4.44024
982.793 4.52650
982.878 4.67286
982.964 4.94672
983.007 5.18027
983.050 5.53839
983.093 6.12234
983.136 7.15122
983.179 9.13681
983.200 10.8211
983.222 13.2277
983.256 18.6657
983.290 22.2932
983.324 18.6646
983.358 13.2237
983.382 10.6395
983.405 8.89576
983.428 7.72071
983.452 6.91440
983.498 5.92450
983.545 5.37463
983.591 5.04133
983.638 4.82503
983.731 4.57090
983.824 4.43224
983.917 4.34764
984.103 4.25145
984.475 4.16275
984.847 4.11488
985.591 4.04686
986.335 3.98487
987.823 3.84744
988.567 3.77327
988.939 3.76834
989.032 3.79628
989.125 3.88047
989.172 3.97967
989.218 4.17934
989.265 4.63378
989.288 5.08033
989.311 5.80138
989.341 7.19370
989.370 8.22337
989.399 7.43381
989.429 6.09570
989.454 5.28686
989.480 4.79065
989.532 4.27872
989.583 4.04192
989.634 3.91359
989.737 3.78135
989.840 3.71278
990.252 3.58251
991.074 3.41669
991.897 3.25059
992.720 3.08858
993.132 3.03090
993.543 3.02545
993.954 3.14861
994.366 3.60158
994.572 4.10889
994.777 5.00437
994.983 6.64182
995.086 7.95908
995.189 9.83085
995.292 12.5703
995.394 16.7147
995.497 23.2883
995.600 34.3335
995.652 42.8088
995.703 54.4875
995.754 71.0862
995.806 95.5069
995.857 133.006
995.909 193.016
995.960 293.492
996.012 464.638
996.071 775.466
996.130 1011.09
996.189 844.257
996.249 551.324
996.307 355.872
996.366 242.546
996.424 175.206
996.483 132.944
996.542 104.909
996.600 85.4897
996.718 61.0200
996.835 46.7182
996.952 37.6091
997.186 26.9869
997.421 21.1784
997.655 17.6084
997.890 15.2300
998.124 13.5504
998.593 11.3606
999.062 10.0144
999.531 9.11215
1000.00 8.46935
1000.70 7.79417
1001.41 7.32737
1002.81 6.72629
1004.21 6.35769
1005.62 6.10930
1007.02 5.93079
1008.43 5.79638
1011.23 5.60745
1014.04 5.48085
1016.85 5.39002
1022.47 5.26788
1028.08 5.18899
1033.70 5.13345
1036.51 5.11141
1039.32 5.09249
1042.12 5.07842
1043.53 5.08276
1043.88 5.09288
1044.23 5.12291
1044.41 5.16272
1044.58 5.26159
1044.67 5.37745
1044.76 5.62888
1044.80 5.87900
1044.85 6.32423
1044.89 7.19692
1044.91 7.94550
1044.93 8.97222
1044.97 11.3115
1045.00 12.8675
1045.03 11.3121
1045.07 8.97271
1045.10 7.50226
1045.13 6.66347
1045.17 6.17309
1045.20 5.87765
1045.27 5.54179
1045.33 5.37632
1045.46 5.22309
1045.59 5.15782
1045.85 5.10347
1046.11 5.08171
1047.16 5.05515
1049.25 5.03960
1053.43 5.02040
1057.62 5.00446
1061.80 4.99035
1070.17 4.96634
1074.35 4.95772
1076.44 4.96132
1076.96 4.96881
1077.49 4.99138
1077.75 5.02212
1078.01 5.10236
1078.14 5.20208
1078.27 5.43478
1078.34 5.69388
1078.40 6.20552
1078.44 6.67922
1078.47 7.41942
1078.50 8.71763
1078.53 10.9029
1078.57 14.4565
1078.60 16.8171
1078.63 14.4579
1078.67 10.9045
1078.71 8.47235
1078.74 7.17353
1078.78 6.45207
1078.82 6.02256
1078.89 5.56744
1078.96 5.34724
1079.11 5.15078
1079.26 5.06906
1079.55 5.00274
1079.85 4.97690
1080.44 4.95648
1081.03 4.94815
1083.39 4.93584
1088.11 4.92380
1097.55 4.90402
1106.99 4.88548
1111.71 4.87699
1114.07 4.87593
1115.25 4.88749
1115.55 4.90041
1115.84 4.93518
1115.99 4.97924
1116.14 5.08462
1116.21 5.20377
1116.29 5.45090
1116.32 5.68476
1116.36 6.07844
1116.40 6.78866
1116.43 8.07137
1116.47 9.98370
1116.50 11.2542
1116.53 9.98400
1116.57 8.07163
1116.60 6.86833
1116.63 6.18152
1116.70 5.53787
1116.77 5.26277
1116.83 5.12729
1116.96 5.00198
1117.09 4.94876
1117.35 4.90475
1117.61 4.88745
1118.66 4.86769
1120.75 4.85842
1124.93 4.84771
1133.30 4.82582
1137.48 4.81292
1141.67 4.79794
1145.85 4.78183
1146.90 4.77968
1147.94 4.78374
1148.46 4.79454
1148.99 4.82963
1149.25 4.87873
1149.51 5.00816
1149.64 5.16963
1149.71 5.31374
1149.77 5.54702
1149.84 5.96741
1149.90 6.79750
1149.94 7.56577
1149.97 8.76565
1150.00 10.8682
1150.03 14.4015
1150.07 20.1319
1150.10 23.9278
1150.13 20.1340
1150.17 14.4037
1150.20 11.2148
1150.22 9.22944
1150.25 7.98331
1150.28 7.17231
1150.34 6.23669
1150.39 5.75335
1150.45 5.46556
1150.50 5.28444
1150.61 5.07980
1150.84 4.90760
1151.06 4.83880
1151.50 4.78301
1151.95 4.75955
1152.84 4.73612
1153.73 4.72073
1155.51 4.69199
1157.29 4.65666
1158.18 4.63406
1159.07 4.60648
1159.96 4.57198
1160.85 4.52830
1161.74 4.47482
1162.19 4.44827
1162.63 4.43367
1162.86 4.44085
1163.08 4.47184
1163.30 4.55437
1163.52 4.75525
1163.75 5.27302
1163.86 5.82244
1163.97 6.82739
1164.08 8.87795
1164.14 10.7350
1164.19 13.6444
1164.25 18.6842
1164.30 27.8047
1164.33 35.4726
1164.36 46.6967
1164.39 63.4491
1164.41 87.3423
1164.46 143.436
1164.50 186.341
1164.54 156.768
1164.59 104.020
1164.63 65.4409
1164.68 44.4549
1164.73 32.5987
1164.78 25.4123
1164.83 20.7647
1164.87 17.5929
1164.97 13.6902
1165.07 11.4132
1165.16 9.98603
1165.35 8.31812
1165.54 7.40759
1165.73 6.84706
1165.92 6.47256
1166.12 6.20710
1166.50 5.85930
1166.88 5.64378
1167.26 5.49817
1167.64 5.39359
1168.41 5.25373
1169.17 5.16444
1169.94 5.10222
1170.70 5.05606
1172.23 4.99107
1173.76 4.94595
1175.28 4.91104
1176.81 4.88144
1179.87 4.82680
1181.40 4.79686
1182.92 4.76077
1184.45 4.71213
1185.22 4.67935
1185.98 4.63745
1186.74 4.58337
1187.13 4.55253
1187.51 4.52516
1187.70 4.51867
1187.89 4.52599
1188.08 4.56521
1188.27 4.68255
1188.37 4.80659
1188.46 5.01632
1188.56 5.39314
1188.65 6.09915
1188.75 7.59190
1188.80 8.98229
1188.84 11.2063
1188.89 15.1919
1188.94 22.9206
1188.96 29.6257
1188.99 39.8515
1189.01 55.8991
1189.04 79.8953
1189.05 104.601
1189.07 132.004
1189.10 170.463
1189.12 163.637
1189.13 142.743
1189.17 95.3549
1189.20 64.0625
1189.23 45.4847
1189.26 34.2567
1189.29 27.3088
1189.32 22.4802
1189.35 19.1096
1189.41 14.8891
1189.47 12.3595
1189.53 10.7630
1189.66 8.87112
1189.78 7.83054
1189.90 7.18800
1190.03 6.75836
1190.15 6.45390
1190.40 6.05562
1190.64 5.80959
1191.13 5.52588
1191.62 5.36816
1192.12 5.26838
1193.10 5.14927
1194.08 5.07995
1195.07 5.03405
1197.03 4.97531
1199.00 4.93743
1200.97 4.90916
1204.90 4.86449
1208.83 4.82165
1210.80 4.79634
1212.77 4.76444
1213.75 4.74419
1214.73 4.71939
1215.72 4.68771
1216.70 4.64547
1217.69 4.58631
1218.18 4.54794
1218.67 4.50420
1218.91 4.48247
1219.16 4.46532
1219.41 4.46302
1219.65 4.50392
1219.77 4.56378
1219.90 4.68041
1220.02 4.90867
1220.14 5.37677
1220.27 6.43215
1220.33 7.47966
1220.39 9.25135
1220.45 12.6220
1220.51 19.6012
1220.54 26.2675
1220.57 36.8588
1220.59 45.2717
1220.60 55.7919
1220.62 69.7639
1220.63 88.1785
1220.65 115.190
1220.67 145.169
1220.70 189.002
1220.72 181.778
1220.73 159.184
1220.77 105.697
1220.79 73.9111
1220.82 54.4580
1220.85 41.5615
1220.88 33.3330
1220.93 23.3966
1220.99 18.0206
1221.04 14.7890
1221.10 12.6893
1221.21 10.1987
1221.32 8.81680
1221.43 7.95987
1221.54 7.38576
1221.65 6.97869
1221.87 6.44641
1222.09 6.11823
1222.31 5.89791
1222.53 5.74139
1222.97 5.53329
1223.40 5.40290
1223.84 5.31352
1224.28 5.24877
1225.16 5.16090
1226.04 5.10399
1226.92 5.06392
1227.80 5.03402
1229.56 4.99193
1231.32 4.96320
1233.07 4.94188
1234.83 4.92510
1238.35 4.89951
1241.86 4.87990
1248.90 4.84861
1255.93 4.82007
1259.45 4.80456
1262.96 4.78643
1266.48 4.76273
1268.24 4.74680
1269.99 4.72577
1271.75 4.69554
1272.63 4.67445
1273.51 4.64688
1274.39 4.61029
1274.83 4.58858
1275.27 4.56780
1275.71 4.56218
1275.93 4.58197
1276.15 4.64822
1276.26 4.72060
1276.37 4.84649
1276.48 5.07337
1276.59 5.50808
1276.70 6.42670
1276.75 7.28568
1276.81 8.70093
1276.86 11.2064
1276.92 16.0880
1276.95 20.4351
1276.97 26.8500
1277.00 36.8817
1277.03 52.6581
1277.06 85.6930
1277.10 111.259
1277.14 93.9666
1277.17 62.9752
1277.21 44.7939
1277.24 33.5880
1277.27 26.1614
1277.30 21.3926
1277.36 15.6296
1277.42 12.5411
1277.48 10.6429
1277.54 9.42554
1277.66 7.96190
1277.78 7.14191
1277.90 6.63732
1278.02 6.29855
1278.14 6.05797
1278.39 5.74189
1278.63 5.54769
1279.11 5.32407
1279.60 5.20080
1280.08 5.12381
1281.05 5.03493
1282.02 4.98961
1282.99 4.97693
1283.48 4.99357
1283.96 5.06328
1284.20 5.16430
1284.33 5.26167
1284.45 5.43010
1284.57 5.75621
1284.63 6.04899
1284.69 6.51025
1284.75 7.32598
1284.81 8.88483
1284.84 10.3108
1284.87 12.4784
1284.90 16.0056
1284.93 21.8265
1284.97 32.0951
1285.00 38.9860
1285.04 32.0918
1285.07 21.8216
1285.10 15.8512
1285.13 12.3819
1285.16 10.1913
1285.19 8.84007
1285.25 7.28056
1285.31 6.47903
1285.38 6.01767
1285.44 5.72919
1285.56 5.40497
1285.68 5.23388
1285.80 5.13398
1286.04 5.02588
1286.53 4.93904
1287.02 4.90354
1287.99 4.87125
1288.96 4.85444
1290.91 4.83381
1292.85 4.81970
1294.80 4.80911
1296.74 4.80295
1297.71 4.80429
1298.69 4.81720
1299.17 4.83893
1299.66 4.90176
1299.90 4.98563
1300.02 5.06574
1300.15 5.20228
1300.27 5.46827
1300.33 5.70534
1300.39 6.07865
1300.45 6.73902
1300.51 8.03260
1300.54 9.20697
1300.57 10.9990
1300.60 13.9296
1300.63 18.7928
1300.67 27.3831
1300.70 32.9133
1300.74 27.1247
1300.77 18.7970
1300.80 13.3353
1300.84 10.3725
1300.87 8.61437
1300.91 7.57158
1300.94 6.87696
1300.98 6.41909
1301.05 5.84921
1301.11 5.52908
1301.18 5.33223
1301.32 5.11330
1301.60 4.93543
1301.87 4.86604
1302.43 4.81168
1302.98 4.79010
1304.08 4.77104
1305.18 4.76105
1307.39 4.74768
1309.60 4.73721
1311.81 4.72905
1314.01 4.72755
1315.12 4.73605
1316.22 4.77092
1316.77 4.82377
1317.05 4.87702
1317.33 4.97323
1317.60 5.17226
1317.74 5.36201
1317.88 5.68989
1318.02 6.32892
1318.08 6.90277
1318.15 7.83353
1318.22 9.48243
1318.26 10.8465
1318.29 12.7875
1318.33 15.8567
1318.36 20.6812
1318.39 28.8574
1318.43 43.0393
1318.46 66.2340
1318.50 81.7758
1318.54 66.2475
1318.57 43.0560
1318.60 32.2766
1318.62 25.2062
1318.67 16.9215
1318.71 12.6585
1318.76 10.2461
1318.80 8.74185
1318.85 7.78445
1318.94 6.65585
1319.04 6.03896
1319.13 5.67327
1319.31 5.27331
1319.50 5.07221
1319.68 4.95686
1320.05 4.83600
1320.42 4.77621
1320.79 4.74175
1321.53 4.70411
1323.01 4.66934
1324.49 4.64911
1327.45 4.61677
1330.40 4.58385
1333.36 4.54586
1336.32 4.49967
1339.28 4.44109
1340.75 4.40522
1342.23 4.36597
1342.30 4.36642
1342.37 4.36178
1344.39 4.28810
1346.41 4.19525
1350.46 3.88504
1354.50 3.06921
1355.51 2.61361
1356.52 1.90345
1357.03 1.44827
1357.28 1.25897
1357.53 1.25015
1357.66 1.43619
1357.78 1.91509
1357.91 2.99930
1357.97 3.96989
1358.04 5.43923
1358.10 7.75607
1358.16 11.4085
1358.23 17.5044
1358.29 28.3332
1358.32 37.1532
1358.35 49.3591
1358.38 68.0104
1358.42 95.8885
1358.45 142.743
1358.48 221.336
1358.51 372.236
1358.54 655.484
1358.57 1116.00
1358.60 1459.12
1358.63 1216.96
1358.66 801.111
1358.69 512.653
1358.72 351.434
1358.75 252.451
1358.78 192.475
1358.81 151.328
1358.84 123.703
1358.89 88.5728
1358.95 67.5551
1359.01 54.3125
1359.13 38.6034
1359.25 29.9454
1359.36 24.5855
1359.60 18.4400
1359.83 15.0803
1360.07 13.0087
1360.53 10.6093
1361.47 8.43528
1362.41 7.44018
1366.15 6.06484
1373.65 5.42837
1377.39 5.30367
1379.27 5.25832
1381.14 5.22054
1383.01 5.18879
1384.89 5.16275
1386.76 5.14850
1387.23 5.15301
1387.70 5.17496
1387.93 5.20796
1388.16 5.29636
1388.28 5.40527
1388.40 5.65689
1388.46 5.92834
1388.51 6.44423
1388.54 6.91407
1388.57 7.62338
1388.60 8.76855
1388.63 10.6406
1388.67 14.0461
1388.70 16.2461
1388.74 13.9439
1388.77 10.6424
1388.80 8.48376
1388.84 7.28949
1388.87 6.60693
1388.91 6.20151
1388.98 5.75246
1389.05 5.52970
1389.19 5.32571
1389.32 5.23934
1389.60 5.16745
1389.88 5.13803
1390.43 5.11232
1390.99 5.09961
1393.20 5.07309
1395.42 5.05861
1396.53 5.06813
1396.80 5.08355
1397.08 5.12700
1397.22 5.18273
1397.36 5.31565
1397.43 5.46329
1397.49 5.76349
1397.56 6.49801
1397.60 7.31030
1397.63 8.72766
1397.67 10.9324
1397.70 12.3980
1397.73 10.9330
1397.77 8.72812
1397.81 7.22001
1397.84 6.41493
1397.92 5.70715
1397.99 5.42429
1398.06 5.28644
1398.21 5.16193
1398.35 5.10971
1398.65 5.06643
1398.94 5.04863
1400.11 5.02459
1402.45 5.00583
1407.14 4.97908
1411.82 4.95626
1416.51 4.93560
1435.25 4.86025
1444.62 4.81880
1453.99 4.76623
1458.68 4.73172
1463.36 4.68753
1465.71 4.66011
1468.05 4.62814
1470.39 4.59432
1471.56 4.59606
1471.85 4.61455
1472.15 4.67314
1472.29 4.75165
1472.44 4.94344
1472.51 5.16019
1472.59 5.60864
1472.62 6.03835
1472.66 6.73791
1472.70 8.02633
1472.73 10.3518
1472.77 13.8139
1472.80 16.1106
1472.83 13.8140
1472.87 10.3507
1472.90 8.26841
1472.93 7.06802
1472.96 6.31598
1472.99 5.85493
1473.05 5.32582
1473.11 5.05834
1473.23 4.80304
1473.35 4.69188
1473.60 4.59618
1473.84 4.55479
1474.32 4.51404
1474.81 4.48924
1476.75 4.40883
1478.69 4.31267
1480.63 4.17944
1481.60 4.09055
1482.57 3.97979
1483.54 3.83872
1484.51 3.65714
1485.00 3.54844
1485.48 3.43046
1485.97 3.31480
1486.45 3.24469
1486.70 3.26681
1486.94 3.38415
1487.18 3.70786
1487.42 4.50508
1487.67 6.55981
1487.79 8.72870
1487.85 10.4037
1487.91 12.6612
1487.97 15.8831
1488.03 20.5538
1488.09 27.5762
1488.15 38.3974
1488.21 56.6350
1488.27 88.4534
1488.30 114.679
1488.33 150.536
1488.36 201.547
1488.39 273.754
1488.45 459.161
1488.50 603.238
1488.55 506.471
1488.61 334.411
1488.67 203.617
1488.73 133.937
1488.79 95.1238
1488.86 71.7933
1488.92 56.7762
1488.98 46.5532
1489.10 33.9669
1489.23 26.6401
1489.35 21.9984
1489.60 16.6119
1489.85 13.6430
1490.09 11.8131
1490.34 10.5834
1490.59 9.70741
1491.08 8.55093
1491.58 7.83023
1492.07 7.34146
1492.57 6.99024
1493.56 6.51935
1494.54 6.22023
1495.53 6.01356
1496.52 5.86266
1498.50 5.65690
1500.48 5.52323
1502.46 5.42933
1504.44 5.35965
1508.40 5.26288
1512.36 5.19853
1516.31 5.15236
1520.27 5.11741
1528.19 5.06747
1536.10 5.03294
1544.02 5.00715
1547.98 4.99644
1549.95 4.99156
1550.94 4.98937
1551.44 4.98886
1551.93 5.01817
1552.00 5.04940
1552.07 5.01787
1552.37 4.98781
1552.68 4.98572
1553.29 4.98390
1554.50 4.98109
1556.94 4.97590
1561.80 4.96637
1571.54 4.94977
1591.01 4.92294
1610.47 4.90079
1620.21 4.89050
1625.07 4.88528
1627.51 4.88239
1628.73 4.88072
1629.33 4.88057
1629.64 4.88506
1629.79 4.90180
1629.87 4.93788
1629.94 5.09374
1630.00 5.36395
1630.06 5.14716
1630.15 4.96697
1630.23 4.92251
1630.40 4.89812
1630.75 4.88726
1631.43 4.88241
1632.80 4.87936
1635.55 4.87588
1641.03 4.86999
1652.00 4.85840
1662.97 4.84612
1668.46 4.83933
1671.20 4.83543
1672.57 4.83309
1673.26 4.83252
1673.60 4.83727
1673.77 4.85694
1673.86 4.90329
1673.94 5.13012
1674.00 5.50410
1674.06 5.20252
1674.14 4.96294
1674.22 4.89763
1674.37 4.86014
1674.68 4.84330
1675.31 4.83600
1676.55 4.83177
1679.05 4.82730
1684.03 4.81965
1694.00 4.80296
1703.97 4.78213
1713.94 4.75383
1718.93 4.73492
1723.91 4.71084
1728.90 4.67872
1733.88 4.63311
1736.38 4.60205
1738.87 4.56238
1741.36 4.50984
1743.85 4.43713
1745.10 4.38940
1746.35 4.33109
1747.59 4.25928
1748.84 4.17224
1749.46 4.12463
1750.08 4.07948
1750.71 4.04980
1751.33 4.07427
1751.64 4.13922
1751.95 4.28219
1752.27 4.58285
1752.58 5.22337
1752.89 6.70891
1753.04 8.18373
1753.20 10.7057
1753.36 15.4325
1753.43 19.3908
1753.51 25.2807
1753.59 34.4086
1753.67 49.2173
1753.75 74.3350
1753.82 116.988
1753.91 195.409
1754.00 257.066
1754.09 217.463
1754.18 144.937
1754.24 110.424
1754.29 86.2210
1754.41 56.4591
1754.52 40.4568
1754.63 31.0531
1754.74 25.0883
1754.86 21.0668
1755.08 16.1439
1755.31 13.3095
1755.53 11.5183
1755.99 9.43793
1756.44 8.29189
1756.89 7.58223
1757.34 7.10402
1757.79 6.76234
1758.69 6.30972
1759.60 6.02631
1760.50 5.83290
1761.40 5.69320
1763.21 5.50517
1765.01 5.38481
1766.82 5.30125
1768.62 5.23986
1772.23 5.15559
1775.84 5.10028
1779.45 5.06102
1783.06 5.03156
1790.28 4.98988
1797.50 4.96133
1804.72 4.94005
1808.33 4.93105
1810.14 4.92667
1811.04 4.92448
1811.49 4.92447
1811.72 4.92947
1811.83 4.94509
1811.94 5.05898
1812.00 5.23363
1812.06 5.09586
1812.18 4.96560
1812.29 4.94232
1812.52 4.93052
1812.98 4.92489
1813.90 4.92118
1815.74 4.91686
1819.42 4.90988
1826.78 4.89791
1841.50 4.87819
1856.22 4.86159
1863.58 4.85384
1867.26 4.84983
1869.10 4.84750
1870.02 4.84624
1870.48 4.84720
1870.71 4.85520
1870.83 4.87895
1870.94 5.05925
1871.00 5.32745
1871.06 5.11534
1871.18 4.90764
1871.31 4.87368
1871.56 4.85747
1872.06 4.85048
1873.05 4.84692
1875.04 4.84392
1879.03 4.83962
1887.00 4.83179
1894.97 4.82401
1898.96 4.81988
1900.95 4.81748
1901.95 4.81610
1902.44 4.81662
1902.69 4.82327
1902.82 4.84459
1902.94 5.02528
1903.00 5.28910
1903.06 5.08074
1903.15 4.89540
1903.25 4.85381
1903.44 4.83192
1903.82 4.82230
1904.57 4.81790
1906.09 4.81494
1909.12 4.81133
1915.18 4.80502
1927.29 4.79233
1951.53 4.76374
1975.77 4.72707
1987.88 4.70346
2000.00 4.67400
2006.47 4.65436
2009.71 4.64220
2011.32 4.63422
2012.13 4.63028
2012.54 4.63878
2012.74 4.68643
2012.84 4.81404
2012.89 5.02530
2012.94 5.61793
2013.00 6.86275
2013.06 5.88086
2013.13 5.12044
2013.20 4.88736
2013.34 4.74450
2013.61 4.67792
2014.16 4.64938
2015.27 4.63463
2017.48 4.62146
2021.90 4.60037
2030.74 4.55265
2039.58 4.48860
2048.43 4.39575
2052.85 4.33125
2057.27 4.24729
2061.69 4.13334
2066.11 3.96975
2068.32 3.85802
2070.53 3.71559
2072.74 3.52822
2074.95 3.27313
2076.06 3.10927
2077.16 2.91435
2078.27 2.68511
2079.37 2.43309
2079.93 2.31757
2080.48 2.24348
2081.03 2.28457
2081.58 2.63811
2081.86 3.08828
2082.14 3.91529
2082.41 5.46134
2082.55 6.71224
2082.69 8.49009
2082.83 11.0984
2082.96 14.9831
2083.10 21.0281
2083.24 30.9063
2083.38 48.1088
2083.45 61.6345
2083.52 80.6468
2083.59 108.088
2083.65 148.767
2083.72 210.364
2083.79 303.693
2083.90 516.112
2084.00 685.516
2084.11 581.803
2084.21 386.680
2084.28 284.744
2084.36 214.833
2084.43 167.117
2084.51 133.842
2084.65 92.3556
2084.80 68.6842
2084.95 53.9408
2085.10 44.1159
2085.39 32.1646
2085.69 25.3671
2085.99 21.0797
2086.28 18.1711
2086.58 16.0946
2087.17 13.3403
2087.76 11.6236
2088.35 10.4622
2088.94 9.63036
2090.13 8.52151
2091.31 7.82240
2092.49 7.34319
2093.68 6.99514
2096.04 6.52447
2098.41 6.22190
2100.78 6.01116
2103.14 5.85615
2107.88 5.64324
2112.61 5.50389
2117.34 5.40546
2122.08 5.33210
2131.54 5.22970
2141.01 5.16119
2150.48 5.11161
2155.21 5.09134
2157.58 5.08182
2158.76 5.07698
2159.35 5.07496
2159.65 5.07726
2159.79 5.08939
2159.94 5.23243
2160.00 5.43781
2160.06 5.27948
2160.21 5.11289
2160.35 5.09004
2160.65 5.07886
2161.24 5.07269
2162.43 5.06702
2164.79 5.05862
2169.53 5.04409
2179.00 5.01919
2188.47 4.99803
2193.21 4.98835
2195.57 4.98345
2196.76 4.98077
2197.35 4.97980
2197.65 4.98256
2197.79 4.99474
2197.94 5.13556
2198.00 5.33740
2198.06 5.18187
2198.22 5.01418
2198.39 4.99412
2198.71 4.98477
2199.37 4.98006
2200.68 4.97628
2203.30 4.97110
2208.54 4.96206
2219.03 4.94554
2240.00 4.91515
2260.97 4.88380
2271.46 4.86521
2276.70 4.85415
2279.32 4.84766
2280.63 4.84382
2281.29 4.84207
2281.61 4.84470
2281.78 4.85886
2281.94 5.05612
2282.00 5.33390
2282.06 5.12027
2282.20 4.89830
2282.34 4.86638
2282.62 4.85100
2283.18 4.84350
2284.30 4.83798
2286.54 4.83034
2291.03 4.81452
2295.51 4.79485
2300.00 4.76841
2300.00 8.60100
2500.00 8.43935
3000.00 8.11272
3500.00 7.86362
4000.00 7.66663
5000.00 7.37387
6000.00 7.16610
7000.00 7.01089
8000.00 6.89088
10000.0 6.71825
12500.0 6.57833
15000.0 6.48650
17000.0 6.43442
20000.0 6.37939
25000.0 6.32548
30000.0 6.29848
35000.0 6.28655
40000.0 6.28351
50000.0 6.29160
60000.0 6.30841
70000.0 6.32801
80000.0 6.34777
90000.0 6.36650
99999.9 6.38354
100000 6.34451
150000 6.31763
159968 6.31594
159969 6.31593
179984 6.31251
200000 6.31505
250000 6.32256
300000 6.33464
317314 6.33943
317315 6.33943
362986 6.35391
408657 6.36669
500000 6.38851
678233 6.40468
700000 6.40636
717740 6.40543
800000 6.39549
900000 6.37098
1.00000E+06 6.33325
1.01317E+06 6.32736
1.02870E+06 6.32014
1.02870E+06 6.32014
1.18978E+06 6.22920
1.25000E+06 6.18815
1.31555E+06 6.13963
1.31556E+06 6.13962
1.45888E+06 6.02138
1.45888E+06 6.02138
1.50000E+06 5.98482
1.51012E+06 5.97567
1.59192E+06 5.89962
1.68239E+06 5.81187
1.68239E+06 5.81186
1.75000E+06 5.74436
1.78527E+06 5.70863
1.78527E+06 5.70863
1.96481E+06 5.52385
2.00000E+06 5.48733
2.05619E+06 5.41570
2.11237E+06 5.34816
2.16856E+06 5.28441
2.22475E+06 5.22416
2.28093E+06 5.16714
2.33712E+06 5.11312
2.39330E+06 5.06190
2.44949E+06 5.01327
2.51830E+06 4.94689
2.58712E+06 4.88462
2.65593E+06 4.82611
2.72475E+06 4.77108
2.79356E+06 4.71925
2.86237E+06 4.67038
2.93119E+06 4.62426
3.00000E+06 4.58067
3.05019E+06 4.54745
3.10038E+06 4.51549
3.15057E+06 4.48471
3.20076E+06 4.45507
3.25095E+06 4.42650
3.30114E+06 4.39896
3.35133E+06 4.37240
3.40152E+06 4.34677
3.45171E+06 4.32202
3.50189E+06 4.29813
3.55208E+06 4.27504
3.60227E+06 4.25273
3.65246E+06 4.23115
3.70265E+06 4.21029
3.75284E+06 4.19010
3.80303E+06 4.17056
3.85227E+06 4.14894
3.90152E+06 4.12801
3.95076E+06 4.10774
4.00000E+06 4.08811
4.06250E+06 4.07295
4.12500E+06 4.05820
4.18750E+06 4.04382
4.25000E+06 4.02980
4.31250E+06 4.01612
4.37500E+06 4.00278
4.43750E+06 3.98975
4.50000E+06 3.97703
4.56250E+06 3.96460
4.62500E+06 3.95244
4.68750E+06 3.94056
4.75000E+06 3.92893
4.81250E+06 3.91755
4.87500E+06 3.90642
4.93750E+06 3.89551
5.00000E+06 3.88483
5.05965E+06 3.88349
5.11931E+06 3.88220
5.17896E+06 3.88096
5.23862E+06 3.87977
5.29827E+06 3.87863
5.35792E+06 3.87753
5.41758E+06 3.87648
5.47723E+06 3.87546
5.54258E+06 3.87415
5.60792E+06 3.87289
5.67327E+06 3.87167
5.73862E+06 3.87048
5.80396E+06 3.86934
5.86931E+06 3.86823
5.93465E+06 3.86715
6.00000E+06 3.86611
6.12019E+06 3.87991
6.24037E+06 3.89381
6.36056E+06 3.90781
6.48074E+06 3.92190
6.61056E+06 3.93594
6.74037E+06 3.95006
6.87019E+06 3.96424
7.00000E+06 3.97848
7.00886E+06 3.98023
7.09990E+06 3.99718
7.19094E+06 4.01600
7.23762E+06 4.02414
7.36047E+06 4.04605
7.48331E+06 4.06898
7.61033E+06 4.09335
7.73734E+06 4.11874
7.79908E+06 4.13133
8.00000E+06 4.16814
8.11954E+06 4.19388
8.23907E+06 4.22062
8.26316E+06 4.22614
8.37422E+06 4.24792
8.48528E+06 4.27060
8.61396E+06 4.29707
8.74264E+06 4.32466
8.87132E+06 4.35334
9.00000E+06 4.38310
9.06020E+06 4.39481
9.12039E+06 4.40662
9.18059E+06 4.41853
9.24078E+06 4.43054
9.30229E+06 4.44228
9.36381E+06 4.45412
9.42532E+06 4.46607
9.48683E+06 4.47811
9.52099E+06 4.48483
9.58087E+06 4.49580
9.64074E+06 4.50687
9.70062E+06 4.51806
9.76050E+06 4.52934
9.82037E+06 4.54073
9.88025E+06 4.55221
9.94012E+06 4.56380
1.00000E+07 4.57549
1.00610E+07 4.58112
1.01220E+07 4.58678
1.01830E+07 4.59247
1.02441E+07 4.59818
1.03051E+07 4.60392
1.03661E+07 4.60968
1.04271E+07 4.61547
1.04881E+07 4.62128
1.05201E+07 4.62432
1.05521E+07 4.62736
1.05841E+07 4.63042
1.06161E+07 4.63347
1.06481E+07 4.63654
1.06801E+07 4.63961
1.07121E+07 4.64269
1.07441E+07 4.64578
1.07761E+07 4.64887
1.08080E+07 4.65197
1.08400E+07 4.65508
1.08720E+07 4.65819
1.09040E+07 4.66131
1.09360E+07 4.66444
1.09680E+07 4.66757
1.10000E+07 4.67071
1.10611E+07 4.67609
1.11223E+07 4.68148
1.11834E+07 4.68688
1.12446E+07 4.69231
1.13057E+07 4.69775
1.13668E+07 4.70322
1.14280E+07 4.70870
1.14891E+07 4.71419
1.15210E+07 4.71698
1.15530E+07 4.71977
1.15849E+07 4.72257
1.16168E+07 4.72537
1.16488E+07 4.72818
1.16807E+07 4.73099
1.17126E+07 4.73381
1.17446E+07 4.73663
1.17765E+07 4.73946
1.18084E+07 4.74229
1.18404E+07 4.74512
1.18723E+07 4.74796
1.19042E+07 4.75081
1.19361E+07 4.75366
1.19681E+07 4.75652
1.20000E+07 4.75938
1.20625E+07 4.75520
1.21250E+07 4.75106
1.21875E+07 4.74694
1.22500E+07 4.74286
1.23125E+07 4.73882
1.23750E+07 4.73480
1.24375E+07 4.73082
1.25000E+07 4.72687
1.25625E+07 4.72296
1.26250E+07 4.71908
1.26875E+07 4.71523
1.27500E+07 4.71142
1.28125E+07 4.70764
1.28750E+07 4.70390
1.29375E+07 4.70020
1.30000E+07 4.69654
1.30625E+07 4.69275
1.31250E+07 4.68899
1.31875E+07 4.68525
1.32500E+07 4.68153
1.33125E+07 4.67785
1.33750E+07 4.67418
1.34375E+07 4.67055
1.35000E+07 4.66694
1.35625E+07 4.66336
1.36250E+07 4.65980
1.36875E+07 4.65628
1.37500E+07 4.65278
1.38125E+07 4.64931
1.38750E+07 4.64588
1.39375E+07 4.64247
1.40000E+07 4.63910
1.40376E+07 4.63371
1.40954E+07 4.62545
1.41532E+07 4.61724
1.42110E+07 4.60909
1.42688E+07 4.60100
1.43266E+07 4.59296
1.43844E+07 4.58498
1.44422E+07 4.57706
1.45000E+07 4.56920
1.45625E+07 4.56064
1.46250E+07 4.55216
1.46875E+07 4.54374
1.47500E+07 4.53538
1.48125E+07 4.52709
1.48750E+07 4.51888
1.49375E+07 4.51073
1.50000E+07 4.50267
1.52500E+07 4.46056
1.55000E+07 4.41980
1.57500E+07 4.38042
1.60000E+07 4.34248
1.60412E+07 4.33474
1.60823E+07 4.32705
1.61235E+07 4.31941
1.61646E+07 4.31182
1.62058E+07 4.30428
1.62469E+07 4.29679
1.62881E+07 4.28934
1.63293E+07 4.28194
1.63704E+07 4.27459
1.64116E+07 4.26729
1.64527E+07 4.26004
1.64939E+07 4.25283
1.65350E+07 4.24568
1.65762E+07 4.23857
1.66174E+07 4.23151
1.66585E+07 4.22450
1.66585E+07 4.22450
1.66910E+07 4.21885
1.67234E+07 4.21322
1.67559E+07 4.20763
1.67884E+07 4.20207
1.68208E+07 4.19654
1.68533E+07 4.19103
1.68857E+07 4.18556
1.69182E+07 4.18011
1.69591E+07 4.17322
1.70000E+07 4.16637
1.70625E+07 4.15564
1.71250E+07 4.14502
1.71875E+07 4.13450
1.72500E+07 4.12408
1.73125E+07 4.11376
1.73750E+07 4.10354
1.74375E+07 4.09342
1.75000E+07 4.08340
1.75625E+07 4.07348
1.76250E+07 4.06366
1.76875E+07 4.05394
1.77500E+07 4.04433
1.78125E+07 4.03481
1.78750E+07 4.02539
1.79375E+07 4.01608
1.80000E+07 4.00686
1.80625E+07 3.99562
1.81250E+07 3.98448
1.81875E+07 3.97347
1.82500E+07 3.96256
1.83125E+07 3.95177
1.83750E+07 3.94109
1.84375E+07 3.93052
1.85000E+07 3.92007
1.85625E+07 3.90972
1.86250E+07 3.89949
1.86875E+07 3.88937
1.87500E+07 3.87936
1.88125E+07 3.86946
1.88750E+07 3.85967
1.89375E+07 3.85000
1.90000E+07 3.84043
1.91250E+07 3.82004
1.92500E+07 3.80007
1.93750E+07 3.78050
1.95000E+07 3.76135
1.96250E+07 3.74261
1.97500E+07 3.72428
1.98750E+07 3.70638
2.00000E+07 3.68894