Sn-116(n,tot) ENDF/B-VII.1
Energy(eV) XS(b)
1.00000E-05 10.7194
1.25000E-05 10.0418
1.50000E-05 9.54162
2.00000E-05 8.83951
2.75000E-05 8.17145
3.50000E-05 7.73179
4.25000E-05 7.41439
5.00000E-05 7.17140
6.25000E-05 6.86837
7.50000E-05 6.64467
0.000100000 6.33068
0.000125000 6.11640
0.000150000 5.95823
0.000200000 5.73620
0.000275000 5.52494
0.000350000 5.38591
0.000425000 5.28554
0.000500000 5.20870
0.000625000 5.11287
0.000750000 5.04214
0.00100000 4.94284
0.00125000 4.87508
0.00150000 4.82507
0.00200000 4.75486
0.00275000 4.68805
0.00350000 4.64409
0.00425000 4.61235
0.00500000 4.58805
0.00625000 4.55775
0.00750000 4.53538
0.0100000 4.50398
0.0125000 4.48255
0.0150000 4.46673
0.0200000 4.44452
0.0253000 4.42861
0.0314750 4.41540
0.0376500 4.40559
0.0500000 4.39175
0.0625000 4.38215
0.0750000 4.37506
0.100000 4.36510
0.125000 4.35829
0.150000 4.35325
0.200000 4.34616
0.275000 4.33936
0.350000 4.33485
0.500000 4.32900
0.750000 4.32331
1.00000 4.31974
1.50000 4.31514
2.00000 4.31202
2.75000 4.30853
3.50000 4.30574
5.00000 4.30108
7.50000 4.29439
10.0000 4.28813
15.0000 4.27559
20.0000 4.26235
27.5000 4.24021
35.0000 4.21434
50.0000 4.14552
62.5000 4.05857
68.7500 3.99742
75.0000 3.91692
81.2500 3.80602
87.5000 3.64351
90.6250 3.53028
93.7500 3.38322
96.8750 3.18538
100.000 2.90841
101.392 2.74854
102.785 2.56067
104.177 2.34581
105.570 2.12788
106.266 2.04804
106.962 2.03875
107.658 2.20984
108.006 2.44156
108.354 2.86164
108.441 3.01060
108.528 3.18253
108.615 3.38134
108.702 3.61147
108.790 3.87860
108.877 4.18859
108.964 4.54956
109.051 4.97107
109.138 5.46552
109.225 6.04642
109.312 6.73256
109.399 7.54702
109.573 9.68860
109.747 12.8261
109.921 17.5937
110.095 25.1743
110.269 38.0215
110.356 47.9396
110.443 61.7671
110.530 81.7530
110.617 111.863
110.704 159.922
110.791 242.718
110.835 308.152
110.878 401.616
110.922 540.980
110.965 760.390
111.009 1130.86
111.052 1815.97
111.074 2389.89
111.096 3234.82
111.117 4521.44
111.139 6462.68
111.170 10430.1
111.200 13171.1
111.231 10646.8
111.262 6713.34
111.298 3908.28
111.333 2457.67
111.369 1664.64
111.404 1198.70
111.440 903.558
111.475 706.823
111.546 468.716
111.618 335.970
111.689 254.398
111.831 163.242
111.973 115.767
112.115 87.7681
112.257 69.7466
112.399 57.4160
112.684 41.9578
112.968 32.8982
113.252 27.0699
113.537 23.0631
114.105 17.9952
114.674 14.9778
115.242 13.0038
115.811 11.6243
116.948 9.84034
118.085 8.74815
119.223 8.01608
120.360 7.49356
122.634 6.80053
124.909 6.36374
127.183 6.06431
129.458 5.84684
134.006 5.55393
136.281 5.45218
138.555 5.37166
140.830 5.31192
141.967 5.29258
143.104 5.28613
143.673 5.29171
144.241 5.30822
144.810 5.34462
145.379 5.42210
145.663 5.49177
145.947 5.60136
146.232 5.78451
146.516 6.11964
146.658 6.40082
146.800 6.82635
146.942 7.51448
147.084 8.73063
147.156 9.72355
147.227 11.1918
147.298 13.4927
147.369 17.3849
147.440 24.7623
147.475 31.2025
147.511 41.2963
147.547 58.4295
147.582 90.3118
147.600 117.360
147.618 157.691
147.635 220.348
147.653 316.982
147.677 505.077
147.700 630.897
147.724 505.152
147.747 317.078
147.773 189.163
147.798 121.391
147.824 83.7765
147.849 61.3884
147.875 47.1346
147.900 37.6359
147.951 26.1743
148.002 19.8119
148.053 15.9446
148.155 11.6819
148.257 9.51123
148.359 8.26115
148.462 7.47488
148.564 6.94923
148.768 6.31031
148.972 5.95143
149.176 5.72922
149.380 5.58165
149.788 5.40268
150.197 5.30103
150.605 5.23659
151.013 5.19228
151.829 5.13486
152.646 5.09824
154.279 5.05095
155.912 5.01851
157.545 4.99280
160.810 4.95162
164.076 4.91821
167.342 4.88974
173.874 4.84292
180.405 4.80554
186.937 4.77481
200.000 4.72697
218.750 4.67823
237.500 4.64329
256.250 4.61665
275.000 4.59538
312.500 4.56278
350.000 4.53802
387.500 4.51768
425.000 4.49997
462.500 4.48385
500.000 4.46863
533.136 4.45556
566.272 4.44268
582.841 4.43642
599.409 4.43081
607.693 4.42904
611.835 4.42900
615.977 4.43039
620.119 4.43544
622.190 4.44142
624.261 4.45314
625.296 4.46339
626.332 4.47939
627.367 4.50613
628.403 4.55542
628.921 4.59724
629.438 4.66137
629.956 4.76695
630.474 4.95892
630.733 5.12010
630.992 5.36521
631.250 5.76440
631.509 6.47947
631.639 7.07165
631.768 7.95913
631.898 9.37858
632.027 11.8520
632.157 16.7553
632.221 21.2370
632.286 28.6534
632.351 42.1982
632.383 53.5859
632.415 70.7515
632.448 98.3439
632.480 145.668
632.512 234.198
632.545 407.588
632.572 649.894
632.600 810.630
632.628 648.997
632.655 407.639
632.684 249.911
632.712 162.972
632.740 113.290
632.768 83.1096
632.796 63.6770
632.825 50.5290
632.881 34.4988
632.937 25.5244
632.994 20.0204
633.107 13.9186
633.219 10.7979
633.332 8.99344
633.445 7.85778
633.558 7.09730
633.784 6.17390
634.009 5.65652
634.235 5.33772
634.460 5.12749
634.912 4.87616
635.363 4.73739
635.814 4.65271
636.265 4.59723
637.168 4.53127
638.070 4.49495
638.973 4.47275
639.875 4.45814
641.680 4.44053
643.485 4.43053
647.095 4.41968
650.705 4.41369
654.315 4.40961
661.534 4.40368
675.974 4.39425
690.413 4.38480
704.853 4.37353
712.072 4.36638
719.292 4.35722
726.512 4.34405
730.122 4.33451
733.732 4.32110
737.341 4.30010
739.146 4.28406
740.951 4.26090
741.854 4.24488
742.756 4.22414
743.659 4.19616
744.561 4.15638
745.012 4.12948
745.464 4.09554
745.915 4.05165
746.366 3.99353
746.592 3.95757
746.817 3.91673
747.043 3.87285
747.269 3.83537
747.381 3.82877
747.494 3.84522
747.607 3.91491
747.720 4.11589
747.776 4.32593
747.833 4.68614
747.889 5.33205
747.945 6.57520
748.002 9.24823
748.030 11.8072
748.058 16.1426
748.072 19.4916
748.086 24.1565
748.093 27.2175
748.100 30.8688
748.108 35.3955
748.115 40.9108
748.122 47.9088
748.129 56.6522
748.136 68.0505
748.143 82.7018
748.150 102.355
748.157 128.281
748.164 163.678
748.171 210.278
748.178 273.023
748.186 346.435
748.200 446.561
748.207 427.804
748.215 370.349
748.229 240.659
748.244 155.361
748.258 106.298
748.272 77.1623
748.287 58.8951
748.301 46.7423
748.315 38.3900
748.344 27.8923
748.373 21.7685
748.401 17.8965
748.458 13.4011
748.516 10.9648
748.573 9.47881
748.630 8.49562
748.688 7.80544
748.802 6.91317
748.917 6.36996
749.031 6.00894
749.146 5.75361
749.375 5.41924
749.604 5.21181
749.834 5.07147
750.063 4.97056
750.521 4.83567
750.980 4.74991
751.438 4.69071
751.896 4.64744
752.813 4.58842
753.730 4.55006
754.647 4.52310
755.563 4.50310
757.397 4.47532
759.230 4.45687
762.897 4.43378
766.564 4.42010
770.231 4.41253
772.065 4.41210
773.898 4.41894
774.815 4.43180
775.274 4.44549
775.732 4.47114
776.190 4.52663
776.419 4.58188
776.649 4.68199
776.763 4.76561
776.878 4.89211
776.992 5.09657
777.107 5.45891
777.164 5.75537
777.222 6.19503
777.279 6.88697
777.336 8.06711
777.394 10.3247
777.422 12.3180
777.451 15.4764
777.480 20.9321
777.508 31.3438
777.522 40.3845
777.537 54.3015
777.551 76.5346
777.565 112.393
777.583 177.401
777.600 220.412
777.617 177.005
777.635 112.397
777.647 80.8071
777.659 59.7679
777.671 45.7575
777.684 36.2034
777.708 24.6395
777.732 18.3164
777.757 14.5031
777.781 12.0513
777.830 9.21321
777.879 7.69568
777.927 6.79591
777.976 6.21858
778.025 5.82644
778.122 5.34313
778.220 5.06837
778.317 4.89744
778.415 4.78401
778.610 4.64727
778.804 4.57120
779.194 4.49375
779.584 4.45694
779.974 4.43648
780.754 4.41540
782.313 4.39892
783.872 4.39190
786.991 4.38469
790.110 4.38016
796.348 4.37343
802.585 4.36793
815.061 4.35848
827.536 4.35003
852.486 4.33430
877.437 4.31896
902.387 4.30338
927.338 4.28731
939.813 4.27917
952.288 4.27142
958.526 4.26832
964.763 4.26770
967.882 4.27090
969.442 4.27526
971.001 4.28422
972.560 4.30478
973.340 4.32588
974.120 4.36485
974.510 4.39789
974.900 4.44844
975.289 4.53138
975.679 4.68130
975.874 4.80644
976.069 4.99546
976.264 5.30061
976.459 5.84044
976.556 6.28164
976.654 6.93503
976.751 7.96136
976.849 9.70457
976.946 13.0268
976.995 15.9362
977.044 20.5362
977.093 28.4099
977.141 43.2812
977.166 56.0729
977.190 75.4511
977.214 106.063
977.239 154.341
977.269 244.420
977.300 304.489
977.331 244.448
977.361 154.377
977.384 109.463
977.406 80.0084
977.428 60.5637
977.450 47.3947
977.494 31.5689
977.538 22.9489
977.583 17.7910
977.627 14.4934
977.715 10.6808
977.804 8.65078
977.892 7.44852
977.981 6.67835
978.069 6.15586
978.246 5.51288
978.423 5.14772
978.600 4.92069
978.776 4.77007
979.130 4.58868
979.484 4.48782
979.838 4.42595
980.191 4.38524
980.899 4.33657
981.606 4.30958
983.021 4.28191
984.436 4.26839
985.851 4.26048
988.681 4.25146
994.340 4.24206
1000.00 4.23576
1016.22 4.22070
1032.45 4.20597
1048.67 4.19064
1064.89 4.17442
1097.34 4.13869
1129.78 4.09739
1194.67 3.98932
1227.12 3.91406
1235.23 3.89165
1243.34 3.86738
1251.45 3.84156
1255.51 3.83111
1256.52 3.83149
1257.54 3.83934
1258.05 3.85347
1258.55 3.89620
1258.81 3.95588
1259.06 4.11874
1259.19 4.33359
1259.25 4.53553
1259.31 4.88175
1259.38 5.56459
1259.41 6.17816
1259.44 7.13415
1259.47 8.86531
1259.50 12.1658
1259.52 15.2129
1259.53 20.0964
1259.55 28.3259
1259.57 42.2481
1259.58 65.4014
1259.60 80.5764
1259.62 65.4024
1259.63 42.1373
1259.65 25.8327
1259.67 17.6599
1259.69 12.9784
1259.71 10.3750
1259.73 8.65226
1259.75 7.56614
1259.79 6.25058
1259.83 5.50367
1259.87 5.05217
1259.94 4.56262
1260.02 4.31114
1260.10 4.16842
1260.25 4.01845
1260.56 3.90359
1260.87 3.86099
1261.49 3.82808
1262.11 3.81472
1264.58 3.79388
1269.53 3.76962
1274.48 3.74565
1279.43 3.71971
1289.33 3.65878
1299.22 3.57894
1309.12 3.46345
1314.07 3.38025
1319.02 3.26471
1321.49 3.18688
1323.96 3.08772
1326.44 2.95587
1328.91 2.77043
1330.15 2.64575
1331.39 2.48862
1332.62 2.28496
1333.86 2.01309
1334.48 1.84240
1335.10 1.64476
1335.72 1.42281
1336.33 1.20649
1336.64 1.13385
1336.95 1.13951
1337.11 1.20206
1337.26 1.33460
1337.42 1.58122
1337.57 2.01053
1337.73 2.75790
1337.80 3.32428
1337.88 4.06957
1337.96 5.08660
1338.04 6.45726
1338.11 8.35737
1338.19 11.0490
1338.27 15.0290
1338.35 20.9663
1338.42 30.3252
1338.50 45.9635
1338.58 74.7238
1338.62 98.4091
1338.65 132.141
1338.69 184.783
1338.73 266.100
1338.77 404.052
1338.81 629.288
1338.85 1055.66
1338.90 1381.44
1338.95 1151.79
1338.99 749.107
1339.04 458.653
1339.09 300.900
1339.15 211.814
1339.20 157.833
1339.25 122.936
1339.30 99.1312
1339.40 69.8505
1339.50 52.8003
1339.60 42.1217
1339.81 29.6696
1340.01 22.8639
1340.21 18.7091
1340.42 15.9387
1340.62 13.9790
1341.03 11.4138
1341.43 9.83560
1341.84 8.77168
1342.24 8.01319
1343.06 7.00540
1343.87 6.37027
1344.68 5.93471
1345.50 5.61815
1347.12 5.18785
1348.75 4.90903
1350.37 4.71277
1352.00 4.56661
1355.25 4.36142
1358.50 4.22202
1361.75 4.11901
1365.00 4.03813
1371.50 3.91481
1378.01 3.81985
1391.01 3.66722
1417.02 3.39451
1443.03 3.07289
1456.03 2.86681
1469.04 2.61053
1482.04 2.27955
1495.04 1.83490
1501.55 1.55208
1508.05 1.21776
1514.55 0.828409
1521.05 0.408847
1524.30 0.224818
1525.93 0.157714
1527.55 0.122693
1528.37 0.123067
1529.18 0.139801
1529.99 0.177374
1530.81 0.241453
1531.62 0.339665
1532.43 0.481742
1533.24 0.680642
1534.06 0.953318
1534.87 1.32393
1535.68 1.82455
1536.50 2.50043
1537.31 3.41482
1538.12 4.66387
1538.93 6.38705
1539.75 8.80032
1540.56 12.2423
1541.37 17.2906
1542.18 24.9329
1543.00 37.0016
1543.81 57.1140
1544.62 93.2902
1545.03 122.684
1545.44 165.139
1545.84 228.945
1546.25 328.011
1546.65 487.438
1547.06 746.469
1547.58 1261.03
1548.10 1661.21
1548.62 1397.14
1549.14 916.792
1549.72 565.815
1550.29 373.717
1550.87 264.626
1551.45 198.217
1552.03 155.112
1552.60 125.601
1553.76 88.8868
1554.91 67.6157
1556.06 54.1135
1558.37 38.3631
1560.68 29.7203
1562.98 24.3758
1565.29 20.7914
1567.60 18.2422
1572.21 14.8888
1576.83 12.8030
1581.44 11.3900
1586.05 10.3737
1595.28 9.01408
1604.51 8.14857
1613.74 7.54917
1622.97 7.10856
1623.00 7.10719
1623.03 7.10583
1623.11 7.10248
1623.19 7.09918
1623.35 7.09260
1623.68 7.07949
1624.32 7.05366
1625.60 7.00331
1628.16 6.90772
1633.29 6.73446
1643.56 6.44472
1664.08 6.01449
1684.60 5.69644
1705.12 5.42935
1725.64 5.16428
1735.90 5.01122
1746.16 4.82162
1751.29 4.70184
1756.42 4.55403
1761.55 4.36184
1766.68 4.09456
1769.25 3.91468
1771.82 3.68641
1774.38 3.38579
1776.95 2.97153
1778.23 2.70038
1779.51 2.36960
1780.79 1.96229
1782.08 1.46903
1782.72 1.19881
1783.36 0.941517
1784.00 0.768955
1784.32 0.769779
1784.64 0.894340
1784.96 1.24691
1785.12 1.56703
1785.28 2.03114
1785.44 2.70678
1785.60 3.67821
1785.76 5.09237
1785.92 7.18016
1786.08 10.3529
1786.24 15.2582
1786.40 23.1945
1786.56 36.7564
1786.73 61.9445
1786.81 82.6880
1786.89 113.193
1786.97 159.749
1787.05 233.773
1787.13 356.085
1787.21 560.956
1787.30 958.105
1787.40 1270.20
1787.50 1076.09
1787.60 713.598
1787.66 524.318
1787.73 396.038
1787.80 308.023
1787.87 246.377
1788.01 168.760
1788.14 124.693
1788.28 97.0023
1788.41 78.6741
1788.69 56.3369
1788.96 43.5788
1789.23 35.5637
1789.50 30.1081
1789.78 26.2188
1790.32 21.0655
1790.87 17.8640
1791.41 15.6998
1791.96 14.1484
1793.05 12.0844
1794.14 10.7844
1795.23 9.89286
1796.32 9.24596
1798.50 8.37037
1800.68 7.80608
1802.86 7.41200
1805.04 7.12099
1809.40 6.71846
1813.77 6.45197
1818.13 6.26119
1822.49 6.11701
1831.21 5.91129
1839.93 5.76933
1857.38 5.58090
1874.83 5.45694
1892.27 5.36629
1901.00 5.32900
1909.72 5.29591
1918.44 5.26790
1922.80 5.26287
1923.89 5.26877
1924.98 5.29165
1925.53 5.32612
1926.07 5.42506
1926.35 5.56083
1926.48 5.69334
1926.62 5.92929
1926.76 6.41720
1926.82 6.87755
1926.89 7.67022
1926.96 9.20933
1926.99 10.5872
1927.03 12.8160
1927.06 16.7502
1927.10 24.5971
1927.11 31.7212
1927.13 43.2073
1927.15 62.7499
1927.16 98.4482
1927.18 153.357
1927.20 191.645
1927.22 153.342
1927.24 98.4300
1927.25 62.7331
1927.27 42.3421
1927.29 30.6925
1927.31 23.6213
1927.33 19.0718
1927.34 15.9959
1927.38 12.3251
1927.41 10.1983
1927.45 8.92669
1927.52 7.48770
1927.59 6.74975
1927.66 6.32228
1927.80 5.87227
1927.95 5.65272
1928.09 5.52940
1928.37 5.40286
1928.94 5.30846
1929.51 5.27363
1930.65 5.24623
1931.78 5.23441
1936.33 5.21324
1945.43 5.18685
1954.52 5.16397
1963.62 5.14293
1972.71 5.12339
1981.81 5.10526
1990.91 5.08866
2000.00 5.07470
2004.24 5.07074
2008.47 5.07328
2010.59 5.08334
2011.65 5.09520
2012.71 5.11839
2013.77 5.17000
2014.30 5.22228
2014.83 5.31781
2015.36 5.52132
2015.62 5.72187
2015.89 6.08016
2016.02 6.37916
2016.15 6.82464
2016.28 7.53604
2016.41 8.77516
2016.55 11.2518
2016.61 13.5036
2016.68 17.2271
2016.75 24.0201
2016.78 29.7144
2016.81 38.3159
2016.84 52.0797
2016.88 75.7201
2016.91 119.715
2016.94 207.847
2016.97 330.625
2017.00 410.552
2017.03 330.666
2017.06 207.900
2017.07 154.476
2017.09 116.183
2017.13 72.1027
2017.16 48.5840
2017.20 35.6108
2017.23 27.4089
2017.27 22.1986
2017.34 16.0182
2017.41 12.6116
2017.48 10.5934
2017.62 8.37761
2017.76 7.26368
2017.90 6.62647
2018.04 6.22834
2018.19 5.96311
2018.47 5.64276
2018.75 5.46395
2019.31 5.28156
2019.88 5.19485
2020.44 5.14671
2021.57 5.09738
2023.83 5.05940
2026.08 5.04372
2030.59 5.02809
2035.11 5.01831
2044.13 5.00317
2053.16 4.99000
2071.21 4.96612
2089.26 4.94429
2107.31 4.92404
2125.36 4.90524
2143.41 4.88875
2152.43 4.88612
2154.69 4.89020
2156.94 4.90569
2158.07 4.92904
2159.20 4.99664
2159.76 5.09035
2160.05 5.18318
2160.33 5.35087
2160.61 5.70180
2160.75 6.04244
2160.89 6.64467
2160.96 7.14042
2161.03 7.86366
2161.10 9.01537
2161.17 10.9436
2161.24 14.6649
2161.28 17.8799
2161.31 22.9407
2161.35 31.8538
2161.39 48.2661
2161.40 62.7499
2161.42 83.4230
2161.44 117.636
2161.46 168.288
2161.48 268.672
2161.50 331.733
2161.52 264.022
2161.55 168.288
2161.56 117.637
2161.58 86.4855
2161.59 65.8049
2161.61 51.7238
2161.64 34.6958
2161.67 25.3585
2161.71 19.7548
2161.74 16.1500
2161.80 11.9683
2161.87 9.73643
2161.93 8.40993
2161.99 7.55897
2162.06 6.98106
2162.19 6.26538
2162.32 5.86234
2162.57 5.44469
2162.83 5.24332
2163.08 5.13179
2163.60 5.01833
2164.62 4.93472
2165.65 4.90435
2167.70 4.88121
2169.75 4.87185
2177.95 4.85723
2194.35 4.84118
2227.15 4.81382
2259.96 4.78869
2276.36 4.77787
2284.56 4.77766
2286.61 4.78221
2288.66 4.79796
2289.69 4.82121
2290.71 4.88819
2291.22 4.98113
2291.48 5.07313
2291.74 5.23943
2291.99 5.58987
2292.12 5.92983
2292.25 6.53210
2292.31 7.02472
2292.38 7.75510
2292.44 8.90415
2292.51 10.8629
2292.57 14.6066
2292.60 17.9020
2292.63 23.1366
2292.67 32.1326
2292.70 49.3231
2292.71 64.2298
2292.73 87.1454
2292.75 123.689
2292.76 182.502
2292.78 292.086
2292.80 360.316
2292.82 286.302
2292.84 182.565
2292.86 115.493
2292.88 78.8976
2292.89 56.9988
2292.91 43.2311
2292.95 27.8644
2292.98 20.0625
2293.02 15.5123
2293.06 12.7763
2293.13 9.69796
2293.20 8.08492
2293.27 7.15960
2293.35 6.57292
2293.42 6.17789
2293.56 5.69320
2293.71 5.42081
2294.00 5.14226
2294.29 5.00902
2294.58 4.93550
2295.15 4.86094
2296.31 4.80605
2297.47 4.78599
2299.78 4.77042
2302.10 4.76384
2311.36 4.75240
2329.87 4.73807
2366.90 4.71189
2403.94 4.68597
2422.45 4.67289
2431.71 4.66657
2436.34 4.66467
2438.65 4.66883
2439.81 4.69075
2440.39 4.77575
2440.53 4.85863
2440.68 5.07358
2440.75 5.34607
2440.82 5.99148
2440.86 6.71264
2440.89 8.19601
2440.91 9.58848
2440.93 11.9146
2440.95 16.0727
2440.97 24.0367
2440.98 35.5189
2441.00 43.4231
2441.02 35.5261
2441.03 24.0456
2441.05 17.7741
2441.06 13.9173
2441.09 9.69363
2441.11 7.75991
2441.14 6.77242
2441.19 5.78960
2441.25 5.36460
2441.35 5.00599
2441.46 4.86534
2441.67 4.75535
2441.89 4.71453
2442.74 4.67264
2444.45 4.66053
2447.86 4.65519
2454.68 4.64935
2468.33 4.63868
2495.63 4.61637
2522.93 4.59142
2550.22 4.56168
2577.52 4.52237
2591.17 4.49560
2604.82 4.45945
2611.64 4.43540
2618.47 4.40476
2625.29 4.36369
2632.12 4.30458
2635.53 4.26358
2638.94 4.21007
2642.35 4.13688
2645.77 4.03009
2647.47 3.95568
2649.18 3.85867
2650.88 3.72681
2652.59 3.53718
2653.44 3.40751
2654.30 3.24192
2655.15 3.02379
2656.00 2.72580
2656.43 2.53361
2656.86 2.30431
2657.28 2.03180
2657.71 1.72716
2657.92 1.58130
2658.14 1.47690
2658.35 1.49195
2658.56 1.83785
2658.67 2.30305
2658.78 3.17644
2658.88 4.82793
2658.94 6.15619
2658.99 8.04163
2659.04 10.8385
2659.10 14.9475
2659.15 21.2992
2659.20 31.5763
2659.26 49.6528
2659.28 63.7868
2659.31 82.6748
2659.34 110.559
2659.36 149.572
2659.39 209.499
2659.41 294.621
2659.46 505.108
2659.50 675.854
2659.54 578.335
2659.59 386.191
2659.63 246.658
2659.68 167.614
2659.72 121.548
2659.77 93.4584
2659.82 74.4633
2659.86 61.5555
2659.95 45.0067
2660.04 35.2547
2660.13 28.9718
2660.32 21.5317
2660.50 17.3775
2660.68 14.7736
2660.86 13.0079
2661.04 11.7406
2661.41 10.0558
2661.77 8.99501
2662.14 8.26997
2662.50 7.74487
2663.23 7.03765
2663.96 6.58485
2664.68 6.27082
2665.41 6.04050
2666.87 5.72560
2668.32 5.52050
2669.78 5.37631
2671.24 5.26935
2674.15 5.12111
2677.06 5.02302
2679.97 4.95308
2682.88 4.90053
2688.71 4.82634
2694.53 4.77597
2700.36 4.73905
2706.18 4.71048
2717.83 4.66823
2729.48 4.63743
2752.77 4.59264
2776.07 4.55861
2799.37 4.52949
2822.67 4.50294
2834.31 4.49139
2840.14 4.49103
2841.59 4.49575
2843.05 4.51209
2843.78 4.53615
2844.51 4.60505
2844.87 4.69983
2845.23 4.96075
2845.42 5.30800
2845.51 5.64145
2845.60 6.22381
2845.69 7.38007
2845.74 8.45499
2845.78 10.2001
2845.83 13.4785
2845.85 16.2623
2845.87 20.2925
2845.89 27.0712
2845.92 38.9544
2845.94 61.7377
2845.95 79.9073
2845.96 107.968
2845.98 168.400
2846.00 211.350
2846.02 168.421
2846.04 107.994
2846.05 74.3320
2846.07 53.0821
2846.08 39.6759
2846.10 30.9159
2846.13 20.7689
2846.16 15.5700
2846.19 12.4067
2846.22 10.4162
2846.28 8.18218
2846.34 6.98861
2846.39 6.29887
2846.51 5.55963
2846.63 5.19082
2846.75 4.98382
2846.99 4.76912
2847.46 4.60909
2847.93 4.55093
2848.88 4.50781
2849.83 4.49180
2853.62 4.47293
2861.21 4.46073
2876.38 4.44270
2906.73 4.40717
2937.07 4.36942
2967.42 4.32817
3028.11 4.22962
3088.80 4.09586
3149.49 3.89515
3179.84 3.74858
3210.18 3.54671
3240.53 3.24877
3255.70 3.03869
3270.87 2.76169
3286.05 2.37990
3293.63 2.12968
3301.22 1.82279
3308.81 1.44035
3316.39 0.961403
3320.19 0.684598
3323.98 0.398090
3325.88 0.265775
3327.77 0.161725
3328.72 0.131574
3329.67 0.130209
3330.62 0.207068
3330.85 0.275253
3331.09 0.442487
3331.21 0.650478
3331.33 1.16347
3331.39 1.79040
3331.45 3.20474
3331.48 4.73946
3331.51 7.60024
3331.52 10.1915
3331.54 14.2567
3331.55 20.9122
3331.57 31.5834
3331.58 50.6851
3331.60 63.0443
3331.62 50.6847
3331.63 31.5857
3331.65 18.8003
3331.67 11.8641
3331.69 8.05142
3331.71 5.79929
3331.75 3.43194
3331.79 2.29685
3331.86 1.29581
3331.94 0.886547
3332.09 0.573773
3332.24 0.470962
3332.54 0.431255
3332.85 0.464823
3333.45 0.620510
3334.06 0.868895
3334.67 1.22857
3335.27 1.73987
3335.88 2.47093
3336.48 3.53155
3337.09 5.10981
3337.70 7.52964
3338.30 11.4190
3338.91 18.0795
3339.52 30.5552
3339.82 41.1423
3340.12 57.1946
3340.42 82.8334
3340.73 126.426
3341.03 205.754
3341.33 355.977
3341.62 585.543
3341.90 750.028
3342.18 614.190
3342.47 392.136
3342.73 255.928
3342.99 174.350
3343.25 124.693
3343.50 93.1207
3344.02 57.1123
3344.54 38.3408
3345.06 27.3143
3345.57 20.2816
3346.61 12.0396
3347.64 7.47736
3348.68 4.63564
3349.71 2.73963
3350.74 1.47223
3351.26 1.03935
3351.78 0.746132
3352.30 0.609899
3352.81 0.664495
3353.07 0.779875
3353.33 0.966214
3353.59 1.23558
3353.85 1.60146
3354.36 2.70790
3354.88 4.50403
3355.40 7.35308
3355.92 11.8468
3356.43 19.0497
3356.95 30.9284
3357.47 51.3577
3357.98 88.4893
3358.24 118.379
3358.50 160.401
3358.76 220.526
3359.02 305.501
3359.51 550.090
3360.00 767.578
3360.49 680.668
3360.98 468.680
3361.47 316.012
3361.96 224.098
3362.45 167.742
3362.94 131.529
3363.44 106.919
3363.93 89.4939
3364.91 66.8839
3365.89 53.1578
3366.87 44.1053
3368.83 33.0910
3370.79 26.7359
3372.75 22.6477
3376.67 17.7366
3380.60 14.9124
3384.52 13.0857
3388.44 11.8115
3389.42 11.5525
3390.41 11.3157
3391.39 11.1204
3391.88 11.1268
3392.00 11.2095
3392.12 11.4612
3392.18 11.7935
3392.24 12.5730
3392.28 13.4388
3392.31 15.0887
3392.34 19.0406
3392.35 22.9426
3392.37 29.5859
3392.38 40.7354
3392.40 48.2815
3392.42 40.7245
3392.43 29.5671
3392.45 21.3855
3392.47 17.3059
3392.49 15.1261
3392.51 13.8610
3392.56 12.5271
3392.60 11.9116
3392.68 11.3563
3392.76 11.1194
3392.92 10.9123
3393.08 10.8139
3393.73 10.6203
3395.02 10.3656
3396.32 10.1436
3397.61 9.93998
3402.79 9.25931
3413.14 8.31779
3423.49 7.69662
3433.85 7.25595
3444.20 6.92705
3454.55 6.67249
3459.73 6.56617
3464.91 6.47261
3470.08 6.40135
3471.38 6.39734
3472.67 6.42394
3473.32 6.47838
3473.96 6.64775
3474.29 6.88614
3474.45 7.12153
3474.61 7.53945
3474.77 8.40210
3474.85 9.22174
3474.93 10.6354
3475.02 13.3859
3475.06 15.8909
3475.10 19.8503
3475.14 27.0424
3475.18 41.0784
3475.20 53.7708
3475.22 74.1503
3475.24 108.635
3475.26 171.979
3475.28 271.459
3475.30 337.289
3475.32 271.471
3475.34 171.601
3475.36 118.148
3475.38 85.7502
3475.39 63.7247
3475.41 50.0530
3475.44 33.4529
3475.47 24.8473
3475.51 19.5999
3475.54 16.3645
3475.60 12.5810
3475.67 10.5593
3475.73 9.38787
3475.86 8.13124
3476.00 7.50373
3476.13 7.15048
3476.39 6.78266
3476.91 6.50442
3477.43 6.39921
3478.47 6.31331
3479.52 6.27362
3481.61 6.22739
3483.69 6.19397
3492.04 6.08842
3500.39 5.99984
3508.74 5.92183
3525.44 5.78971
3542.14 5.68168
3575.54 5.51485
3608.94 5.39122
3642.35 5.29516
3675.75 5.21777
3692.45 5.18432
3709.15 5.15389
3725.85 5.12763
3734.20 5.12303
3736.28 5.12882
3738.37 5.15116
3739.41 5.18486
3740.46 5.28199
3740.98 5.41574
3741.50 5.78393
3741.76 6.27376
3741.89 6.74635
3742.02 7.56527
3742.16 9.20466
3742.22 10.6976
3742.29 13.1710
3742.35 17.6972
3742.38 21.5749
3742.42 27.2727
3742.45 36.7309
3742.48 52.5869
3742.51 83.3909
3742.53 108.126
3742.55 144.356
3742.57 228.553
3742.60 283.578
3742.63 228.509
3742.65 144.302
3742.68 91.6303
3742.71 61.4278
3742.74 43.9780
3742.76 33.6146
3742.79 26.5971
3742.81 21.9866
3742.87 16.1857
3742.92 12.8628
3742.97 10.8591
3743.08 8.62259
3743.19 7.46341
3743.29 6.79818
3743.51 6.09375
3743.72 5.75025
3743.93 5.55746
3744.36 5.36002
3745.21 5.21378
3746.06 5.16061
3747.76 5.12043
3749.47 5.10458
3756.28 5.08166
3769.91 5.05911
3797.16 5.02216
3824.41 4.98858
3851.66 4.95712
3906.16 4.89760
3933.41 4.86798
3947.04 4.85298
3953.85 4.84653
3957.26 4.84823
3958.96 4.86842
3959.81 4.95180
3960.03 5.03480
3960.24 5.25786
3960.35 5.54807
3960.45 6.27351
3960.51 7.13665
3960.56 9.06995
3960.59 11.1188
3960.61 14.7977
3960.63 18.1705
3960.64 22.9057
3960.65 30.1709
3960.67 41.4574
3960.68 64.0124
3960.70 78.0334
3960.72 63.9931
3960.73 41.4329
3960.75 30.8493
3960.76 23.3379
3960.77 18.4506
3960.79 15.1827
3960.81 11.3109
3960.84 9.23276
3960.89 7.22210
3960.94 6.33686
3961.04 5.57958
3961.15 5.27761
3961.35 5.04218
3961.56 4.95468
3962.39 4.86511
3964.04 4.83996
3967.34 4.82998
3973.95 4.82001
3987.16 4.80126
4000.37 4.77996
4013.59 4.75364
4026.80 4.71716
4033.40 4.69133
4040.01 4.65545
4043.31 4.63108
4046.62 4.59966
4049.92 4.55705
4053.22 4.49516
4054.88 4.45202
4056.53 4.39561
4058.18 4.31837
4059.83 4.20592
4060.66 4.12779
4061.48 4.02633
4062.31 3.88930
4063.13 3.69461
4063.96 3.39694
4064.37 3.18237
4064.78 2.89830
4065.20 2.52083
4065.40 2.29981
4065.61 2.09587
4065.82 2.06052
4065.92 2.27532
4066.02 2.94186
4066.13 4.78968
4066.18 6.79339
4066.23 10.3044
4066.28 17.1420
4066.31 22.9412
4066.33 31.1975
4066.36 44.3669
4066.38 65.5185
4066.41 100.734
4066.44 157.731
4066.47 276.660
4066.50 374.486
4066.53 327.530
4066.56 221.544
4066.59 169.616
4066.61 132.518
4066.65 87.1217
4066.69 62.0786
4066.73 47.6548
4066.78 38.2255
4066.82 31.9743
4066.90 24.1742
4066.99 19.5739
4067.07 16.6264
4067.24 13.1503
4067.41 11.1828
4067.58 9.94504
4067.75 9.09653
4067.92 8.48131
4068.26 7.65088
4068.60 7.12052
4068.94 6.75366
4069.27 6.48597
4069.95 6.11998
4070.63 5.88291
4071.31 5.71655
4071.98 5.59371
4073.34 5.42402
4074.69 5.31234
4076.05 5.23315
4077.40 5.17402
4080.11 5.09121
4082.82 5.03575
4085.53 4.99571
4088.24 4.96526
4093.66 4.92144
4099.08 4.89084
4109.92 4.84927
4120.76 4.82066
4131.60 4.79842
4153.27 4.76322
4196.63 4.70641
4239.98 4.65266
4283.33 4.59446
4305.01 4.56203
4326.69 4.52664
4348.36 4.48828
4370.04 4.45048
4380.88 4.43855
4386.30 4.43965
4391.72 4.45344
4394.43 4.47030
4397.14 4.50031
4399.85 4.55502
4402.55 4.66167
4403.91 4.75450
4405.26 4.89853
4406.62 5.13719
4407.97 5.57154
4408.65 5.93587
4409.33 6.48694
4410.01 7.37984
4410.68 8.96059
4411.02 10.2558
4411.36 12.1769
4411.70 15.2006
4412.04 20.3370
4412.38 30.1775
4412.55 38.8084
4412.72 52.4969
4412.89 76.1541
4413.05 121.048
4413.14 160.157
4413.22 219.414
4413.31 314.765
4413.39 465.865
4413.50 743.958
4413.60 929.821
4413.70 743.973
4413.81 465.912
4413.90 301.087
4414.00 203.665
4414.09 145.030
4414.18 108.046
4414.37 66.6625
4414.56 45.6964
4414.75 33.6337
4414.93 26.1667
4415.31 17.7460
4415.69 13.3747
4416.06 10.8341
4416.44 9.22524
4416.81 8.14279
4417.56 6.82069
4418.31 6.07626
4419.06 5.61456
4419.81 5.30891
4421.31 4.94015
4422.81 4.73339
4424.32 4.60465
4425.82 4.51805
4428.82 4.40971
4431.82 4.34387
4434.82 4.29802
4437.82 4.26265
4443.83 4.20694
4449.83 4.15960
4461.84 4.06838
4473.84 3.96734
4485.85 3.84561
4497.86 3.69155
4503.86 3.59819
4506.86 3.55008
4508.37 3.54074
4509.12 3.59807
4509.49 3.85078
4509.58 4.09193
4509.68 4.69544
4509.73 5.40503
4509.77 6.96341
4509.80 8.57981
4509.82 11.3824
4509.84 16.9372
4509.85 22.0228
4509.87 29.2421
4509.88 44.9577
4509.90 55.0612
4509.92 45.0267
4509.93 29.3286
4509.96 17.7235
4509.98 12.1473
4510.00 9.20417
4510.02 7.51040
4510.06 5.74144
4510.10 4.93299
4510.19 4.21724
4510.27 3.92589
4510.44 3.69054
4510.61 3.59884
4511.29 3.49403
4512.64 3.44201
4515.35 3.38216
4516.70 3.36054
4518.05 3.36121
4518.73 3.39380
4519.40 3.51995
4519.74 3.71010
4520.08 4.25027
4520.25 4.97348
4520.33 5.67038
4520.42 6.86307
4520.50 9.22288
4520.55 11.3227
4520.59 14.7227
4520.63 20.9235
4520.65 25.8758
4520.67 33.1244
4520.69 44.2322
4520.71 62.1785
4520.74 92.7706
4520.76 146.881
4520.78 233.145
4520.80 291.742
4520.82 233.981
4520.84 147.921
4520.87 86.4958
4520.89 55.0438
4520.92 37.9522
4520.94 27.9229
4520.97 21.6190
4520.99 17.4271
4521.04 12.4019
4521.10 9.59013
4521.15 7.92289
4521.25 6.08531
4521.35 5.14150
4521.45 4.60201
4521.65 4.02953
4522.05 3.58605
4522.45 3.41414
4523.26 3.27010
4524.06 3.20119
4527.27 3.04940
4530.49 2.92037
4533.71 2.78118
4540.14 2.44445
4546.57 1.99073
4549.78 1.70105
4553.00 1.35746
4556.21 0.954440
4559.43 0.511266
4561.04 0.305661
4562.65 0.165422
4563.45 0.151040
4564.25 0.205911
4565.06 0.373367
4565.86 0.725776
4566.26 1.00828
4566.66 1.39152
4567.07 1.90839
4567.47 2.60463
4567.87 3.54493
4568.27 4.82265
4568.67 6.57549
4569.08 9.00474
4569.48 12.4464
4569.88 17.4179
4570.28 24.7937
4570.68 36.1011
4571.09 54.1334
4571.49 84.2269
4571.89 136.783
4572.29 230.203
4572.75 406.130
4573.20 557.325
4573.66 487.372
4574.11 331.935
4574.64 208.889
4575.17 141.317
4575.69 102.737
4576.22 79.0684
4576.75 63.5362
4577.28 52.8168
4578.33 39.2688
4579.38 31.2556
4580.44 26.0693
4582.55 19.8644
4584.66 16.3505
4586.77 14.1186
4588.87 12.5869
4590.98 11.4758
4595.20 9.97901
4599.42 9.02201
4603.64 8.35963
4607.86 7.87485
4616.29 7.21391
4624.73 6.78490
4633.16 6.48410
4641.60 6.26148
4658.47 5.95370
4675.34 5.75057
4692.22 5.60606
4709.09 5.49767
4742.83 5.34504
4776.57 5.24175
4810.32 5.16647
4827.19 5.13614
4835.63 5.12367
4839.84 5.12268
4841.95 5.14089
4843.01 5.21970
4843.27 5.29864
4843.53 5.51044
4843.67 5.78632
4843.80 6.48985
4843.86 7.34197
4843.93 9.30000
4843.96 11.3862
4844.00 15.4227
4844.01 19.1004
4844.03 24.4834
4844.05 33.0676
4844.06 46.9930
4844.08 72.6431
4844.10 88.6585
4844.12 71.1796
4844.14 46.7726
4844.16 30.4162
4844.18 21.7383
4844.20 16.6697
4844.22 13.5391
4844.25 10.1042
4844.29 8.38821
4844.37 6.81982
4844.44 6.15246
4844.60 5.61054
4844.75 5.40107
4845.05 5.24131
4845.36 5.18278
4846.58 5.12320
4849.01 5.10501
4853.88 5.09440
4863.62 5.08003
4883.11 5.05488
4902.59 5.03237
4922.07 5.01194
5000.00 4.94523
5052.82 4.90936
5079.22 4.89344
5105.63 4.87873
5132.04 4.86540
5158.45 4.85445
5171.65 4.85124
5184.86 4.85333
5191.46 4.86088
5198.06 4.88550
5201.36 4.91994
5203.01 4.95376
5204.66 5.01432
5206.31 5.14035
5207.14 5.26267
5207.96 5.48030
5208.38 5.66001
5208.79 5.92940
5209.20 6.36073
5209.61 7.11477
5209.82 7.72941
5210.03 8.63044
5210.23 10.0359
5210.44 12.4065
5210.65 16.9040
5210.75 20.7983
5210.85 26.9064
5210.96 37.2208
5211.06 56.4257
5211.11 72.8385
5211.16 96.9579
5211.21 134.938
5211.26 193.059
5211.33 304.950
5211.40 379.335
5211.47 303.432
5211.54 191.032
5211.59 127.008
5211.65 88.2475
5211.71 64.0498
5211.77 48.8428
5211.89 31.4305
5212.00 22.5344
5212.12 17.3652
5212.24 14.1642
5212.47 10.5387
5212.70 8.65343
5212.94 7.56153
5213.17 6.87176
5213.40 6.40915
5213.87 5.84688
5214.33 5.53345
5215.27 5.21498
5216.20 5.06578
5217.13 4.98462
5219.00 4.90446
5222.73 4.84839
5226.46 4.82936
5233.92 4.81625
5241.38 4.81287
5248.85 4.81581
5256.31 4.83470
5260.04 4.86571
5261.91 4.89820
5263.77 4.95893
5265.64 5.09072
5266.57 5.22239
5267.50 5.46105
5267.97 5.66095
5268.44 5.96258
5268.90 6.45043
5269.37 7.30996
5269.60 8.01320
5269.84 9.04685
5270.07 10.6608
5270.30 13.3805
5270.53 18.4826
5270.65 22.9066
5270.77 29.7248
5270.88 41.1820
5271.00 61.8576
5271.06 79.2261
5271.12 104.258
5271.18 141.698
5271.23 197.661
5271.32 314.480
5271.40 391.416
5271.48 313.723
5271.57 198.575
5271.63 137.949
5271.70 99.0281
5271.76 73.9318
5271.82 57.4631
5271.95 37.7976
5272.08 27.2475
5272.20 20.9678
5272.33 17.0054
5272.59 12.4485
5272.84 10.0278
5273.09 8.60223
5273.35 7.68980
5273.60 7.07089
5274.11 6.30804
5274.62 5.87504
5275.13 5.60473
5275.64 5.42520
5276.65 5.20788
5277.67 5.08641
5279.71 4.96170
5281.74 4.90167
5283.77 4.86787
5287.84 4.83241
5295.98 4.80361
5304.12 4.79063
5320.39 4.77621
5336.67 4.76618
5401.77 4.73349
5466.86 4.70182
5499.41 4.68585
5515.69 4.67858
5523.83 4.67632
5527.90 4.67842
5529.93 4.68974
5530.95 4.73153
5531.46 4.87943
5531.71 5.36715
5531.77 5.79323
5531.84 6.75369
5531.87 7.79164
5531.90 9.81458
5531.93 14.4229
5531.95 19.0451
5531.96 26.5564
5531.98 39.7102
5532.00 48.2120
5532.02 39.5276
5532.04 26.3271
5532.05 18.1169
5532.07 13.4037
5532.11 9.09586
5532.14 7.28746
5532.18 6.38396
5532.25 5.55211
5532.32 5.20591
5532.60 4.81711
5533.16 4.70680
5534.29 4.67861
5536.54 4.67192
5541.04 4.67083
5550.05 4.67756
5554.55 4.69084
5559.06 4.73060
5561.31 4.78501
5562.43 4.83810
5563.56 4.93268
5564.69 5.12829
5565.25 5.31689
5565.81 5.64968
5566.37 6.32560
5566.66 6.96522
5566.94 8.06129
5567.22 10.2010
5567.36 12.1266
5567.50 15.2344
5567.64 20.8109
5567.71 25.3458
5567.78 32.0306
5567.85 42.5692
5567.92 59.6869
5567.99 89.5714
5568.06 144.128
5568.13 226.694
5568.20 281.913
5568.27 225.294
5568.34 142.387
5568.40 95.0779
5568.46 66.2171
5568.51 48.4947
5568.57 37.1528
5568.69 24.2909
5568.81 17.7143
5568.93 13.8920
5569.04 11.5247
5569.28 8.84422
5569.51 7.45558
5569.75 6.64768
5570.22 5.79656
5570.69 5.38245
5571.16 5.15238
5572.10 4.92030
5573.98 4.75699
5575.86 4.70967
5577.74 4.71066
5579.62 4.78488
5580.56 4.91082
5581.03 5.04182
5581.50 5.28395
5581.97 5.79709
5582.21 6.29524
5582.44 7.16843
5582.68 8.89815
5582.80 10.4806
5582.91 13.0544
5583.03 17.7214
5583.09 21.5746
5583.15 27.1801
5583.21 36.0489
5583.27 50.7259
5583.33 76.5633
5583.38 123.217
5583.44 195.023
5583.50 244.613
5583.56 197.268
5583.62 126.015
5583.66 87.9813
5583.71 63.4980
5583.75 47.7895
5583.80 37.3854
5583.89 25.1578
5583.97 18.6868
5584.06 14.8144
5584.15 12.3511
5584.33 9.52990
5584.51 8.02202
5584.69 7.13083
5585.05 6.16515
5585.41 5.67753
5585.77 5.39676
5586.49 5.10045
5587.92 4.86894
5589.36 4.77900
5592.23 4.70651
5595.09 4.67644
5600.83 4.64932
5606.57 4.63569
5618.05 4.61921
5629.53 4.60702
5652.49 4.58594
5663.97 4.57996
5669.71 4.59569
5671.14 4.61635
5672.58 4.67715
5673.30 4.76206
5674.01 4.99866
5674.37 5.31898
5674.73 6.18084
5674.91 7.30918
5675.00 8.37462
5675.09 10.1740
5675.18 13.6664
5675.22 16.7634
5675.27 21.5809
5675.31 30.0816
5675.36 46.5532
5675.38 61.4409
5675.40 83.6353
5675.43 119.284
5675.45 178.533
5675.47 284.166
5675.50 352.456
5675.53 284.118
5675.55 178.473
5675.58 105.948
5675.61 67.4016
5675.64 46.5150
5675.67 34.6143
5675.70 26.8423
5675.73 21.6956
5675.79 15.6298
5675.85 12.2349
5675.91 10.2126
5676.03 7.97250
5676.15 6.83904
5676.27 6.18813
5676.50 5.50836
5676.98 4.99545
5677.46 4.80821
5678.41 4.66988
5679.36 4.61987
5683.16 4.56771
5690.77 4.54673
5705.99 4.52436
5721.22 4.50183
5736.44 4.47623
5751.66 4.44620
5766.88 4.41049
5782.10 4.37271
5785.90 4.36896
5789.71 4.38347
5791.61 4.41697
5793.51 4.52624
5794.46 4.68420
5794.94 4.84262
5795.41 5.12956
5795.89 5.73260
5796.13 6.31801
5796.37 7.34545
5796.60 9.42227
5796.72 11.3561
5796.84 14.6188
5796.96 20.7540
5797.02 26.1158
5797.08 34.3374
5797.14 48.3385
5797.20 73.5800
5797.23 94.8946
5797.26 125.155
5797.29 172.322
5797.32 243.310
5797.36 385.271
5797.40 482.435
5797.44 385.564
5797.48 243.391
5797.52 156.361
5797.56 106.304
5797.60 75.6360
5797.64 56.9227
5797.71 35.7863
5797.79 25.1041
5797.87 19.0230
5797.95 15.2509
5798.10 11.0240
5798.25 8.83983
5798.41 7.56812
5798.71 6.22557
5799.02 5.56434
5799.33 5.19151
5799.95 4.80764
5801.18 4.51850
5802.41 4.40976
5804.87 4.32107
5807.33 4.27947
5817.18 4.18260
5822.10 4.13546
5827.02 4.08179
5836.87 3.94093
5841.79 3.84380
5846.71 3.71761
5851.64 3.54642
5856.56 3.30044
5859.02 3.13214
5861.48 2.91704
5863.94 2.63289
5866.41 2.24289
5867.64 1.98977
5868.87 1.68418
5870.10 1.31524
5871.33 0.884005
5872.56 0.462285
5873.18 0.365558
5873.48 0.408088
5873.79 0.570188
5874.10 0.941385
5874.41 1.68619
5874.56 2.28991
5874.71 3.13000
5874.87 4.30549
5875.02 5.95415
5875.18 8.33159
5875.33 11.8090
5875.48 17.0253
5875.64 25.0359
5875.79 37.9881
5875.94 59.7738
5876.10 98.0976
5876.25 166.330
5876.43 297.007
5876.60 411.132
5876.78 363.142
5876.95 249.427
5877.08 186.522
5877.20 142.870
5877.33 112.827
5877.46 91.7149
5877.71 65.1099
5877.97 49.7456
5878.22 39.9878
5878.47 33.3944
5878.98 25.2368
5879.49 20.4745
5880.00 17.4131
5880.50 15.2930
5881.01 13.7530
5882.03 11.6737
5883.04 10.3460
5884.06 9.42964
5885.07 8.76122
5887.10 7.85437
5889.13 7.26954
5891.16 6.86187
5893.19 6.56174
5897.25 6.14968
5901.31 5.88014
5905.37 5.68996
5909.43 5.54850
5917.55 5.35158
5925.67 5.22055
5933.79 5.12655
5941.91 5.05546
5958.15 4.95400
5974.39 4.88397
5982.51 4.85627
5990.63 4.83247
5998.75 4.81474
6002.81 4.82045
6004.84 4.87564
6005.34 4.93478
6005.85 5.09992
6006.10 5.32369
6006.36 5.92517
6006.48 6.71133
6006.61 8.72665
6006.68 11.2114
6006.74 16.8832
6006.77 23.0896
6006.80 34.8090
6006.82 45.5182
6006.83 62.4950
6006.85 90.6735
6006.86 136.304
6006.88 213.927
6006.90 267.565
6006.92 213.716
6006.94 136.042
6006.95 90.4288
6006.97 63.6424
6006.98 46.1687
6007.00 35.7419
6007.03 23.4893
6007.06 17.2097
6007.12 11.3570
6007.18 8.85494
6007.31 6.76861
6007.43 5.95253
6007.68 5.32518
6007.92 5.09457
6008.41 4.92348
6008.91 4.86173
6010.88 4.79823
6014.82 4.77514
6022.70 4.75561
6038.47 4.72645
6054.23 4.70679
6058.18 4.70802
6062.12 4.72366
6064.09 4.75131
6066.06 4.83546
6067.04 4.95413
6068.03 5.28465
6068.52 5.72822
6068.77 6.15484
6069.01 6.90145
6069.26 8.39568
6069.38 9.76504
6069.51 12.0421
6069.63 16.2297
6069.69 19.8030
6069.75 25.1549
6069.82 33.9583
6069.88 49.0574
6069.94 78.2735
6069.97 102.757
6070.00 136.421
6070.05 216.314
6070.10 268.417
6070.15 214.925
6070.20 136.647
6070.26 79.2553
6070.32 50.6772
6070.38 35.3161
6070.44 26.3688
6070.50 20.6990
6070.56 17.0181
6070.68 12.6196
6070.79 10.1884
6070.91 8.73076
6071.15 7.12665
6071.39 6.31531
6071.62 5.84913
6072.10 5.36146
6073.05 4.99158
6073.99 4.85501
6075.89 4.75213
6077.78 4.71317
6081.57 4.68110
6085.36 4.66613
6100.53 4.63585
6115.69 4.61598
6123.27 4.61564
6127.06 4.65169
6128.01 4.69300
6128.95 4.81158
6129.43 4.97513
6129.90 5.42597
6130.14 6.02591
6130.26 6.60470
6130.38 7.60567
6130.49 9.60627
6130.55 11.4213
6130.61 14.4169
6130.67 19.8652
6130.70 24.5107
6130.73 31.2691
6130.76 42.4161
6130.79 60.7823
6130.82 95.8131
6130.85 161.731
6130.87 255.576
6130.90 318.803
6130.93 255.758
6130.95 161.656
6130.97 120.219
6130.98 91.3800
6131.02 56.9988
6131.05 39.0114
6131.08 28.7264
6131.11 22.3786
6131.14 18.2136
6131.21 13.2884
6131.27 10.6109
6131.34 9.00028
6131.46 7.24579
6131.72 5.85701
6131.98 5.32991
6132.49 4.93196
6133.00 4.78651
6134.03 4.67847
6135.05 4.63878
6139.15 4.59528
6147.35 4.57441
6163.74 4.54992
6196.53 4.50420
6229.32 4.45522
6262.11 4.39979
6294.89 4.33414
6327.68 4.25246
6344.08 4.20271
6360.47 4.14459
6376.86 4.07572
6385.06 4.03861
6389.16 4.03020
6391.21 4.07255
6391.72 4.12456
6392.23 4.27391
6392.49 4.47742
6392.75 5.02578
6392.87 5.73394
6393.00 7.51562
6393.07 9.63372
6393.13 14.3697
6393.16 19.2558
6393.19 28.3493
6393.21 36.0250
6393.23 47.5211
6393.24 65.2661
6393.26 94.5219
6393.28 149.111
6393.30 185.062
6393.32 149.200
6393.34 94.6345
6393.36 68.2009
6393.37 51.3481
6393.40 31.8989
6393.43 21.7927
6393.46 16.3771
6393.51 10.8563
6393.57 8.35912
6393.68 6.17363
6393.80 5.29861
6394.02 4.60697
6394.25 4.34633
6394.70 4.14836
6395.16 4.07450
6396.97 3.99246
6400.59 3.95096
6407.84 3.89614
6415.09 3.83876
6422.34 3.77404
6436.83 3.61256
6451.33 3.38391
6458.58 3.22855
6465.83 3.03026
6473.08 2.76772
6480.32 2.40372
6483.95 2.16384
6487.57 1.86866
6491.20 1.50018
6494.82 1.03945
6498.44 0.496854
6500.26 0.246922
6501.16 0.163184
6502.07 0.144626
6502.97 0.250248
6503.43 0.381843
6503.88 0.594401
6504.33 0.921387
6504.79 1.41237
6505.24 2.14253
6505.69 3.22900
6506.15 4.86027
6506.60 7.35114
6507.05 11.2510
6507.50 17.5688
6507.96 28.2705
6508.41 47.4316
6508.86 83.9132
6509.09 114.002
6509.32 156.059
6509.76 279.743
6510.20 389.465
6510.64 345.082
6511.09 237.850
6511.39 181.517
6511.69 141.328
6511.99 112.977
6512.28 92.7137
6512.88 66.5451
6513.48 51.1038
6514.08 41.1984
6514.68 34.4556
6515.88 26.0214
6517.08 21.0722
6518.28 17.8703
6519.48 15.6509
6520.68 14.0334
6523.07 11.8452
6525.47 10.4453
6527.87 9.47669
6530.27 8.76908
6535.06 7.80560
6539.86 7.18106
6544.65 6.74273
6549.45 6.41725
6559.04 5.96315
6568.63 5.65717
6587.81 5.25640
6606.99 4.98585
6616.58 4.87440
6626.17 4.77377
6635.76 4.68698
6640.56 4.65455
6645.35 4.64051
6647.75 4.64783
6650.15 4.67411
6652.54 4.73598
6654.94 4.87227
6656.14 4.99657
6657.34 5.19284
6658.54 5.52032
6659.74 6.11326
6660.34 6.60475
6660.93 7.33671
6661.53 8.49562
6662.13 10.4743
6662.73 14.2699
6663.03 17.6140
6663.33 22.9041
6663.63 32.0112
6663.93 49.2973
6664.08 64.2773
6664.23 87.2309
6664.38 123.670
6664.53 181.490
6664.72 287.886
6664.90 358.912
6665.09 288.262
6665.27 181.971
6665.42 123.518
6665.57 87.0709
6665.72 64.1491
6665.87 49.2849
6666.17 32.0076
6666.48 22.9294
6666.78 17.6167
6667.08 14.2768
6667.68 10.4688
6668.28 8.46355
6668.89 7.28281
6669.49 6.52703
6670.09 6.01299
6671.29 5.37452
6672.50 5.00405
6673.70 4.76554
6674.91 4.59982
6677.32 4.38130
6679.73 4.23735
6682.14 4.12790
6684.54 4.03561
6694.18 3.71032
6703.82 3.33591
6708.64 3.09728
6713.46 2.80240
6718.27 2.42520
6723.09 1.92633
6725.50 1.61434
6727.91 1.25199
6730.32 0.840705
6732.73 0.416539
6733.93 0.242774
6735.14 0.162700
6735.74 0.194564
6736.34 0.310504
6736.95 0.557771
6737.55 1.01341
6738.15 1.80916
6738.75 3.17168
6739.36 5.52642
6739.96 9.71120
6740.26 12.9957
6740.56 17.5306
6740.86 23.9278
6741.16 33.1481
6741.46 46.7584
6741.76 67.3443
6742.07 99.0983
6742.37 148.140
6742.83 268.335
6743.30 377.086
6743.77 336.942
6744.24 234.004
6744.55 179.423
6744.87 140.420
6745.18 112.782
6745.50 92.8988
6746.13 67.2045
6746.76 51.9431
6747.40 42.1181
6748.03 35.4082
6749.29 26.9883
6750.56 22.0202
6751.82 18.7963
6754.35 14.9143
6756.88 12.6898
6759.41 11.2611
6761.94 10.2704
6764.47 9.54527
6769.52 8.55617
6774.58 7.91451
6779.64 7.46468
6784.69 7.13169
6794.81 6.67095
6804.92 6.36665
6809.98 6.25041
6815.04 6.15248
6820.10 6.07885
6822.63 6.09266
6823.26 6.13724
6823.89 6.27799
6824.21 6.47587
6824.52 7.01749
6824.68 7.72523
6824.84 9.53225
6824.92 11.7190
6825.00 16.7321
6825.04 22.1483
6825.07 32.3316
6825.09 41.4732
6825.11 55.7690
6825.13 79.0795
6825.15 117.100
6825.18 184.022
6825.20 228.103
6825.22 184.025
6825.25 117.103
6825.27 76.1846
6825.29 53.1720
6825.31 38.8105
6825.33 30.2461
6825.38 20.4687
6825.42 15.6228
6825.50 11.0646
6825.59 9.10294
6825.76 7.48992
6825.93 6.86548
6826.27 6.38327
6826.61 6.20279
6827.29 6.06314
6827.97 6.00724
6830.70 5.92602
6836.15 5.85003
6847.05 5.73822
6857.95 5.64863
6868.85 5.57399
6890.65 5.45563
6912.45 5.36503
6956.05 5.23283
6999.65 5.13806
7043.26 5.06406
7086.86 5.00231
7130.46 4.94817
7152.26 4.92381
7163.16 4.91333
7168.61 4.91026
7171.34 4.91507
7172.70 4.94203
7173.38 5.04885
7173.72 5.43089
7173.89 6.61322
7173.93 7.56918
7173.98 9.50653
7174.02 14.5765
7174.04 20.2321
7174.06 31.2181
7174.08 47.2781
7174.10 57.6630
7174.12 47.3824
7174.14 31.3496
7174.16 22.3166
7174.17 16.9480
7174.20 11.4156
7174.27 7.56607
7174.33 6.32828
7174.40 5.78778
7174.66 5.16472
7175.18 4.97674
7176.21 4.92407
7178.29 4.90933
7182.44 4.90593
7190.74 4.92074
7194.89 4.95165
7196.97 4.98510
7199.04 5.04821
7201.12 5.18534
7202.15 5.32221
7203.19 5.57006
7203.71 5.77729
7204.23 6.09077
7204.75 6.59738
7205.27 7.49253
7205.53 8.22718
7205.78 9.31183
7206.04 11.0243
7206.30 13.9301
7206.56 19.5017
7206.69 24.4071
7206.82 32.1245
7206.95 45.4592
7207.08 70.6370
7207.15 92.5372
7207.21 126.120
7207.28 179.484
7207.34 263.310
7207.42 418.398
7207.50 521.781
7207.58 418.352
7207.66 263.260
7207.71 195.810
7207.76 149.198
7207.85 92.5051
7207.95 62.6135
7208.05 45.5734
7208.14 34.8880
7208.24 27.8650
7208.43 19.5781
7208.63 15.0381
7208.82 12.3177
7209.21 9.34712
7209.59 7.84610
7209.98 6.98678
7210.37 6.44959
7210.75 6.09235
7211.53 5.65938
7212.30 5.41782
7213.85 5.17088
7215.40 5.05311
7216.94 4.98739
7220.04 4.91930
7226.22 4.86473
7232.41 4.83992
7244.78 4.81058
7257.16 4.78768
7281.91 4.74197
7306.65 4.68648
7331.40 4.60781
7343.78 4.55083
7356.15 4.47051
7368.53 4.34430
7374.71 4.24752
7380.90 4.10711
7383.99 4.00961
7387.09 3.88277
7390.18 3.71057
7393.27 3.46329
7394.82 3.29419
7396.37 3.07815
7397.91 2.79317
7399.46 2.40279
7400.23 2.14960
7401.01 1.84479
7401.78 1.47694
7402.55 1.04779
7403.33 0.626491
7403.72 0.524602
7404.10 0.706104
7404.30 1.04803
7404.49 1.72999
7404.68 3.03931
7404.87 5.56961
7404.97 7.67240
7405.07 10.7058
7405.17 15.1755
7405.26 21.8500
7405.36 32.3452
7405.45 49.0581
7405.55 77.0997
7405.65 123.598
7405.77 224.435
7405.90 315.173
7406.03 282.294
7406.15 196.378
7406.24 149.526
7406.33 116.339
7406.42 93.0914
7406.51 76.5203
7406.69 55.3085
7406.87 42.8748
7407.04 34.8691
7407.22 29.4112
7407.58 22.5977
7407.93 18.5753
7408.29 15.9718
7408.64 14.1564
7409.00 12.8323
7409.71 11.0337
7410.42 9.87810
7411.13 9.07685
7411.84 8.49097
7413.26 7.69164
7414.69 7.17406
7416.11 6.81228
7417.53 6.54561
7420.37 6.17882
7423.22 5.93928
7428.90 5.64802
7431.75 5.55541
7434.59 5.48624
7437.43 5.43810
7440.28 5.41493
7443.12 5.43622
7444.54 5.48334
7445.96 5.58797
7447.38 5.83394
7448.10 6.08598
7448.81 6.54558
7449.16 6.93076
7449.52 7.50999
7449.87 8.44263
7450.23 10.0706
7450.58 13.3157
7450.76 16.2931
7450.94 21.1970
7451.12 30.2147
7451.21 37.7986
7451.29 49.1271
7451.38 67.4701
7451.47 99.0827
7451.56 158.140
7451.65 272.553
7451.72 433.263
7451.80 540.658
7451.88 433.934
7451.95 273.223
7452.01 195.595
7452.06 143.567
7452.11 108.799
7452.16 85.3942
7452.27 56.3462
7452.37 40.4908
7452.48 30.8497
7452.59 24.6927
7452.80 17.5161
7453.01 13.6526
7453.22 11.3524
7453.43 9.87434
7453.64 8.87274
7454.06 7.62928
7454.48 6.92057
7454.90 6.47614
7455.32 6.17987
7456.17 5.81891
7457.01 5.61441
7458.70 5.39941
7460.38 5.29087
7462.07 5.22575
7465.44 5.14961
7472.18 5.07141
7478.93 5.02462
7485.67 4.98989
7492.42 4.96163
7505.90 4.91621
7519.39 4.87951
7532.88 4.84795
7559.85 4.79332
7613.81 4.69460
7640.78 4.64242
7654.27 4.61473
7661.01 4.60380
7664.39 4.61451
7666.07 4.68686
7666.49 4.76440
7666.91 4.98102
7667.13 5.27290
7667.34 6.04331
7667.44 7.03068
7667.55 9.42697
7667.60 12.2075
7667.65 17.9963
7667.68 23.8645
7667.70 33.7201
7667.73 52.2324
7667.74 67.5046
7667.76 89.3943
7667.78 140.231
7667.80 174.683
7667.82 140.535
7667.84 89.7731
7667.87 55.6446
7667.89 37.2743
7667.91 26.9065
7667.94 20.6619
7667.98 13.8750
7668.03 10.6492
7668.12 7.71989
7668.21 6.50279
7668.40 5.51013
7668.59 5.12993
7668.96 4.83856
7669.33 4.73050
7670.81 4.61770
7673.77 4.58084
7679.71 4.55761
7691.57 4.52293
7703.43 4.48651
7715.29 4.44585
7739.01 4.34549
7762.74 4.20362
7774.60 4.10638
7786.46 3.98059
7798.32 3.81046
7810.18 3.56613
7816.11 3.39865
7822.05 3.18380
7827.98 2.89833
7833.91 2.50201
7836.87 2.24115
7839.84 1.92118
7842.80 1.52409
7845.77 1.03384
7848.73 0.473084
7850.22 0.231758
7850.96 0.162824
7851.70 0.170680
7852.44 0.320276
7853.18 0.733607
7853.55 1.10825
7853.92 1.65536
7854.29 2.45323
7854.66 3.61198
7855.04 5.31791
7855.41 7.86040
7855.78 11.7297
7856.15 17.7631
7856.52 27.5553
7856.89 44.0133
7857.26 72.9769
7857.63 124.579
7858.07 227.651
7858.50 322.036
7858.94 289.584
7859.37 202.297
7859.68 154.112
7859.98 120.044
7860.29 96.1482
7860.60 79.0956
7861.21 57.2382
7861.82 44.3483
7862.43 36.0928
7863.04 30.4557
7864.27 23.3903
7865.49 19.2214
7866.72 16.5138
7867.94 14.6287
7869.17 13.2483
7871.61 11.3727
7874.06 10.1661
7876.51 9.32815
7878.96 8.71390
7883.86 7.87558
7888.75 7.33164
7893.65 6.95050
7898.54 6.66879
7908.34 6.27998
7918.13 6.02405
7927.92 5.84244
7937.72 5.70655
7957.30 5.51586
7976.89 5.38740
7986.68 5.33737
7996.48 5.29414
8006.27 5.25701
8011.17 5.24370
8013.61 5.25215
8014.84 5.31441
8015.45 5.56181
8015.60 5.80197
8015.76 6.42608
8015.83 7.20495
8015.91 9.01987
8015.95 11.0780
8015.99 15.1395
8016.02 24.9027
8016.04 35.2995
8016.06 54.0569
8016.08 83.9394
8016.10 102.947
8016.12 84.0323
8016.14 54.1744
8016.16 35.4079
8016.18 24.9967
8016.22 15.2100
8016.25 11.1331
8016.29 9.10293
8016.37 7.25131
8016.44 6.46408
8016.60 5.82171
8016.75 5.57478
8017.36 5.31432
8018.58 5.23990
8021.01 5.21354
8025.89 5.19391
8035.64 5.16536
8055.14 5.11749
8074.64 5.07695
8094.14 5.04160
8133.15 4.98153
8172.15 4.93036
8211.15 4.88389
8250.15 4.83906
8289.16 4.79307
8308.66 4.76899
8318.41 4.75807
8323.28 4.75954
8325.72 4.78866
8326.94 4.91323
8327.24 5.03910
8327.55 5.37987
8327.70 5.82908
8327.85 6.97619
8327.93 8.37332
8328.01 11.6053
8328.04 15.0750
8328.08 21.8521
8328.10 27.8657
8328.12 37.3276
8328.14 52.8863
8328.16 78.8643
8328.18 124.433
8328.20 152.992
8328.22 122.301
8328.24 78.9549
8328.27 49.9489
8328.29 33.9103
8328.31 24.7575
8328.33 19.4044
8328.37 13.3051
8328.42 10.3667
8328.50 7.66555
8328.59 6.53412
8328.76 5.60602
8328.94 5.24996
8329.28 4.97744
8329.63 4.87699
8331.02 4.77417
8333.79 4.74373
8339.34 4.72872
8350.43 4.70997
8372.62 4.67184
8394.81 4.62691
8417.00 4.57071
8439.19 4.49544
8461.38 4.38454
8472.47 4.30453
8483.57 4.19508
8489.12 4.12328
8494.66 4.03491
8500.21 3.92723
8502.98 3.88424
8504.37 3.95069
8504.72 4.04630
8505.06 4.32331
8505.24 4.69865
8505.41 5.67573
8505.50 6.89576
8505.58 9.74422
8505.63 12.9634
8505.67 19.3318
8505.69 25.3348
8505.71 34.6503
8505.74 51.4769
8505.76 80.3733
8505.78 125.930
8505.80 156.837
8505.82 125.954
8505.84 80.2274
8505.86 59.2885
8505.87 44.2271
8505.90 27.5580
8505.93 18.9207
8505.96 14.2933
8506.02 9.58680
8506.08 7.43409
8506.20 5.59188
8506.31 4.85161
8506.55 4.26243
8506.78 4.03557
8507.72 3.77909
8509.61 3.64776
8513.37 3.45677
8517.13 3.21819
8520.89 2.88490
8522.77 2.66204
8524.65 2.38349
8526.53 2.02764
8528.41 1.56490
8530.29 0.968094
8532.18 0.347748
8532.65 0.283766
8532.88 0.297165
8533.12 0.359571
8533.59 0.732797
8533.82 1.12927
8534.06 1.76459
8534.29 2.77134
8534.53 4.37284
8534.76 6.96169
8535.00 11.2638
8535.23 18.7010
8535.47 32.2349
8535.58 43.1344
8535.70 58.3320
8535.82 80.0692
8535.94 110.485
8536.17 202.521
8536.40 287.728
8536.63 259.629
8536.87 182.010
8537.02 141.415
8537.17 111.873
8537.48 75.3556
8537.78 55.1825
8538.09 43.0935
8538.39 35.2259
8538.70 29.8251
8539.31 22.9960
8539.92 18.9321
8540.53 16.2792
8541.75 13.0707
8542.97 11.2217
8544.19 10.0310
8545.42 9.20333
8546.64 8.59627
8549.08 7.76730
8551.52 7.22941
8553.96 6.85240
8556.41 6.57380
8561.29 6.18920
8566.18 5.93609
8571.06 5.75646
8575.95 5.62200
8585.72 5.43314
8595.49 5.30562
8615.03 5.14076
8634.57 5.03464
8644.34 4.99334
8654.11 4.95732
8663.88 4.92592
8673.65 4.90083
8683.42 4.90239
8685.86 4.92666
8688.31 5.00763
8689.53 5.12477
8690.75 5.45412
8691.36 5.89854
8691.66 6.32809
8691.97 7.08387
8692.28 8.60831
8692.43 10.0260
8692.58 12.3942
8692.73 16.8577
8692.81 20.6773
8692.89 26.5973
8692.96 36.5877
8693.04 54.5261
8693.08 69.2668
8693.11 90.7716
8693.15 122.860
8693.19 170.695
8693.25 270.274
8693.30 336.690
8693.36 270.305
8693.41 170.737
8693.45 126.033
8693.48 95.7853
8693.55 59.3794
8693.62 40.4940
8693.69 29.8776
8693.75 23.2347
8693.82 18.9440
8693.96 13.8302
8694.10 11.0378
8694.23 9.37413
8694.51 7.56222
8694.78 6.64794
8695.06 6.12681
8695.61 5.58332
8696.70 5.17215
8697.80 5.02065
8700.00 4.90573
8702.19 4.86083
8706.58 4.82073
8710.97 4.79889
8728.53 4.74162
8746.09 4.69045
8763.65 4.63641
8781.21 4.57597
8798.77 4.50571
8816.33 4.42625
8825.11 4.41311
8827.30 4.44124
8829.50 4.54796
8830.60 4.70859
8831.15 4.87125
8831.69 5.16677
8832.24 5.78700
8832.52 6.38525
8832.79 7.43359
8833.07 9.53222
8833.20 11.4565
8833.34 14.6563
8833.48 20.5390
8833.55 25.5518
8833.61 33.0686
8833.68 45.4029
8833.75 66.5709
8833.82 107.394
8833.85 140.952
8833.89 188.763
8833.94 300.541
8834.00 373.873
8834.06 301.038
8834.11 189.389
8834.18 112.182
8834.24 71.8610
8834.30 49.4837
8834.37 36.5298
8834.43 28.2432
8834.49 22.8159
8834.62 16.2829
8834.75 12.6469
8834.87 10.4548
8835.13 8.03146
8835.38 6.79972
8835.63 6.08933
8836.14 5.34278
8836.64 4.97710
8837.15 4.77068
8838.16 4.55509
8840.19 4.38452
8842.21 4.31164
8846.26 4.23551
8850.31 4.18620
8854.36 4.15177
8858.41 4.15546
8860.44 4.21068
8861.45 4.28017
8862.46 4.41802
8863.47 4.72363
8863.98 5.02660
8864.49 5.56568
8864.99 6.65492
8865.25 7.66717
8865.50 9.36749
8865.75 12.5385
8865.88 15.2689
8866.00 19.4512
8866.13 26.4065
8866.26 38.7886
8866.32 49.0283
8866.38 63.6090
8866.45 85.0740
8866.51 117.027
8866.61 184.741
8866.70 230.415
8866.80 184.931
8866.89 117.265
8866.99 71.3510
8867.09 46.8181
8867.19 33.0757
8867.29 24.8428
8867.40 19.5510
8867.50 16.0367
8867.70 11.7784
8867.90 9.39840
8868.10 7.95154
8868.51 6.34580
8868.91 5.52346
8869.32 5.04527
8870.13 4.53506
8870.94 4.27747
8871.75 4.12474
8873.37 3.94907
8876.61 3.76371
8879.85 3.63169
8886.33 3.36608
8892.81 3.02000
8896.05 2.79159
8899.28 2.50654
8902.52 2.14117
8905.76 1.66165
8907.38 1.36612
8909.00 1.02937
8912.24 0.312415
8913.05 0.198404
8913.86 0.201234
8914.67 0.463788
8915.08 0.782698
8915.48 1.31850
8915.89 2.19538
8916.29 3.62429
8916.70 5.97956
8917.10 9.96063
8917.51 16.9553
8917.91 29.9015
8918.12 40.4446
8918.32 55.3524
8918.52 76.7132
8918.72 107.189
8919.11 197.782
8919.50 282.177
8919.89 255.810
8920.28 179.866
8920.72 118.218
8921.16 82.8899
8921.60 62.1199
8922.04 49.0883
8922.49 40.3942
8922.93 34.2892
8923.81 26.4349
8924.69 21.6965
8925.57 18.5746
8927.34 14.7710
8929.10 12.5685
8930.86 11.1461
8932.63 10.1568
8934.39 9.43146
8937.92 8.44098
8941.45 7.79860
8944.97 7.34870
8948.50 7.01639
8955.56 6.55803
8962.61 6.25648
8969.67 6.04250
8976.72 5.88231
8990.83 5.65712
9004.94 5.50468
9012.00 5.44497
9019.05 5.39307
9026.11 5.34806
9029.63 5.33127
9031.40 5.33937
9032.28 5.40659
9032.72 5.66932
9032.94 6.53158
9033.05 8.82958
9033.10 13.2735
9033.13 19.1524
9033.16 31.9764
9033.18 48.1348
9033.20 58.7323
9033.22 48.2554
9033.24 32.0617
9033.27 18.6958
9033.30 12.8386
9033.36 8.53577
9033.48 6.42054
9033.72 5.63840
9034.19 5.39460
9035.15 5.32150
9037.05 5.29278
9040.87 5.26822
9048.49 5.23059
9063.75 5.16636
9079.00 5.11110
9086.63 5.08927
9090.44 5.09465
9092.35 5.16102
9093.30 5.43663
9093.54 5.71110
9093.78 6.43896
9093.90 7.36477
9094.02 9.64290
9094.08 12.3079
9094.13 17.9437
9094.16 23.5942
9094.19 33.6206
9094.22 53.1750
9094.24 69.8604
9094.25 92.0449
9094.28 145.412
9094.30 179.051
9094.32 143.208
9094.35 92.0629
9094.37 62.6177
9094.39 44.5151
9094.41 33.3239
9094.43 26.4166
9094.47 18.0495
9094.51 13.8087
9094.58 9.73830
9094.66 7.95809
9094.82 6.48263
9094.98 5.90187
9095.30 5.45316
9095.61 5.28581
9096.87 5.11220
9099.40 5.05884
9104.45 5.03067
9114.55 4.99536
9134.74 4.92902
9154.94 4.85639
9175.14 4.76699
9195.34 4.64008
9205.43 4.54785
9215.53 4.41758
9220.58 4.32839
9225.63 4.21311
9230.68 4.05722
9235.73 3.83311
9238.25 3.67921
9240.78 3.48132
9243.30 3.21741
9245.83 2.84878
9247.09 2.60419
9248.35 2.30177
9249.62 1.92146
9250.88 1.43979
9252.14 0.853036
9253.40 0.372553
9253.72 0.403135
9254.03 0.625408
9254.35 1.23085
9254.66 2.62779
9254.82 3.89350
9254.98 5.81652
9255.14 8.78855
9255.30 13.4594
9255.45 21.1384
9255.61 34.1940
9255.77 57.2701
9255.93 98.4037
9256.11 182.238
9256.30 261.280
9256.49 237.804
9256.67 167.863
9256.81 127.245
9256.95 98.9308
9257.09 79.1331
9257.22 65.2238
9257.50 47.4593
9257.77 37.0482
9258.05 30.3981
9258.32 25.8606
9258.87 20.1694
9259.42 16.8055
9259.97 14.6122
9260.52 13.0806
9261.07 11.9558
9262.17 10.4223
9263.27 9.43085
9264.37 8.73972
9265.47 8.23181
9267.67 7.53535
9269.87 7.08133
9272.07 6.76211
9274.27 6.52545
9278.67 6.19745
9283.07 5.98056
9287.47 5.82603
9291.87 5.71015
9300.67 5.54821
9305.07 5.49072
9309.47 5.44628
9313.87 5.41853
9318.27 5.42988
9320.47 5.48370
9321.57 5.54721
9322.67 5.67066
9323.77 5.94258
9324.32 6.21419
9324.87 6.70407
9325.42 7.71924
9325.69 8.69046
9325.97 10.3762
9326.24 13.6847
9326.38 16.6915
9326.52 21.5708
9326.66 30.3816
9326.72 37.6441
9326.79 48.2345
9326.86 64.9573
9326.93 92.1352
9327.00 140.545
9327.07 227.265
9327.13 360.563
9327.20 450.036
9327.27 361.156
9327.33 228.009
9327.38 160.547
9327.43 115.877
9327.48 86.8058
9327.53 67.6668
9327.63 44.5725
9327.73 32.0910
9327.83 24.6724
9327.93 19.9319
9328.13 14.4672
9328.32 11.5665
9328.52 9.84787
9328.72 8.74709
9328.92 8.00001
9329.31 7.07979
9329.71 6.55546
9330.50 6.00954
9331.29 5.74398
9332.09 5.59364
9333.67 5.43542
9336.84 5.30647
9340.01 5.24813
9346.34 5.18322
9352.68 5.13844
9378.03 4.98461
9390.70 4.88465
9397.04 4.81535
9403.37 4.71938
9406.54 4.65422
9409.71 4.57022
9412.88 4.45650
9416.05 4.29233
9417.63 4.17875
9419.22 4.03165
9420.80 3.83318
9422.39 3.55061
9423.97 3.11730
9424.76 2.80264
9425.55 2.38096
9426.35 1.80341
9427.14 1.06477
9427.53 0.794789
9427.73 0.855585
9427.93 1.31717
9428.13 2.81622
9428.23 4.45800
9428.33 7.34376
9428.42 12.6016
9428.47 16.8510
9428.52 22.7077
9428.57 31.2631
9428.62 43.4604
9428.67 61.7865
9428.72 88.1360
9428.81 163.907
9428.90 234.814
9428.95 236.211
9428.99 214.011
9429.08 151.793
9429.17 106.196
9429.25 77.7753
9429.34 59.9527
9429.43 48.3702
9429.51 40.2907
9429.60 34.5498
9429.77 26.9420
9429.95 22.2558
9430.12 19.1285
9430.46 15.2757
9430.81 13.0276
9431.16 11.5697
9431.50 10.5535
9431.85 9.80728
9432.54 8.78858
9433.23 8.12808
9433.92 7.66621
9434.62 7.32549
9436.00 6.85670
9437.39 6.54999
9438.77 6.33355
9440.15 6.17256
9442.92 5.94876
9445.69 5.80032
9448.46 5.69426
9451.23 5.61450
9456.76 5.50187
9462.30 5.42548
9473.37 5.32687
9484.45 5.26439
9495.52 5.22016
9517.67 5.15955
9539.82 5.11812
9561.96 5.08678
9584.11 5.06162
9595.18 5.05117
9600.72 5.04863
9603.49 5.05714
9604.87 5.09951
9605.56 5.26282
9605.91 5.83132
9606.08 7.53838
9606.17 11.5697
9606.21 18.0356
9606.24 25.1712
9606.26 37.8064
9606.28 57.1555
9606.30 70.6465
9606.32 57.2148
9606.34 37.8798
9606.37 23.2288
9606.40 16.1581
9606.45 10.1687
9606.55 6.90486
9606.77 5.61055
9607.19 5.19896
9608.03 5.08157
9609.72 5.04865
9613.09 5.03741
9619.84 5.02953
9633.33 5.01823
9660.32 4.99872
9714.29 4.96567
9768.27 4.93738
9795.25 4.92456
9808.75 4.91952
9815.50 4.92224
9818.87 4.94481
9820.56 5.03902
9821.40 5.39273
9821.61 5.73220
9821.82 6.60628
9821.93 7.68276
9822.03 10.1631
9822.08 12.8678
9822.14 18.0693
9822.19 30.2872
9822.22 42.4660
9822.24 63.4991
9822.27 98.9657
9822.30 122.228
9822.33 99.0769
9822.36 63.6389
9822.38 45.7615
9822.40 33.9346
9822.45 21.3340
9822.49 15.1757
9822.53 11.9353
9822.62 8.74063
9822.71 7.32087
9822.88 6.10685
9823.05 5.62541
9823.75 5.10768
9825.13 4.96303
9827.91 4.92324
9833.46 4.91046
9844.56 4.90262
9866.77 4.89175
9911.18 4.87124
9955.59 4.85004
10000.0 4.82665
10050.2 4.79429
10075.3 4.77330
10100.4 4.74586
10125.5 4.70555
10138.1 4.67583
10150.6 4.63345
10156.9 4.60417
10163.2 4.56606
10169.5 4.51381
10175.7 4.43736
10178.9 4.38369
10182.0 4.31321
10185.2 4.21633
10188.3 4.07510
10191.4 3.84776
10193.0 3.67325
10194.6 3.42326
10196.1 3.03682
10196.9 2.75173
10197.7 2.37091
10198.5 1.83339
10199.3 1.12309
10199.7 0.813767
10200.1 1.11626
10200.3 2.33300
10200.4 3.75389
10200.4 6.01626
10200.5 10.6436
10200.6 14.4479
10200.6 19.9216
10200.7 27.9542
10200.7 39.9695
10200.8 58.1784
10200.8 80.4696
10200.9 152.906
10201.0 214.113
10201.1 198.318
10201.2 138.454
10201.2 101.477
10201.3 74.4063
10201.4 57.3211
10201.5 46.0891
10201.6 38.3568
10201.6 32.8077
10201.8 25.5206
10202.0 21.0447
10202.1 18.0645
10202.4 14.4021
10202.8 12.2707
10203.1 10.8910
10203.4 9.93062
10203.7 9.22624
10204.4 8.26588
10205.0 7.64411
10205.6 7.20983
10206.3 6.88982
10207.6 6.45040
10208.8 6.16323
10210.1 5.96100
10211.4 5.81091
10214.0 5.60302
10216.5 5.46578
10219.1 5.36833
10221.6 5.29572
10226.8 5.19376
10231.9 5.12561
10237.0 5.07663
10242.1 5.03962
10252.3 4.98672
10262.6 4.95031
10283.0 4.90194
10303.5 4.86972
10324.0 4.84574
10344.4 4.82902
10354.7 4.83514
10359.8 4.89247
10361.1 4.95454
10362.3 5.12914
10363.0 5.36519
10363.6 5.99867
10363.9 6.81392
10364.1 7.57326
10364.3 8.85448
10364.4 11.2629
10364.5 13.3444
10364.6 16.5862
10364.7 21.9960
10364.7 31.8612
10364.8 39.9982
10364.8 51.8859
10364.9 69.5934
10364.9 90.4547
10364.9 140.447
10365.0 176.161
10365.1 140.606
10365.1 90.6511
10365.2 55.8487
10365.2 37.8309
10365.3 27.5273
10365.4 21.2587
10365.4 16.6860
10365.5 14.1078
10365.6 10.9325
10365.7 9.02232
10365.9 7.95131
10366.1 6.74658
10366.6 5.74421
10367.1 5.35742
10368.1 5.06228
10369.0 4.95292
10371.0 4.87063
10373.0 4.84006
10380.8 4.80479
10396.5 4.78505
10412.2 4.77286
10420.1 4.77195
10424.0 4.79049
10426.0 4.87338
10427.0 5.18903
10427.2 5.50401
10427.5 6.29197
10427.6 7.37464
10427.7 9.82009
10427.8 12.5476
10427.8 18.1608
10427.9 23.4495
10427.9 32.3565
10427.9 48.6005
10427.9 67.2896
10427.9 94.8863
10428.0 138.574
10428.0 178.091
10428.0 184.745
10428.0 138.645
10428.1 94.9678
10428.1 67.3674
10428.1 48.6706
10428.1 36.7366
10428.1 28.8739
10428.2 19.6957
10428.2 15.8076
10428.3 10.5744
10428.4 8.52666
10428.5 6.62714
10428.7 5.87021
10429.0 5.28168
10429.3 5.06144
10430.5 4.83685
10432.9 4.77585
10437.6 4.75679
10447.2 4.74535
10466.4 4.72920
10504.8 4.69683
10543.1 4.66012
10581.5 4.61583
10619.8 4.55906
10639.0 4.52349
10658.2 4.48098
10677.4 4.42889
10696.6 4.36348
10715.7 4.28193
10725.3 4.25140
10727.7 4.26176
10730.1 4.31822
10731.3 4.41003
10732.5 4.67996
10733.1 5.05146
10733.4 5.41481
10733.7 6.06022
10734.0 7.37287
10734.2 8.60662
10734.3 10.7089
10734.5 14.7210
10734.5 18.5385
10734.6 23.8225
10734.7 34.2126
10734.8 51.3485
10734.8 67.9783
10734.8 86.2118
10734.9 122.873
10734.9 163.908
10735.0 260.032
10735.0 324.241
10735.1 260.098
10735.1 163.991
10735.2 102.469
10735.2 73.4519
10735.2 51.4066
10735.3 40.2871
10735.4 25.8975
10735.5 19.1851
10735.5 14.7442
10735.6 12.0028
10735.8 9.06529
10736.0 7.44090
10736.2 6.54464
10736.5 5.57634
10737.2 4.80196
10737.9 4.51575
10739.3 4.29397
10740.7 4.20633
10743.4 4.12632
10746.2 4.08028
10757.3 3.93573
10762.9 3.85518
10768.5 3.76160
10779.6 3.51482
10785.1 3.34585
10790.7 3.12925
10796.2 2.84183
10801.8 2.44452
10804.6 2.18348
10807.4 1.86419
10810.1 1.46984
10812.9 0.986179
10815.7 0.439562
10817.1 0.208148
10818.5 0.152877
10819.2 0.298007
10819.9 0.684571
10820.6 1.54255
10820.9 2.27479
10821.3 3.29348
10821.6 4.80440
10822.0 7.01632
10822.3 10.3073
10822.6 15.1336
10823.0 22.8299
10823.3 34.7180
10823.7 54.6718
10824.0 86.3822
10824.5 161.497
10825.0 233.405
10825.5 214.326
10826.0 152.546
10826.3 119.808
10826.6 95.6838
10827.3 65.3927
10827.9 48.5009
10828.5 38.3766
10829.2 31.6370
10829.8 26.9711
10831.1 21.0746
10832.4 17.5145
10833.6 15.1936
10836.2 12.3598
10838.7 10.7081
10841.3 9.64150
10843.8 8.89386
10846.4 8.34575
10851.4 7.59294
10856.5 7.10231
10861.6 6.75758
10866.7 6.50218
10876.9 6.14873
10887.1 5.91589
10897.3 5.75045
10907.4 5.62651
10927.8 5.45226
10938.0 5.38840
10948.2 5.33491
10958.4 5.28994
10968.5 5.25416
10973.6 5.24279
10978.7 5.24629
10981.3 5.26764
10983.8 5.34385
10985.1 5.45749
10986.4 5.77873
10987.0 6.21942
10987.3 6.65020
10987.6 7.38395
10987.9 8.90719
10988.1 10.3351
10988.3 12.7616
10988.4 17.3726
10988.5 21.4034
10988.6 27.7550
10988.7 38.5318
10988.7 58.6740
10988.8 75.6975
10988.8 101.133
10988.9 140.027
10988.9 182.013
10989.0 299.131
10989.0 360.444
10989.1 278.635
10989.1 182.296
10989.2 128.956
10989.2 101.385
10989.2 66.5826
10989.3 47.0971
10989.4 35.3871
10989.4 26.9133
10989.5 22.1608
10989.6 16.3328
10989.7 12.8401
10989.9 10.8863
10990.1 8.63015
10990.4 7.48661
10990.6 6.82875
10991.1 6.14910
10992.1 5.62269
10993.1 5.42704
10995.1 5.27860
10997.0 5.22132
11001.0 5.17219
11005.0 5.14744
11020.8 5.09069
11052.5 4.99774
11068.3 4.93919
11076.3 4.90018
11084.2 4.84751
11092.1 4.76715
11096.1 4.70642
11100.0 4.61863
11104.0 4.47793
11106.0 4.36907
11108.0 4.21079
11109.9 3.95878
11110.9 3.76698
11111.9 3.49472
11112.9 3.08006
11113.4 2.77834
11113.9 2.38696
11114.4 1.85280
11114.9 1.22792
11115.1 1.06353
11115.4 1.77969
11115.5 3.52599
11115.6 8.02381
11115.7 12.8499
11115.8 21.4832
11115.8 28.2679
11115.8 37.6369
11115.8 50.6399
11115.9 68.5816
11115.9 133.527
11116.0 185.583
11116.0 185.248
11116.1 167.796
11116.1 122.036
11116.2 88.1755
11116.3 65.9073
11116.3 51.5751
11116.4 41.9931
11116.5 30.4566
11116.6 24.4330
11116.7 20.2772
11116.8 17.5013
11117.1 14.1856
11117.3 12.1471
11117.5 10.8747
11118.0 9.28991
11118.5 8.37079
11119.0 7.77367
11119.9 7.04696
11120.8 6.62230
11121.8 6.34416
11123.6 6.00346
11125.5 5.80058
11127.4 5.66699
11131.1 5.50019
11134.9 5.40025
11138.7 5.33546
11142.4 5.30286
11144.3 5.34919
11145.2 5.59598
11145.5 5.85508
11145.7 6.52268
11145.8 7.41940
11145.9 9.41349
11146.0 11.8888
11146.0 17.3362
11146.1 22.8297
11146.1 32.7203
11146.1 52.2377
11146.2 78.8202
11146.2 130.944
11146.2 152.952
11146.2 131.064
11146.2 78.9889
11146.3 62.7842
11146.3 44.2667
11146.3 32.8508
11146.3 25.5829
11146.4 17.4266
11146.4 14.1004
11146.5 9.77293
11146.5 8.13584
11146.7 6.65258
11146.8 6.07275
11147.4 5.46333
11148.6 5.28562
11151.0 5.22354
11155.7 5.18326
11165.2 5.13789
11174.6 5.10670
11184.1 5.08283
11203.0 5.04758
11212.5 5.03571
11217.2 5.03897
11219.6 5.07545
11220.8 5.22737
11221.4 5.78807
11221.5 6.32908
11221.7 7.72080
11221.7 9.58526
11221.8 13.3495
11221.9 17.9402
11221.9 24.2425
11221.9 42.0728
11221.9 59.8583
11222.0 77.0189
11222.0 126.397
11222.0 148.122
11222.0 126.515
11222.0 77.1841
11222.1 50.0190
11222.1 36.1108
11222.1 21.8341
11222.2 15.3653
11222.2 11.9788
11222.3 8.52372
11222.4 7.22814
11222.6 6.08671
11222.7 5.64661
11223.4 5.18781
11224.8 5.06200
11227.5 5.02592
11232.9 5.01101
11243.8 4.99711
11265.5 4.97615
11309.0 4.94244
11352.4 4.91498
11374.2 4.90786
11385.0 4.92859
11387.7 4.95584
11390.4 5.03625
11391.8 5.14921
11393.2 5.46497
11393.8 5.89078
11394.2 6.30357
11394.5 7.03137
11394.9 8.49639
11395.0 9.85868
11395.2 12.1531
11395.4 16.4545
11395.5 20.4323
11395.5 25.9195
11395.6 36.2394
11395.7 52.8522
11395.8 84.9531
11395.8 112.227
11395.9 156.435
11395.9 252.515
11396.0 309.137
11396.1 252.836
11396.1 156.850
11396.2 91.2202
11396.3 59.2391
11396.4 39.7764
11396.4 30.0111
11396.5 23.0699
11396.6 19.0832
11396.7 14.2039
11396.9 11.3095
11397.0 9.67008
11397.3 7.78784
11397.6 6.83237
11397.9 6.28214
11398.5 5.70550
11399.6 5.26764
11400.8 5.10612
11403.1 4.98530
11405.4 4.94091
11410.1 4.90635
11414.7 4.89201
11433.3 4.86883
11470.5 4.84115
11507.7 4.81240
11544.9 4.77667
11582.1 4.72527
11600.7 4.68752
11619.3 4.63371
11628.6 4.59650
11637.9 4.54793
11647.2 4.48137
11656.5 4.38396
11661.1 4.31566
11665.8 4.22608
11670.4 4.10323
11675.1 3.92411
11677.4 3.79946
11679.7 3.63844
11682.1 3.42037
11684.4 3.11228
11685.6 2.90288
11686.7 2.64166
11687.9 2.30530
11689.0 1.86179
11690.2 1.27311
11691.4 0.585298
11691.9 0.429345
11692.1 0.482962
11692.2 0.605274
11692.5 1.25200
11692.8 3.03234
11693.0 4.91999
11693.1 7.85308
11693.3 13.2625
11693.4 22.2737
11693.5 30.4266
11693.5 40.3750
11693.6 54.0279
11693.7 73.9136
11693.8 138.357
11694.0 202.958
11694.1 205.300
11694.2 186.715
11694.3 133.911
11694.5 96.3783
11694.6 72.6189
11694.7 57.0875
11694.9 46.5765
11695.2 33.7668
11695.4 26.5292
11695.7 21.9978
11696.0 18.9403
11696.6 15.1345
11697.1 12.8614
11697.7 11.4091
11698.3 10.3918
11698.8 9.64210
11699.9 8.60767
11701.1 7.94173
11702.2 7.47482
11703.3 7.12981
11705.6 6.65303
11707.8 6.34107
11710.1 6.12119
11712.3 5.95854
11716.8 5.73202
11721.3 5.58271
11725.8 5.47640
11730.3 5.39707
11739.3 5.28602
11748.3 5.21182
11757.2 5.15853
11766.2 5.11829
11784.2 5.06099
11802.2 5.02177
11838.1 4.97033
11874.1 4.93689
11910.0 4.91248
11946.0 4.89340
11964.0 4.88587
11973.0 4.88499
11977.5 4.89454
11979.7 4.93744
11980.8 5.10104
11981.4 5.68844
11981.5 6.23479
11981.7 7.59627
11981.7 9.19894
11981.8 12.7400
11981.9 17.0535
11981.9 22.9706
11981.9 39.6958
11981.9 56.3660
11982.0 72.4417
11982.0 118.650
11982.0 138.902
11982.0 118.570
11982.0 72.3302
11982.1 56.2576
11982.1 39.5981
11982.1 22.8945
11982.2 15.6390
11982.2 11.9653
11982.3 8.58464
11982.4 7.14149
11982.5 5.96877
11982.7 5.51562
11983.3 5.04462
11984.6 4.91859
11987.1 4.88516
11992.2 4.87512
12002.4 4.86925
12022.8 4.86131
12063.5 4.84761
12104.2 4.83610
12124.6 4.83235
12134.8 4.83360
12139.9 4.84220
12142.4 4.87276
12143.7 4.97939
12144.3 5.35233
12144.6 6.56443
12144.7 7.59486
12144.8 9.90857
12144.9 16.8092
12144.9 26.3682
12144.9 46.4432
12145.0 67.6384
12145.0 87.4069
12145.0 67.2131
12145.1 45.9468
12145.1 25.9338
12145.1 18.1661
12145.2 11.3045
12145.3 8.29194
12145.3 7.09944
12145.6 5.49289
12146.1 5.00307
12147.1 4.86814
12149.2 4.83574
12153.3 4.82993
12161.5 4.83585
12169.7 4.87317
12171.8 4.90936
12173.8 5.00656
12174.8 5.13685
12175.9 5.48504
12176.4 5.95498
12176.9 7.17282
12177.1 8.75430
12177.3 10.2291
12177.4 12.4761
12177.5 16.9410
12177.6 21.1493
12177.7 26.7368
12177.7 37.6278
12177.8 54.4610
12177.8 86.3353
12177.9 112.859
12177.9 151.978
12178.0 239.446
12178.0 299.245
12178.1 238.688
12178.1 151.040
12178.1 102.064
12178.2 72.4343
12178.2 53.7624
12178.3 41.5647
12178.3 27.4356
12178.4 20.0107
12178.5 15.6796
12178.6 12.9493
12178.7 9.84492
12178.9 8.14641
12179.1 7.22311
12179.4 6.23713
12180.0 5.47053
12180.7 5.19396
12182.0 4.99044
12183.3 4.92214
12185.9 4.88234
12188.5 4.88609
12191.0 4.92383
12193.6 5.04620
12194.9 5.21697
12196.2 5.67578
12196.9 6.27600
12197.2 6.83002
12197.5 7.76675
12197.8 9.61372
12198.0 11.1913
12198.2 13.6747
12198.3 17.8879
12198.5 25.7831
12198.6 32.4951
12198.6 42.6186
12198.7 58.3856
12198.8 84.6598
12198.9 133.969
12199.0 164.340
12199.1 133.975
12199.2 84.6696
12199.3 51.6299
12199.4 34.6466
12199.6 24.4772
12199.7 19.0022
12199.8 15.2344
12199.9 12.9397
12200.1 10.1327
12200.3 8.50030
12200.6 7.54879
12201.0 6.46991
12201.5 5.92087
12201.9 5.60436
12202.8 5.27255
12204.6 5.02088
12206.4 4.92835
12210.0 4.85979
12213.6 4.83493
12220.8 4.81704
12228.0 4.81252
12235.2 4.81627
12242.4 4.83848
12246.0 4.87367
12249.6 4.97718
12251.4 5.12160
12252.3 5.26485
12253.2 5.52334
12254.1 6.06211
12254.6 6.58190
12255.0 7.49338
12255.5 9.31246
12255.7 11.0356
12255.9 13.7829
12256.2 19.1037
12256.3 23.4407
12256.4 30.0163
12256.5 41.8623
12256.6 61.2221
12256.7 98.1264
12256.8 132.391
12256.8 172.919
12256.9 274.349
12257.0 342.290
12257.1 274.796
12257.2 173.480
12257.3 108.606
12257.4 72.2969
12257.5 51.3734
12257.5 38.5857
12257.6 30.3145
12257.7 24.6990
12257.9 17.8274
12258.1 13.9656
12258.3 11.5905
12258.6 9.00019
12259.0 7.62206
12259.3 6.84252
12260.0 6.00284
12260.8 5.58677
12261.5 5.35616
12262.9 5.11826
12265.7 4.93985
12268.6 4.87474
12274.3 4.82771
12277.1 4.82850
12278.5 4.87492
12279.2 5.06680
12279.6 5.75947
12279.8 7.89738
12279.9 13.0156
12279.9 19.9858
12279.9 26.7346
12280.0 39.0679
12280.0 63.0600
12280.0 73.1501
12280.0 63.2333
12280.0 39.3130
12280.1 26.9636
12280.1 20.1899
12280.1 13.1753
12280.2 7.99916
12280.4 5.81604
12280.8 5.09434
12281.5 4.88417
12282.9 4.82296
12285.7 4.80228
12291.4 4.79116
12302.8 4.78122
12325.6 4.76945
12371.2 4.75068
12416.8 4.73064
12462.4 4.70575
12508.0 4.67038
12530.8 4.64475
12553.6 4.60856
12576.4 4.55136
12587.8 4.50715
12599.2 4.44244
12610.6 4.33719
12616.3 4.25477
12621.9 4.13386
12624.8 4.04904
12627.6 3.93797
12630.5 3.78626
12633.3 3.56671
12634.8 3.41505
12636.2 3.22152
12637.6 2.96237
12639.0 2.60531
12640.5 2.07984
12641.2 1.72450
12641.9 1.28788
12642.6 0.790709
12643.3 0.503978
12643.7 0.934559
12643.9 1.65339
12644.0 3.04296
12644.2 6.07613
12644.3 8.73787
12644.4 12.7482
12644.5 18.9262
12644.6 28.6737
12644.7 44.3571
12644.7 66.5075
12644.9 128.335
12645.0 184.265
12645.1 172.224
12645.3 122.522
12645.4 98.4855
12645.4 80.4389
12645.6 56.8005
12645.8 43.0251
12645.9 34.4175
12646.1 28.3875
12646.2 24.4386
12646.6 19.3288
12646.9 16.1439
12647.2 14.1049
12647.9 11.5624
12648.5 10.0823
12649.2 9.12117
12649.8 8.44958
12650.5 7.96170
12651.8 7.28163
12653.1 6.83913
12654.4 6.52898
12655.6 6.30149
12658.2 5.98641
12660.8 5.78245
12666.0 5.53960
12671.2 5.41914
12673.8 5.39628
12676.4 5.40949
12679.0 5.49658
12680.3 5.60378
12681.6 5.81002
12682.9 6.26153
12683.5 6.70639
12684.2 7.48076
12684.5 8.13207
12684.8 9.06530
12685.2 10.5730
12685.5 13.0434
12685.8 17.8558
12686.0 21.9133
12686.1 28.2149
12686.3 38.6995
12686.5 57.7692
12686.5 73.4895
12686.6 96.4978
12686.7 130.978
12686.8 183.445
12686.9 295.188
12687.0 362.299
12687.1 295.079
12687.2 183.309
12687.3 130.849
12687.4 96.3795
12687.5 73.3816
12687.6 57.6701
12687.7 37.7735
12687.9 27.6499
12688.1 21.2383
12688.2 17.3862
12688.5 12.8787
12688.9 10.3949
12689.2 8.96455
12689.5 8.01715
12689.8 7.39305
12690.5 6.60027
12691.1 6.15644
12692.4 5.69251
12693.8 5.46404
12695.1 5.33478
12697.7 5.19649
12702.9 5.07951
12708.1 5.02469
12718.5 4.96521
12728.9 4.92924
12749.8 4.88321
12770.6 4.85305
12791.4 4.83093
12812.3 4.81370
12833.1 4.80025
12843.5 4.79644
12848.7 4.80171
12851.3 4.82999
12852.6 4.93826
12853.3 5.32328
12853.6 6.60661
12853.8 9.96494
12853.9 16.4906
12853.9 25.0176
12853.9 47.1093
12854.0 70.5268
12854.0 89.3348
12854.0 70.3830
12854.1 46.9368
12854.1 28.2770
12854.1 19.8189
12854.2 12.1876
12854.3 7.59832
12854.6 5.63602
12855.0 5.02192
12856.0 4.84675
12858.0 4.80008
12861.9 4.78710
12869.8 4.78156
12885.5 4.77866
12893.3 4.78232
12901.1 4.79931
12905.1 4.82578
12909.0 4.90239
12911.0 5.00811
12911.9 5.11242
12912.9 5.30010
12913.9 5.69084
12914.4 6.06832
12914.9 6.73255
12915.4 8.06811
12915.6 9.34256
12915.9 11.4054
12916.1 15.4603
12916.2 18.8447
12916.3 24.0888
12916.5 33.7644
12916.6 50.4581
12916.7 64.3260
12916.7 84.7846
12916.8 115.778
12916.8 166.764
12916.9 267.536
12917.0 328.392
12917.1 267.297
12917.2 166.460
12917.2 122.057
12917.3 88.8203
12917.3 66.9563
12917.4 52.2163
12917.5 34.6111
12917.6 25.7001
12917.8 19.8114
12917.9 16.0722
12918.1 11.9189
12918.3 9.61064
12918.6 8.30160
12919.0 6.87939
12919.5 6.15424
12920.0 5.74419
12920.9 5.32494
12921.8 5.12188
12922.8 5.01048
12924.6 4.89681
12928.4 4.81350
12932.1 4.78325
12939.6 4.75978
12947.1 4.74986
12977.0 4.73345
12991.9 4.73018
13006.9 4.73413
13014.3 4.74595
13021.8 4.78643
13025.6 4.84651
13027.4 4.90766
13029.3 5.01936
13031.2 5.25844
13032.1 5.49562
13033.0 5.91593
13033.5 6.26661
13034.0 6.79222
13034.4 7.63060
13034.9 9.04535
13035.4 11.8605
13035.6 14.3338
13035.8 18.3161
13036.1 25.7125
13036.3 39.9506
13036.4 53.5154
13036.5 73.4437
13036.6 110.314
13036.8 173.644
13036.9 276.787
13037.0 343.629
13037.1 277.425
13037.2 174.452
13037.4 115.216
13037.5 81.4799
13037.6 60.2954
13037.7 46.4818
13037.9 30.4953
13038.1 22.0921
13038.3 16.9953
13038.5 13.9616
13038.9 10.4909
13039.3 8.62694
13039.7 7.55998
13040.1 6.86347
13040.5 6.40461
13041.3 5.83388
13042.1 5.51049
13043.7 5.17592
13045.3 5.01470
13047.0 4.92449
13050.2 4.83189
13056.7 4.76130
13063.1 4.73395
13076.1 4.71036
13089.0 4.69856
13114.9 4.68663
13127.9 4.70484
13131.1 4.73312
13134.4 4.82216
13136.0 4.95213
13136.8 5.08382
13137.6 5.32498
13138.4 5.83504
13138.8 6.33998
13139.2 7.20975
13139.6 9.00552
13139.8 10.6318
13140.0 13.3368
13140.2 18.3050
13140.3 22.4927
13140.4 28.8476
13140.5 39.0732
13140.6 56.7606
13140.7 89.9850
13140.8 117.390
13140.8 156.879
13140.9 254.352
13141.0 311.371
13141.1 256.038
13141.2 159.061
13141.3 101.837
13141.3 66.2745
13141.4 46.4306
13141.5 34.5996
13141.6 27.0868
13141.7 22.0554
13141.9 16.2297
13142.1 12.7581
13142.2 10.7434
13142.6 8.41898
13142.9 7.22289
13143.3 6.52679
13144.0 5.78844
13144.7 5.42022
13145.4 5.21457
13146.8 4.99985
13149.6 4.83465
13152.4 4.77185
13158.0 4.72176
13163.6 4.70100
13174.8 4.68174
13186.1 4.67137
13208.5 4.65756
13219.7 4.65192
13225.3 4.65112
13228.2 4.66246
13229.6 4.72150
13230.3 4.96212
13230.6 5.81650
13230.7 6.60970
13230.8 8.52965
13230.8 11.0381
13230.9 15.1754
13230.9 24.5115
13230.9 33.8615
13231.0 56.2440
13231.0 89.9901
13231.0 107.645
13231.0 90.5856
13231.0 57.0394
13231.1 41.4994
13231.1 29.2615
13231.1 17.3221
13231.2 12.2256
13231.2 9.65979
13231.3 7.30074
13231.4 6.38093
13231.7 5.18139
13232.3 4.80405
13233.5 4.69528
13235.9 4.66244
13240.7 4.65063
13250.4 4.64370
13269.8 4.63642
13289.2 4.63229
13308.5 4.63303
13327.9 4.64590
13337.6 4.66376
13347.3 4.70052
13352.1 4.73331
13357.0 4.78457
13361.8 4.86991
13366.6 5.02538
13369.1 5.15517
13371.5 5.35081
13373.9 5.66484
13376.3 6.21461
13378.7 7.30798
13379.9 8.31122
13381.2 9.97656
13382.4 13.0310
13383.0 15.6308
13383.6 19.5128
13384.2 25.8761
13384.8 36.7283
13385.4 57.5642
13386.0 98.4667
13386.5 155.502
13387.0 192.584
13387.5 154.401
13388.0 98.5914
13388.4 72.0573
13388.7 54.5013
13389.3 34.1141
13390.0 23.7269
13390.7 17.8880
13391.3 14.2826
13392.0 11.9779
13393.3 9.27104
13394.6 7.80042
13396.0 6.92725
13398.6 5.97591
13401.3 5.49859
13403.9 5.22539
13406.6 5.05427
13409.2 4.94013
13414.5 4.80037
13419.8 4.72095
13425.1 4.67061
13430.4 4.63623
13441.0 4.59193
13451.6 4.56381
13472.8 4.52666
13557.5 4.42274
13599.9 4.36337
13642.2 4.28872
13684.6 4.18897
13705.8 4.12464
13716.4 4.08771
13721.7 4.06970
13724.3 4.07035
13725.6 4.11337
13726.3 4.29862
13726.6 4.94658
13726.8 6.95110
13726.9 11.1364
13726.9 17.2019
13727.0 33.9236
13727.0 55.1784
13727.0 64.2247
13727.0 55.4352
13727.0 34.2849
13727.1 20.1109
13727.1 13.7878
13727.2 8.57537
13727.3 5.60101
13727.6 4.51326
13728.1 4.17679
13729.1 4.07699
13731.2 4.04130
13735.3 4.01523
13743.6 3.97384
13760.2 3.88297
13776.8 3.77159
13793.4 3.63092
13809.9 3.44794
13818.2 3.33513
13826.5 3.20535
13843.1 2.92186
13847.2 2.89876
13849.3 2.93173
13851.4 3.04254
13852.4 3.15848
13853.4 3.35042
13854.5 3.68676
13855.5 4.30595
13856.0 4.82899
13856.6 5.61434
13857.1 6.86087
13857.6 8.94208
13858.1 12.9692
13858.4 16.4931
13858.6 22.0460
13858.9 31.4649
13859.1 49.0765
13859.3 63.9928
13859.4 86.3792
13859.5 120.959
13859.7 171.990
13859.8 275.969
13860.0 343.003
13860.2 276.619
13860.3 172.803
13860.5 109.382
13860.7 73.7934
13860.8 52.5536
13861.0 39.2284
13861.2 29.9946
13861.3 24.0695
13861.6 16.6818
13862.0 12.3455
13862.3 9.73754
13862.9 6.78069
13863.6 5.20719
13864.2 4.28883
13864.9 3.68379
13865.5 3.27024
13866.8 2.72590
13868.1 2.38445
13870.7 1.94287
13873.3 1.62343
13875.9 1.34445
13881.0 0.805280
13886.2 0.292214
13888.8 0.128140
13890.1 0.118322
13891.4 0.201484
13892.7 0.444559
13893.9 0.958346
13894.6 1.38084
13895.2 1.95457
13895.9 2.75617
13896.5 3.84341
13897.2 5.37311
13897.8 7.47707
13898.5 10.4979
13899.1 14.7611
13899.8 21.0688
13900.4 30.2551
13901.0 44.2157
13901.7 64.7143
13902.8 124.265
13904.0 183.623
13904.6 186.925
13905.2 171.323
13906.3 123.506
13907.5 86.6109
13908.7 63.8460
13909.8 49.5720
13911.0 40.1961
13912.1 33.7292
13913.3 29.0735
13915.6 22.9258
13917.9 19.1064
13920.3 16.5570
13924.9 13.3931
13929.6 11.5271
13934.2 10.3109
13938.8 9.45776
13943.5 8.82788
13952.8 7.96174
13962.1 7.39634
13971.3 6.99887
13980.6 6.70466
13999.2 6.29755
14017.8 6.02955
14027.1 5.92715
14036.3 5.84043
14045.6 5.77261
14050.3 5.77967
14052.6 5.94099
14053.2 6.12001
14053.8 6.61901
14054.0 7.27824
14054.3 8.97239
14054.5 11.1306
14054.6 15.7427
14054.7 21.4595
14054.8 31.3429
14054.8 41.4379
14054.8 53.0501
14054.9 78.0466
14054.9 116.163
14055.0 186.932
14055.0 229.063
14055.0 187.891
14055.1 117.395
14055.1 71.5493
14055.2 45.7611
14055.2 32.1312
14055.3 25.5643
14055.4 17.3841
14055.5 13.3606
14055.6 9.59607
14055.8 8.11318
14056.2 6.87320
14056.6 6.40244
14057.3 6.02612
14058.0 5.88449
14061.0 5.72233
14066.8 5.64625
14078.6 5.57121
14090.3 5.51376
14102.1 5.46460
14125.6 5.38294
14149.0 5.31724
14196.0 5.21729
14243.0 5.14420
14290.0 5.08789
14337.0 5.04276
14383.9 5.00563
14407.4 4.99068
14419.2 4.99016
14425.0 5.01712
14428.0 5.13820
14428.7 5.26343
14429.4 5.60281
14429.8 6.05812
14430.2 7.20114
14430.4 8.69946
14430.5 12.0665
14430.6 15.7168
14430.7 22.9432
14430.8 30.3792
14430.8 39.8873
14430.9 60.1463
14430.9 93.6970
14431.0 143.105
14431.0 182.048
14431.1 143.339
14431.1 93.9799
14431.2 55.2977
14431.2 34.8191
14431.3 24.3310
14431.3 19.2123
14431.4 12.8154
14431.6 10.0823
14431.8 7.56039
14432.0 6.53107
14432.5 5.71726
14432.9 5.40838
14434.8 5.08916
14438.5 5.00094
14445.8 4.97347
14460.5 4.95859
14475.2 4.95045
14482.6 4.95529
14486.3 4.99583
14488.1 5.17184
14488.6 5.35268
14489.0 5.85059
14489.3 6.50873
14489.5 8.21476
14489.6 10.4445
14489.7 15.2049
14489.8 20.8051
14489.8 29.6092
14489.9 38.6013
14489.9 52.8597
14489.9 76.3265
14489.9 101.291
14490.0 166.562
14490.0 196.995
14490.0 182.503
14490.0 149.526
14490.1 100.648
14490.1 67.8390
14490.1 53.5009
14490.2 32.7021
14490.2 22.5806
14490.3 17.9330
14490.4 11.9792
14490.5 9.52677
14490.6 7.25860
14490.8 6.37275
14491.2 5.63644
14491.6 5.35365
14493.0 5.05675
14496.0 4.97213
14501.9 4.94554
14513.8 4.93236
14537.5 4.91832
14561.2 4.90666
14573.1 4.90138
14579.0 4.89990
14582.0 4.90414
14583.5 4.92665
14584.2 5.01643
14584.6 5.33954
14584.8 6.42326
14584.9 9.06551
14584.9 14.6514
14584.9 20.0445
14585.0 30.8969
14585.0 45.8828
14585.0 56.9994
14585.0 45.9934
14585.0 31.0322
14585.1 17.0659
14585.1 11.6750
14585.2 7.78187
14585.3 5.81705
14585.5 5.16918
14586.0 4.97190
14587.1 4.91599
14589.1 4.90015
14593.1 4.89427
14601.1 4.88961
14617.2 4.88252
14649.4 4.86982
14681.6 4.86080
14697.7 4.87214
14701.8 4.89010
14705.8 4.94571
14707.8 5.02553
14709.8 5.25208
14710.8 5.56281
14711.3 5.86286
14711.8 6.39241
14712.3 7.48975
14712.6 8.49915
14712.8 10.2028
14713.1 13.4057
14713.2 16.3117
14713.3 20.4899
14713.5 28.0871
14713.6 40.9262
14713.6 53.5406
14713.7 69.7637
14713.8 94.0363
14713.8 136.550
14713.9 212.259
14714.0 269.797
14714.1 213.011
14714.2 137.465
14714.3 85.6561
14714.3 59.0005
14714.4 43.0663
14714.5 33.0451
14714.7 21.8452
14714.8 16.1457
14715.0 12.7283
14715.2 10.7506
14715.5 8.51351
14715.8 7.31885
14716.1 6.64419
14716.8 5.91515
14717.4 5.55667
14718.1 5.35394
14719.4 5.14428
14722.0 4.98632
14724.6 4.92760
14729.8 4.88245
14735.0 4.86455
14755.8 4.84050
14797.4 4.82164
14880.6 4.79407
14963.8 4.76927
15005.4 4.75764
15026.2 4.75267
15036.6 4.75236
15041.8 4.75905
15044.4 4.78574
15045.7 4.88164
15046.3 5.21741
15046.6 6.27118
15046.8 9.04309
15046.9 14.4230
15046.9 21.4696
15046.9 40.5014
15047.0 59.5983
15047.0 75.5615
15047.0 59.2294
15047.1 40.0617
15047.1 27.3804
15047.1 18.8144
15047.2 12.1419
15047.3 7.71007
15047.5 5.69827
15047.9 5.00735
15048.7 4.80828
15050.3 4.75697
15053.5 4.74469
15059.9 4.74093
15072.8 4.73733
15098.5 4.73053
15124.2 4.72401
15137.1 4.72164
15143.5 4.72284
15146.7 4.73088
15148.4 4.75992
15149.2 4.85970
15149.6 5.18980
15149.8 6.16392
15149.9 8.45893
15149.9 12.2932
15149.9 17.8378
15150.0 27.4614
15150.0 42.3277
15150.0 49.7673
15150.0 42.0368
15150.0 27.0221
15150.1 15.1786
15150.1 10.0253
15150.2 6.75456
15150.4 5.34552
15150.7 4.88794
15151.3 4.75608
15152.5 4.72270
15155.0 4.71514
15160.0 4.71296
15170.0 4.71076
15180.0 4.70928
15185.0 4.71080
15187.5 4.71867
15188.7 4.74662
15189.3 4.84098
15189.6 5.14240
15189.8 6.03630
15189.9 8.09985
15189.9 11.4168
15190.0 21.0075
15190.0 37.0077
15190.0 20.7051
15190.1 10.0316
15190.1 7.47690
15190.2 5.70994
15190.4 5.00239
15190.8 4.78245
15191.5 4.72137
15192.9 4.70650
15195.7 4.70306
15201.3 4.70148
15212.5 4.69889
15235.0 4.69364
15257.5 4.68891
15268.7 4.68772
15274.3 4.68991
15277.2 4.69895
15278.6 4.72830
15279.3 4.82392
15279.6 5.12666
15279.8 6.03484
15279.9 8.21275
15279.9 11.2799
15280.0 23.0390
15280.0 40.8643
15280.0 22.5080
15280.1 13.9262
15280.1 9.85378
15280.2 7.14143
15280.3 5.50713
15280.5 4.90799
15280.9 4.73419
15281.8 4.68988
15283.5 4.68091
15287.0 4.67952
15293.9 4.67878
15307.8 4.67685
15335.5 4.67357
15363.2 4.67316
15390.9 4.67894
15418.7 4.69910
15432.5 4.72107
15446.4 4.75987
15460.2 4.83304
15467.2 4.89493
15474.1 4.98862
15481.0 5.13951
15484.5 5.25252
15488.0 5.40737
15491.4 5.63319
15493.2 5.79057
15494.9 6.00082
15496.6 6.31399
15497.5 6.54915
15498.4 6.89386
15499.2 7.50200
15499.7 8.02419
15500.1 8.88352
15500.5 10.5648
15500.8 12.0912
15501.0 14.4794
15501.2 19.0408
15501.3 22.9207
15501.4 28.2138
15501.5 37.5070
15501.6 53.8465
15501.7 85.2593
15501.8 142.868
15501.9 223.082
15502.0 277.961
15502.1 222.907
15502.2 142.684
15502.2 103.341
15502.3 77.7083
15502.4 58.0522
15502.4 46.7511
15502.6 31.9677
15502.7 24.0227
15502.8 19.3317
15503.0 16.3573
15503.2 12.9750
15503.5 11.2271
15503.7 10.2315
15504.2 9.26609
15504.8 8.88170
15505.3 8.76760
15506.3 8.92067
15507.4 9.36281
15508.4 10.0190
15510.4 12.0875
15512.5 15.8437
15514.6 23.3070
15515.6 30.0430
15516.7 40.6401
15517.7 58.2352
15518.7 87.9691
15519.9 138.632
15521.0 172.258
15522.2 138.550
15523.3 88.4689
15524.1 64.3382
15524.9 48.1450
15525.7 37.2860
15526.4 29.9159
15528.0 20.8045
15529.6 15.7997
15531.2 12.7591
15532.7 10.8074
15535.9 8.52915
15539.0 7.30172
15542.2 6.56901
15548.5 5.77591
15554.8 5.37655
15561.1 5.14748
15567.4 5.00320
15573.6 4.90603
15586.2 4.78612
15598.8 4.71659
15611.4 4.67169
15624.0 4.64041
15649.2 4.60004
15674.3 4.57979
15686.9 4.58099
15699.5 4.60638
15705.8 4.64876
15709.0 4.69150
15712.1 4.76774
15715.3 4.92458
15716.8 5.07374
15718.4 5.33417
15720.0 5.86240
15720.8 6.36065
15721.5 7.20612
15722.3 8.88105
15722.7 10.3830
15723.1 12.8509
15723.5 17.4905
15723.7 21.4338
15723.9 27.1081
15724.1 36.7443
15724.3 52.6292
15724.5 84.4214
15724.6 111.262
15724.7 146.495
15724.8 228.930
15725.0 283.744
15725.2 225.427
15725.3 141.701
15725.5 82.7462
15725.7 52.7862
15725.9 35.8921
15726.1 26.6621
15726.2 20.6098
15726.4 16.8434
15726.8 12.3326
15727.2 9.80504
15727.5 8.33005
15728.2 6.70750
15729.0 5.90267
15729.7 5.44981
15731.2 4.99116
15732.6 4.77952
15734.1 4.67098
15737.0 4.58560
15739.9 4.60623
15741.4 4.67053
15742.9 4.81455
15744.3 5.15500
15745.0 5.50498
15745.8 6.14221
15746.5 7.45620
15746.9 8.71241
15747.2 10.7741
15747.6 14.7304
15747.8 18.0182
15748.0 23.0224
15748.2 31.6778
15748.3 46.1367
15748.5 73.5199
15748.6 96.2954
15748.7 132.527
15748.9 212.194
15749.0 267.016
15749.2 217.568
15749.3 139.266
15749.4 102.774
15749.5 79.5352
15749.7 51.1791
15749.9 35.9220
15750.0 27.0035
15750.2 21.4002
15750.4 17.6681
15750.8 13.1746
15751.1 10.6777
15751.5 9.14655
15752.2 7.43789
15752.9 6.55018
15753.6 6.02674
15755.1 5.45969
15756.5 5.16918
15758.0 5.00003
15760.8 4.81548
15763.7 4.71923
15766.6 4.66144
15772.4 4.59559
15783.9 4.53515
15795.5 4.50458
15818.5 4.46792
15841.6 4.44107
15887.8 4.39240
15910.9 4.36659
15922.4 4.35237
15928.2 4.34577
15931.1 4.35177
15932.5 4.40268
15933.2 4.62321
15933.6 5.40419
15933.8 7.63844
15933.9 12.3394
15933.9 20.1575
15933.9 37.8684
15934.0 56.8357
15934.0 72.4621
15934.0 57.6228
15934.1 38.8130
15934.1 20.9621
15934.2 12.9574
15934.3 7.78605
15934.4 5.54116
15934.8 4.71976
15935.6 4.45688
15937.1 4.37630
15940.2 4.34795
15946.3 4.33176
15958.6 4.31219
15983.2 4.27422
16007.8 4.22966
16032.4 4.17282
16056.9 4.09223
16069.2 4.03471
16081.5 3.95498
16093.8 3.83192
16099.9 3.73895
16106.1 3.60544
16109.1 3.51310
16112.2 3.39391
16115.3 3.23306
16118.4 3.00347
16121.4 2.64878
16123.0 2.38730
16124.5 2.03365
16126.0 1.52981
16127.6 0.822588
16128.3 0.442264
16129.1 0.432989
16129.5 1.13475
16129.7 2.00059
16129.9 3.59866
16130.1 6.59582
16130.2 9.16935
16130.3 12.4369
16130.4 17.6442
16130.4 24.4405
16130.5 35.5236
16130.6 51.8395
16130.8 99.6560
16131.0 147.185
16131.1 150.081
16131.2 137.915
16131.4 99.5851
16131.5 76.0745
16131.6 59.3455
16131.8 47.8061
16131.9 40.1729
16132.2 29.6502
16132.5 23.6816
16132.7 19.7019
16133.0 17.0697
16133.6 13.6700
16134.1 11.6410
16134.7 10.3068
16135.2 9.36826
16135.8 8.68560
16136.9 7.72844
16138.0 7.10457
16139.1 6.66678
16140.1 6.34557
16142.3 5.89812
16144.5 5.60538
16146.7 5.39717
16148.9 5.24251
16153.3 5.02592
16157.7 4.88103
16166.5 4.69698
16175.3 4.58230
16184.0 4.50170
16201.6 4.39056
16219.2 4.31167
16236.7 4.24907
16254.3 4.20697
16258.7 4.21114
16263.0 4.25121
16265.2 4.32127
16267.4 4.53226
16268.5 4.82823
16269.1 5.11992
16269.6 5.62782
16270.2 6.67614
16270.5 7.68356
16270.7 9.33464
16271.0 12.5962
16271.1 15.4789
16271.3 19.6586
16271.4 27.2344
16271.5 40.1650
16271.6 51.7436
16271.7 69.1597
16271.8 96.1160
16271.8 134.276
16271.9 214.963
16272.0 265.317
16272.1 215.827
16272.2 135.376
16272.3 97.1687
16272.3 73.2865
16272.4 54.6732
16272.4 43.8151
16272.6 29.3829
16272.7 21.4819
16272.8 16.7466
16273.0 13.7032
16273.2 10.2712
16273.5 8.34567
16273.7 7.20390
16274.2 5.99087
16274.8 5.37021
16275.3 5.02180
16276.3 4.65249
16278.4 4.36868
16280.4 4.25958
16284.5 4.16965
16288.7 4.12825
16296.9 4.08077
16305.1 4.04642
16338.1 3.92618
16354.6 3.86287
16371.1 3.79388
16404.0 3.62946
16437.0 3.40430
16453.4 3.25039
16469.9 3.04661
16486.4 2.75205
16494.6 2.54314
16502.9 2.26066
16507.0 2.07675
16511.1 1.85069
16515.2 1.56600
16519.4 1.19902
16523.5 0.724380
16527.6 0.195060
16529.7 0.106192
16530.7 0.278765
16531.7 0.842686
16532.2 1.42089
16532.7 2.33067
16533.3 3.82902
16533.8 6.24375
16534.3 10.4103
16534.8 17.5800
16535.3 30.5925
16535.8 54.6298
16536.4 103.366
16537.0 150.897
16537.3 152.807
16537.6 139.654
16538.2 100.045
16538.7 71.5674
16539.3 53.5356
16539.8 41.8721
16540.4 34.0406
16541.4 24.5025
16542.5 19.2067
16543.6 15.8729
16544.7 13.6486
16546.9 10.8658
16549.0 9.22354
16551.2 8.14790
16555.5 6.83266
16559.9 6.05829
16562.0 5.78271
16564.2 5.56219
16566.4 5.39532
16568.5 5.32314
16569.6 5.38803
16570.7 5.71232
16571.3 6.20815
16571.8 7.56851
16572.1 9.29418
16572.2 10.9393
16572.3 13.4448
16572.5 18.3218
16572.6 27.5935
16572.7 36.8907
16572.7 52.6485
16572.8 81.2311
16572.9 124.884
16572.9 203.332
16573.0 246.155
16573.1 192.217
16573.1 125.836
16573.2 82.1106
16573.3 56.4973
16573.3 41.1941
16573.4 31.5913
16573.5 20.8951
16573.6 15.8119
16573.7 12.5793
16573.8 10.7156
16574.1 8.47438
16574.3 7.29417
16574.5 6.59502
16575.0 5.83640
16575.9 5.21771
16576.8 4.95672
16578.7 4.70713
16580.5 4.56580
16584.2 4.37310
16587.9 4.22473
16595.2 3.98231
16602.6 3.77776
16617.3 3.41860
16632.0 3.07821
16646.8 2.72078
16661.5 2.31881
16668.9 2.09191
16676.2 1.84343
16683.6 1.57202
16687.3 1.44119
16689.1 1.43888
16690.0 1.69081
16690.5 2.69762
16690.6 3.67160
16690.7 5.78799
16690.8 8.33291
16690.8 13.6830
16690.9 27.5165
16690.9 43.3503
16690.9 65.4688
16691.0 101.489
16691.0 130.813
16691.0 101.955
16691.1 66.0257
16691.1 43.8705
16691.1 27.9602
16691.2 14.0011
16691.3 6.29799
16691.4 3.91859
16691.5 2.89354
16691.9 1.70892
16692.8 1.31961
16694.6 1.14224
16698.2 0.951299
16705.3 0.602858
16712.4 0.271290
16715.9 0.133829
16719.5 0.0439477
16723.1 0.0439821
16724.8 0.100400
16726.6 0.212693
16728.4 0.403531
16730.2 0.702896
16731.9 1.15459
16733.7 1.81819
16735.5 2.79621
16737.3 4.23068
16739.1 6.34725
16740.8 9.48298
16742.6 14.2512
16744.4 21.5922
16745.3 26.6913
16746.2 33.1301
16746.6 37.0702
16747.1 41.6434
16747.3 44.4733
16747.5 48.3564
16747.6 51.4245
16747.7 56.8652
16747.8 62.4887
16747.8 70.8174
16747.9 91.9370
16747.9 112.831
16747.9 133.643
16748.0 191.919
16748.0 218.555
16748.0 206.411
16748.0 178.261
16748.1 136.245
16748.1 107.976
16748.1 95.6613
16748.2 78.0127
16748.3 66.1501
16748.4 62.2084
16748.5 61.2527
16748.6 61.8883
16748.8 63.7095
16749.2 68.7243
16749.6 74.5555
16751.0 102.194
16754.0 153.119
16755.5 157.621
16757.0 146.077
16760.0 107.447
16762.6 80.5300
16765.1 62.1843
16767.7 49.8394
16770.2 41.3031
16775.4 30.6657
16780.5 24.5267
16785.6 20.6105
16790.7 17.9351
16793.3 16.8987
16795.8 16.0118
16798.4 15.2677
16799.7 15.0434
16800.3 15.3584
16800.6 16.9227
16800.7 18.3283
16800.8 21.5417
16800.9 31.2707
16800.9 44.8761
16800.9 73.6804
16801.0 104.358
16801.0 133.561
16801.0 105.005
16801.1 74.4259
16801.1 51.1842
16801.1 40.9404
16801.2 27.9607
16801.2 20.1838
16801.4 16.4048
16801.8 14.9563
16802.5 14.3647
16803.9 13.9221
16806.8 13.3073
16809.7 12.7887
16812.6 12.3319
16818.4 11.5585
16824.1 10.9301
16835.6 9.96836
16847.2 9.26909
16870.2 8.32018
16893.3 7.70670
16916.3 7.27691
16939.4 6.95873
16985.5 6.51719
17031.6 6.22291
17077.7 6.01029
17100.7 5.92375
17123.8 5.84698
17146.8 5.77937
17158.4 5.75646
17164.1 5.78346
17167.0 5.95037
17167.7 6.12557
17168.5 6.60650
17168.8 7.23701
17169.2 8.84937
17169.4 10.7990
17169.5 15.2512
17169.6 19.9515
17169.7 28.9351
17169.8 37.8047
17169.8 48.6829
17169.9 70.4661
17169.9 98.3136
17170.0 159.137
17170.0 190.909
17170.1 148.959
17170.1 98.9790
17170.2 60.9523
17170.2 40.6521
17170.3 29.3770
17170.4 22.6633
17170.5 15.5456
17170.6 12.3109
17170.8 9.17951
17171.0 7.84581
17171.5 6.75761
17172.0 6.33297
17172.9 6.00470
17173.8 5.88060
17177.5 5.74576
17184.9 5.69213
17199.6 5.64592
17229.1 5.57430
17288.0 5.44221
17317.5 5.37169
17346.9 5.28464
17361.7 5.22372
17369.0 5.18291
17376.4 5.12857
17383.8 5.04740
17387.5 4.98717
17391.1 4.90119
17394.8 4.76452
17396.7 4.65967
17398.5 4.50769
17400.3 4.26596
17402.2 3.81930
17403.1 3.41661
17404.0 2.72994
17404.5 2.18519
17404.9 1.45554
17405.4 1.24507
17405.5 2.11971
17405.6 4.58117
17405.7 7.55159
17405.8 13.0315
17405.8 23.4616
17405.9 40.0340
17405.9 78.0996
17406.0 119.531
17406.0 122.639
17406.1 114.199
17406.1 84.7734
17406.2 69.1749
17406.2 55.2583
17406.3 39.4612
17406.4 29.6767
17406.5 24.3507
17406.6 20.4671
17406.7 18.0400
17406.9 14.8649
17407.1 12.8198
17407.3 11.4705
17407.6 9.84737
17408.0 8.86594
17408.4 8.24016
17409.1 7.46840
17409.9 7.00717
17410.6 6.70420
17412.1 6.33223
17413.6 6.10942
17415.1 5.96221
17418.1 5.77712
17421.1 5.66385
17424.1 5.58667
17430.0 5.48508
17436.0 5.41828
17442.0 5.36861
17453.9 5.29342
17477.8 5.17491
17501.7 5.05220
17525.6 4.88588
17537.5 4.76577
17549.5 4.59627
17555.4 4.48010
17561.4 4.33038
17567.4 4.12861
17573.4 3.84050
17576.3 3.64394
17579.3 3.39427
17582.3 3.06452
17585.3 2.61449
17586.8 2.32075
17588.3 1.96786
17589.8 1.53916
17591.3 1.02622
17592.8 0.467462
17593.5 0.248630
17594.3 0.222370
17595.0 0.766732
17595.4 1.54568
17595.7 3.04062
17595.9 4.27337
17596.1 5.99504
17596.3 8.41644
17596.5 11.6404
17596.7 16.4759
17596.9 23.0359
17597.1 33.0118
17597.2 46.5304
17597.6 93.4388
17598.0 141.378
17598.2 145.971
17598.4 135.537
17598.8 100.671
17599.1 73.3210
17599.5 55.9286
17599.9 44.5677
17600.2 36.8756
17600.9 27.4718
17601.7 22.1213
17602.4 18.7442
17603.1 16.4473
17604.5 13.5576
17606.0 11.8332
17607.4 10.6960
17608.9 9.89277
17610.3 9.29670
17613.2 8.47309
17616.1 7.93217
17618.9 7.55034
17621.8 7.26680
17627.6 6.87505
17633.4 6.62526
17636.2 6.54161
17639.1 6.50353
17640.6 6.53150
17642.0 6.68102
17642.7 6.91401
17643.4 7.56753
17643.8 8.42027
17644.2 10.5616
17644.3 13.0881
17644.5 18.6647
17644.6 24.3292
17644.7 34.6777
17644.7 44.4192
17644.8 55.8707
17644.8 77.6033
17644.9 107.895
17644.9 171.364
17645.0 209.395
17645.1 171.649
17645.1 108.259
17645.2 68.0041
17645.3 44.6979
17645.3 31.9857
17645.4 25.3806
17645.5 17.4965
17645.7 13.6096
17645.9 10.0875
17646.2 8.59536
17646.7 7.38044
17647.2 6.90435
17648.3 6.52664
17649.3 6.37712
17651.4 6.24379
17653.5 6.17538
17661.8 6.02952
17670.2 5.93724
17678.5 5.86668
17695.2 5.76252
17703.6 5.72362
17707.8 5.71170
17709.9 5.72815
17710.9 5.81987
17711.4 6.15787
17711.7 7.21330
17711.8 9.82867
17711.9 15.0627
17711.9 20.4747
17711.9 34.1872
17712.0 62.7448
17712.1 34.2443
17712.1 20.5713
17712.1 15.1442
17712.2 10.3241
17712.3 7.34566
17712.6 6.20854
17713.1 5.83270
17714.1 5.71987
17716.1 5.68291
17720.1 5.66067
17728.2 5.63240
17744.3 5.58727
17760.4 5.55031
17776.5 5.51907
17808.7 5.46850
17840.9 5.42883
17873.1 5.39670
17905.3 5.37120
17921.4 5.36224
17937.5 5.36113
17945.5 5.37079
17953.6 5.40957
17957.6 5.46893
17961.6 5.64044
17963.7 5.87753
17964.7 6.11041
17965.7 6.52047
17966.7 7.36513
17967.2 8.15328
17967.7 9.49504
17968.2 12.1251
17968.4 14.4069
17968.7 18.0269
17968.9 24.2348
17969.2 36.0533
17969.3 46.7620
17969.4 61.8849
17969.6 87.9281
17969.7 126.722
17969.9 202.065
17970.0 248.703
17970.2 202.477
17970.3 127.249
17970.4 88.4290
17970.6 63.9187
17970.7 48.1955
17970.8 37.7838
17971.0 25.5558
17971.3 19.0409
17971.5 15.2044
17971.8 12.7683
17972.2 9.97686
17972.7 8.50343
17973.2 7.63349
17974.2 6.70115
17975.1 6.23477
17976.1 5.97305
17978.0 5.70113
17979.9 5.56896
17981.9 5.49513
17985.7 5.41843
17993.4 5.35897
18001.1 5.33491
18016.5 5.31521
18024.2 5.32295
18028.1 5.37930
18030.0 5.60188
18030.5 5.81895
18030.9 6.38777
18031.2 7.09912
18031.4 8.80821
18031.5 10.7284
18031.7 14.7050
18031.7 18.4646
18031.8 24.7913
18031.8 36.2128
18031.9 57.6923
18032.0 92.1731
18032.0 110.151
18032.1 86.1327
18032.1 57.7532
18032.2 41.9935
18032.2 31.6447
18032.3 20.2438
18032.4 14.7397
18032.4 12.0419
18032.6 9.07240
18032.7 7.69687
18033.0 6.48483
18033.3 6.01314
18033.9 5.63478
18034.6 5.49224
18037.0 5.34562
18041.9 5.30362
18051.6 5.28747
18071.1 5.27407
18110.0 5.25486
18148.9 5.23923
18168.4 5.23617
18178.1 5.25327
18183.0 5.33797
18184.2 5.42687
18185.4 5.67177
18186.0 6.00153
18186.7 6.87486
18187.0 8.00539
18187.3 10.6680
18187.4 13.6663
18187.6 19.8962
18187.6 26.3234
18187.7 35.8358
18187.8 55.8640
18187.8 72.5830
18187.9 95.6064
18187.9 145.719
18188.0 185.788
18188.1 146.119
18188.1 95.4035
18188.2 68.2869
18188.2 52.9660
18188.3 40.0325
18188.3 32.9332
18188.4 22.9785
18188.5 17.9528
18188.7 12.4175
18188.8 9.82663
18189.2 7.56886
18189.5 6.64285
18190.2 5.90101
18190.9 5.62353
18192.2 5.41115
18193.6 5.33265
18199.1 5.25138
18210.0 5.22597
18221.0 5.21873
18226.5 5.21951
18229.2 5.23183
18230.6 5.28228
18231.3 5.46416
18231.6 6.05785
18231.8 7.67951
18231.9 11.3632
18231.9 16.0289
18231.9 31.1467
18232.0 57.0328
18232.1 31.0878
18232.1 15.9811
18232.1 11.3251
18232.2 7.87032
18232.4 6.08530
18232.7 5.46921
18233.4 5.27975
18234.7 5.22810
18237.4 5.21398
18242.8 5.20887
18253.5 5.20527
18264.2 5.20838
18269.6 5.23659
18272.2 5.35675
18273.6 5.81402
18273.9 6.26451
18274.2 7.39210
18274.4 8.81451
18274.6 11.8703
18274.7 15.5747
18274.7 22.0242
18274.8 36.0405
18274.9 49.4009
18274.9 70.6325
18275.0 109.871
18275.0 136.075
18275.1 110.135
18275.1 70.9641
18275.2 45.7588
18275.2 33.8343
18275.3 20.1725
18275.4 14.2311
18275.5 11.4552
18275.6 8.58332
18275.8 7.31201
18276.1 6.24758
18276.5 5.82462
18277.8 5.37036
18280.6 5.24312
18286.1 5.20702
18297.0 5.19433
18318.9 5.18662
18340.9 5.19271
18346.3 5.20681
18351.8 5.25345
18354.6 5.32261
18357.3 5.52333
18358.7 5.80077
18359.4 6.07586
18360.0 6.55862
18360.7 7.55739
18361.1 8.48282
18361.4 10.0491
18361.7 13.0025
18361.9 15.5609
18362.1 19.5531
18362.3 26.2333
18362.4 38.4726
18362.5 49.3535
18362.6 63.5772
18362.7 87.7696
18362.8 120.158
18362.9 189.813
18363.0 236.772
18363.1 190.993
18363.2 121.634
18363.4 74.3712
18363.5 50.5211
18363.6 35.8191
18363.7 27.6252
18363.9 21.9126
18364.0 18.3535
18364.2 13.9369
18364.5 11.3359
18364.7 9.74436
18365.2 8.00567
18365.7 7.09186
18366.2 6.57117
18367.2 6.01607
18368.2 5.73888
18369.2 5.58296
18371.1 5.41946
18375.1 5.29446
18379.0 5.24703
18386.9 5.20969
18394.8 5.19467
18410.5 5.18221
18426.3 5.17862
18442.1 5.18291
18457.8 5.20788
18465.7 5.24768
18469.6 5.28860
18473.6 5.36386
18477.5 5.52343
18479.5 5.67932
18481.5 5.95569
18482.4 6.18286
18483.4 6.51553
18484.4 7.04242
18485.4 7.92563
18486.4 9.61308
18486.9 11.0662
18487.4 13.3382
18487.9 17.2558
18488.4 24.3851
18488.6 30.5011
18488.8 39.2162
18489.1 53.0741
18489.3 73.3888
18489.7 115.153
18490.0 142.032
18490.3 114.137
18490.7 73.7579
18490.9 55.5420
18491.1 43.3419
18491.5 28.5603
18491.9 20.5404
18492.3 16.0370
18492.7 13.1713
18493.1 11.3305
18493.9 9.11220
18494.7 7.90133
18495.5 7.17064
18497.2 6.37189
18498.8 5.96810
18500.4 5.73597
18503.6 5.49320
18506.9 5.37434
18510.1 5.30730
18516.6 5.23785
18529.5 5.18419
18542.5 5.16278
18568.4 5.14344
18594.2 5.13309
18646.0 5.11936
18697.8 5.10872
18801.4 5.09081
18853.2 5.08277
18879.1 5.07905
18892.0 5.07833
18898.5 5.08348
18901.7 5.10996
18903.3 5.21953
18904.1 5.63842
18904.5 7.05808
18904.7 11.1306
18904.8 19.9374
18904.9 32.8559
18904.9 48.8960
18904.9 67.0430
18905.0 103.774
18905.0 129.253
18905.0 104.054
18905.1 67.2852
18905.1 42.7809
18905.1 26.5645
18905.2 15.1889
18905.3 8.79403
18905.6 6.19647
18906.2 5.39441
18907.4 5.16279
18909.6 5.09951
18914.2 5.08153
18923.4 5.07531
18941.8 5.07126
18978.5 5.06584
19015.2 5.06153
19033.5 5.06302
19042.7 5.08041
19047.3 5.15860
19049.6 5.46568
19050.2 5.77377
19050.7 6.57715
19051.0 7.61305
19051.3 10.0272
19051.5 12.9865
19051.6 18.8326
19051.7 24.3722
19051.7 33.7233
19051.8 50.7091
19051.9 85.6335
19051.9 136.849
19052.0 167.130
19052.1 137.261
19052.1 86.1644
19052.2 54.6414
19052.3 35.9695
19052.3 25.7689
19052.4 20.4637
19052.5 13.8069
19052.7 10.8274
19052.9 8.03495
19053.2 6.87081
19053.7 5.93627
19054.3 5.57692
19055.4 5.30282
19056.4 5.20178
19060.7 5.09705
19069.3 5.06716
19086.5 5.05685
19120.9 5.05066
19155.4 5.04943
19172.6 5.06309
19176.9 5.07958
19181.2 5.12801
19183.3 5.19560
19185.5 5.38327
19186.5 5.63549
19187.6 6.29273
19188.1 7.12443
19188.4 7.88371
19188.7 9.13673
19189.0 11.4134
19189.1 13.3980
19189.2 16.1653
19189.4 20.9084
19189.5 28.3717
19189.6 41.6793
19189.8 67.9409
19189.9 106.598
19190.0 131.430
19190.1 106.895
19190.2 68.3161
19190.4 43.4297
19190.5 30.2361
19190.6 22.0700
19190.7 17.5094
19190.9 14.3270
19191.0 12.3438
19191.2 9.80890
19191.5 8.39155
19191.7 7.52266
19192.2 6.57244
19193.2 5.78892
19194.2 5.48474
19196.2 5.25135
19198.2 5.16443
19202.1 5.09924
19206.1 5.07545
19214.0 5.06227
19218.0 5.08372
19220.0 5.18933
19220.9 5.59848
19221.4 7.04986
19221.6 8.43213
19221.7 11.4559
19221.8 20.9975
19221.9 35.3206
19221.9 49.6748
19221.9 75.7367
19222.0 123.630
19222.0 146.935
19222.0 124.006
19222.1 76.2460
19222.1 44.5062
19222.2 26.9392
19222.3 14.9518
19222.4 10.3049
19222.4 8.43523
19222.8 6.08376
19223.6 5.33911
19225.1 5.12837
19228.1 5.06922
19234.0 5.05070
19246.0 5.04268
19269.9 5.03690
19317.8 5.03035
19413.5 5.02039
19509.2 5.01167
19557.0 5.00786
19581.0 5.00741
19592.9 5.01326
19598.9 5.04086
19601.9 5.15053
19603.4 5.55911
19603.8 5.95630
19604.1 6.94408
19604.3 8.17336
19604.5 10.8042
19604.6 13.9131
19604.7 19.3179
19604.8 30.9220
19604.8 43.4785
19604.9 63.4454
19604.9 95.6557
19605.0 121.524
19605.1 95.7839
19605.1 63.0821
19605.2 47.0246
19605.2 35.3176
19605.3 22.2950
19605.4 15.9597
19605.4 12.5061
19605.6 9.11983
19605.7 7.65874
19606.1 6.34234
19606.4 5.80811
19607.6 5.22783
19610.1 5.06374
19615.0 5.01916
19625.0 5.00657
19644.8 5.00179
19684.5 4.99780
19724.2 4.99468
19744.1 4.99341
19754.0 4.99352
19759.0 4.99641
19761.5 5.00899
19762.7 5.05770
19763.3 5.23559
19763.6 5.82617
19763.8 7.58881
19763.9 11.5345
19763.9 17.4444
19764.0 27.4188
19764.0 49.8565
19764.0 27.4293
19764.1 15.4481
19764.1 10.6963
19764.2 7.16417
19764.4 5.67244
19764.8 5.18270
19765.5 5.04238
19766.9 5.00481
19769.8 4.99481
19775.5 4.99195
19787.0 4.99068
19809.9 4.98998
19832.9 4.99507
19844.4 5.02242
19847.2 5.05153
19850.1 5.13408
19851.5 5.24790
19853.0 5.55811
19853.7 5.97191
19854.4 7.03301
19854.8 8.36672
19855.1 11.5564
19855.3 15.1190
19855.5 22.4376
19855.6 29.2941
19855.7 40.7158
19855.7 61.0306
19855.8 97.9177
19855.9 150.766
19856.0 191.414
19856.1 150.956
19856.2 98.1487
19856.3 64.3698
19856.3 46.3773
19856.4 35.0418
19856.5 27.6246
19856.6 19.0051
19856.7 14.4543
19857.0 10.1016
19857.3 8.17462
19857.9 6.56303
19858.4 5.92408
19859.6 5.42593
19860.7 5.24190
19862.9 5.10361
19865.2 5.05341
19874.2 5.00241
19892.1 4.98777
19928.1 4.98171
20000.0 4.97605
20143.0 4.96745
20214.5 4.96396
20250.2 4.96280
20268.1 4.96314
20277.0 4.96572
20281.5 4.97469
20283.7 5.00566
20284.8 5.11566
20285.4 5.49707
20285.7 6.70520
20285.8 9.85357
20285.9 15.7534
20285.9 33.2767
20286.0 61.2567
20286.1 32.9407
20286.1 18.9859
20286.1 13.0889
20286.2 8.24722
20286.4 6.01889
20286.8 5.26149
20287.5 5.03638
20288.9 4.97732
20291.7 4.96344
20297.3 4.96075
20308.5 4.96103
20319.7 4.96477
20325.3 4.97815
20328.1 5.02570
20329.5 5.19525
20330.2 5.77471
20330.6 7.54440
20330.8 12.1601
20330.8 20.7629
20330.9 29.8297
20330.9 52.8742
20331.0 77.7215
20331.0 93.7852
20331.0 100.779
20331.0 93.5804
20331.0 77.3864
20331.1 52.4833
20331.1 29.4878
20331.2 20.4739
20331.2 12.5075
20331.4 7.66127
20331.8 5.76621
20332.4 5.17594
20333.8 5.01111
20336.4 4.96930
20341.8 4.95964
20352.5 4.95765
20374.0 4.95733
20416.9 4.95858
20459.8 4.96871
20470.5 4.97862
20481.3 5.00479
20486.6 5.03904
20492.0 5.13030
20494.7 5.25052
20497.4 5.57126
20498.7 5.98892
20499.4 6.38525
20500.0 7.07108
20500.7 8.41849
20501.0 9.66635
20501.4 11.6611
20501.7 15.4035
20501.9 18.5603
20502.0 23.0133
20502.2 30.5326
20502.4 43.5416
20502.6 67.9864
20502.7 114.048
20502.9 180.260
20503.0 221.492
20503.1 179.212
20503.3 112.722
20503.4 75.3510
20503.5 53.3456
20503.7 38.7870
20503.8 30.2525
20504.0 20.1519
20504.3 15.1471
20504.5 12.1343
20504.8 10.2666
20505.3 8.20743
20505.8 7.12060
20506.3 6.50234
20507.2 5.84372
20508.2 5.52422
20509.2 5.34627
20511.2 5.16647
20515.2 5.03745
20519.1 4.99325
20527.0 4.96464
20531.0 4.97235
20533.0 5.03967
20534.0 5.32896
20534.4 6.36408
20534.7 9.60461
20534.8 16.7832
20534.9 27.8741
20534.9 39.3514
20534.9 65.8246
20535.0 104.687
20535.0 127.855
20535.0 105.589
20535.1 66.9868
20535.1 40.3997
20535.1 26.0876
20535.2 15.4241
20535.4 9.01620
20535.6 6.24921
20536.2 5.34871
20537.4 5.07485
20539.6 4.99283
20544.2 4.96663
20553.4 4.95705
20571.7 4.95420
20608.3 4.95971
20626.6 4.96850
20644.9 4.99073
20654.1 5.01884
20663.2 5.09309
20667.8 5.19183
20670.1 5.28816
20672.4 5.46052
20674.7 5.81786
20675.8 6.16395
20677.0 6.76560
20677.6 7.26212
20678.1 7.98000
20678.7 9.09316
20679.3 10.9517
20679.8 14.3920
20680.1 17.3823
20680.4 21.8092
20680.7 29.3144
20681.0 42.1462
20681.3 68.1327
20681.4 89.6785
20681.6 123.184
20681.8 194.407
20682.0 241.710
20682.2 194.673
20682.4 123.521
20682.7 75.2325
20682.9 50.1468
20683.2 35.4543
20683.4 27.0255
20683.6 21.4107
20683.9 17.7977
20684.3 13.3802
20684.8 10.8573
20685.2 9.34579
20686.2 7.64984
20687.1 6.78367
20688.0 6.28346
20689.9 5.75923
20691.8 5.50585
20693.6 5.36577
20697.3 5.22825
20701.1 5.17121
20704.8 5.14970
20712.2 5.16544
20719.7 5.26028
20723.4 5.36287
20727.1 5.54815
20730.8 5.92587
20732.7 6.28068
20734.5 6.88592
20736.4 8.04725
20737.3 9.07625
20738.3 10.7253
20739.2 13.6015
20740.1 19.2410
20740.6 24.3408
20741.1 32.2464
20741.5 45.6690
20742.0 67.8551
20742.5 104.993
20743.0 129.290
20743.5 103.999
20744.0 66.6159
20744.4 48.8060
20744.7 37.1244
20745.1 29.0117
20745.4 23.5855
20746.1 16.8372
20746.8 13.1450
20747.5 10.8791
20748.2 9.41983
20749.5 7.73687
20750.9 6.83307
20752.3 6.30168
20755.0 5.73032
20757.8 5.44876
20760.5 5.29046
20766.0 5.12919
20771.5 5.05352
20777.0 5.01240
20788.0 4.97195
20810.0 4.94404
20832.0 4.93496
20876.0 4.92972
20898.0 4.92957
20909.0 4.93061
20914.5 4.93410
20917.2 4.94684
20918.6 4.99426
20919.3 5.16966
20919.6 5.75610
20919.8 7.44740
20919.9 11.6379
20919.9 17.4946
20920.0 37.2006
20920.0 58.4303
20920.0 69.3272
20920.0 58.3765
20920.0 37.0562
20920.1 19.9858
20920.1 12.6147
20920.2 7.91975
20920.4 5.87942
20920.7 5.20461
20921.3 5.00290
20922.5 4.94801
20925.0 4.93417
20930.0 4.93103
20940.0 4.93092
20960.0 4.93275
21000.0 4.94089
21019.9 4.94913
21039.9 4.96431
21059.9 5.00153
21069.9 5.06099
21074.9 5.18235
21076.1 5.28059
21077.4 5.52776
21078.0 5.84508
21078.6 6.64534
21078.9 7.63147
21079.2 9.98137
21079.4 12.7289
21079.6 18.0528
21079.6 23.4148
21079.7 32.6363
21079.8 49.7562
21079.9 77.4201
21079.9 120.415
21080.0 148.745
21080.1 119.614
21080.1 76.4204
21080.2 46.0497
21080.3 31.8586
21080.4 23.6339
21080.4 18.5757
21080.6 12.7855
21080.7 10.1530
21081.0 7.68359
21081.3 6.68096
21081.9 5.85183
21082.4 5.55003
21084.7 5.28386
21087.0 5.30546
21089.3 5.42093
21091.6 5.67606
21092.8 5.91567
21093.9 6.32308
21095.1 7.10756
21095.7 7.81845
21096.2 8.95892
21096.8 11.0555
21097.1 12.8121
21097.4 15.3599
21097.7 19.5719
21098.0 26.5427
21098.2 40.0339
21098.4 50.7587
21098.5 66.4724
21098.8 101.440
21099.0 124.287
21099.2 98.3780
21099.5 62.6777
21099.7 43.7189
21099.8 32.1123
21100.0 24.3349
21100.2 19.5117
21100.6 13.7380
21101.0 10.7188
21101.3 8.97147
21101.7 7.88033
21102.4 6.65835
21103.2 6.03397
21103.9 5.67720
21105.4 5.31243
21106.9 5.14389
21108.4 5.05527
21111.3 4.97421
21117.2 4.93011
21123.1 4.92548
21135.0 4.94123
21146.8 4.97201
21158.6 5.02720
21164.5 5.07567
21170.5 5.15625
21176.4 5.31248
21179.3 5.45647
21182.3 5.70102
21183.8 5.89626
21185.2 6.18041
21186.7 6.61927
21188.2 7.34733
21189.7 8.72003
21190.4 9.91273
21191.2 11.7902
21191.9 14.9883
21192.6 21.0471
21193.0 26.2697
21193.4 34.2633
21193.7 46.9460
21194.1 66.5323
21194.6 102.317
21195.0 125.176
21195.5 99.9326
21195.9 63.5567
21196.3 42.8886
21196.7 30.4896
21197.1 22.9409
21197.5 18.2445
21198.2 12.8506
21199.0 10.0913
21199.8 8.49948
21200.5 7.52909
21202.1 6.44886
21203.6 5.89676
21205.2 5.58443
21208.3 5.26468
21211.4 5.11767
21214.4 5.04123
21220.6 4.97427
21226.8 4.95351
21233.0 4.95217
21245.3 4.98055
21257.7 5.04864
21263.9 5.10647
21270.0 5.19282
21276.2 5.33124
21279.3 5.43576
21282.4 5.58291
21285.5 5.81209
21287.0 5.98794
21288.6 6.24626
21290.1 6.68933
21290.9 7.06106
21291.7 7.65896
21292.4 8.76697
21292.8 9.76197
21293.2 11.3436
21293.6 14.3096
21293.8 16.7659
21294.0 20.5269
21294.2 27.1257
21294.4 38.5755
21294.5 48.5671
21294.5 61.6862
21294.6 83.5342
21294.7 113.683
21294.9 177.911
21295.0 215.533
21295.1 173.209
21295.3 107.729
21295.4 63.9654
21295.6 40.7244
21295.7 28.5811
21295.9 22.0150
21296.1 17.6695
21296.2 14.8586
21296.5 11.6795
21296.8 9.94425
21297.2 8.97319
21297.8 7.98812
21298.4 7.57049
21299.0 7.41011
21300.3 7.43650
21301.5 7.70159
21302.8 8.12730
21305.3 9.50833
21307.8 12.0583
21310.3 17.2230
21311.6 21.9630
21312.8 29.5579
21314.1 42.4406
21315.3 64.7806
21316.7 101.992
21318.0 127.847
21319.3 104.495
21320.7 67.9273
21321.9 45.7983
21323.1 32.7236
21324.3 24.7354
21325.5 19.7091
21328.0 14.0138
21330.4 11.0889
21332.8 9.40362
21335.3 8.34907
21340.1 7.16229
21345.0 6.55281
21349.8 6.21383
21359.5 5.93461
21369.3 6.00517
21374.1 6.20843
21379.0 6.63272
21383.8 7.55473
21386.3 8.43662
21388.7 9.94354
21391.1 12.8101
21392.3 15.3255
21393.6 19.2501
21394.8 25.9549
21396.0 38.3743
21396.6 48.9734
21397.2 64.5949
21397.8 89.1151
21398.4 126.464
21399.2 199.157
21400.0 247.443
21400.8 198.654
21401.6 125.845
21402.3 84.6595
21403.0 59.8212
21403.6 44.3800
21404.3 34.3991
21405.6 22.9601
21407.0 17.0086
21408.3 13.5580
21409.7 11.3907
21412.3 8.93278
21415.0 7.64744
21417.7 6.89230
21423.1 6.08430
21428.4 5.68042
21433.8 5.44805
21444.5 5.19802
21455.2 5.06844
21466.0 5.00482
21471.3 5.02002
21474.0 5.06471
21476.7 5.17492
21479.4 5.45710
21480.7 5.76040
21482.0 6.32745
21483.4 7.52231
21484.1 8.65814
21484.7 10.5849
21485.4 14.1813
21485.7 17.2937
21486.1 21.8922
21486.4 29.5253
21486.7 42.2737
21487.1 66.6861
21487.4 113.145
21487.7 181.718
21488.0 231.115
21488.3 189.503
21488.6 122.858
21488.9 74.5064
21489.3 48.6822
21489.6 34.6543
21490.0 26.5897
21490.3 21.3177
21490.7 17.8803
21491.4 13.6292
21492.1 11.2140
21492.8 9.74418
21494.1 8.08169
21495.5 7.19816
21496.9 6.67361
21498.3 6.32916
21499.7 6.09192
21502.4 5.78773
21505.2 5.60474
21510.7 5.39897
21516.3 5.28713
21521.8 5.21727
21532.9 5.13419
21544.0 5.08597
21555.0 5.05406
21577.2 5.01376
21599.3 4.98887
21621.5 4.97169
21665.7 4.94901
21710.0 4.93416
21754.3 4.92304
21798.6 4.91311
21820.7 4.90758
21831.8 4.90850
21837.3 4.93864
21840.1 5.09586
21841.5 5.73119
21841.8 6.35674
21842.2 7.88985
21842.4 9.82906
21842.5 13.9074
21842.6 18.3112
21842.7 25.3145
21842.8 41.0301
21842.8 53.2320
21842.9 70.6786
21842.9 114.188
21843.0 138.338
21843.1 109.136
21843.1 72.5687
21843.2 51.5461
21843.2 40.2699
21843.3 25.5397
21843.4 18.2132
21843.5 14.5058
21843.7 10.4061
21843.8 8.47444
21844.2 6.77496
21844.5 6.06804
21845.2 5.49095
21845.9 5.26918
21848.6 5.02589
21854.1 4.95008
21865.0 4.92386
21886.8 4.91210
21930.5 4.90340
21974.3 4.89752
21996.1 4.89469
22007.0 4.89313
22012.5 4.89286
22015.2 4.89710
22016.6 4.92085
22017.3 5.01987
22017.6 5.37478
22017.8 6.43478
22017.9 9.13569
22017.9 13.0219
22018.0 28.6183
22018.0 52.7921
22018.0 29.0666
22018.1 15.1163
22018.1 10.0815
22018.2 7.13684
22018.3 5.63958
22018.6 5.12603
22019.2 4.96350
22020.4 4.91477
22022.7 4.89996
22027.4 4.89477
22036.8 4.89208
22055.5 4.88936
22092.9 4.88493
22130.3 4.88177
22149.1 4.88803
22158.4 4.92595
22160.8 4.96738
22163.1 5.08611
22164.3 5.24885
22165.4 5.68900
22166.0 6.26274
22166.6 7.66252
22166.9 9.27893
22167.2 12.7370
22167.3 16.2721
22167.5 22.0290
22167.6 33.8309
22167.8 56.5271
22167.9 87.5999
22168.0 109.095
22168.1 88.3441
22168.2 57.4536
22168.4 37.0077
22168.5 25.8216
22168.6 18.9710
22168.7 15.1756
22169.0 10.9072
22169.2 8.88588
22169.7 6.99886
22170.2 6.19728
22171.2 5.54355
22172.2 5.28849
22174.1 5.09278
22176.1 5.02200
22180.0 4.97938
22183.9 4.98813
22187.9 5.04769
22191.8 5.24846
22193.7 5.53407
22194.7 5.81595
22195.7 6.31785
22196.7 7.33508
22197.2 8.28314
22197.7 9.87871
22198.2 12.8580
22198.4 15.4746
22198.6 19.3480
22198.9 25.9997
22199.1 37.4040
22199.4 60.9165
22199.5 80.5159
22199.6 111.023
22199.8 174.303
22200.0 219.383
22200.2 176.003
22200.4 113.127
22200.5 84.5395
22200.6 65.5745
22200.8 42.4243
22201.1 29.5681
22201.3 22.4783
22201.5 17.8647
22201.7 14.9541
22202.2 11.3946
22202.6 9.44427
22203.1 8.26289
22204.0 6.96449
22204.9 6.30308
22205.8 5.91999
22207.6 5.51447
22209.4 5.31402
22211.2 5.19957
22214.8 5.07922
22222.0 4.98505
22229.2 4.94786
22243.6 4.91640
22250.8 4.90723
22254.4 4.90330
22256.2 4.90818
22257.1 4.95021
22257.5 5.13817
22257.7 5.77176
22257.8 7.42883
22257.9 11.0019
22257.9 15.9175
22258.0 27.0302
22258.0 50.0672
22258.0 27.9702
22258.1 14.5803
22258.1 10.6556
22258.2 7.30704
22258.3 5.74295
22258.6 5.17586
22259.2 4.99471
22260.3 4.93582
22262.5 4.91523
22266.9 4.90593
22275.8 4.89938
22293.5 4.89281
22329.0 4.88556
22364.5 4.88109
22382.2 4.87974
22391.1 4.88038
22395.5 4.88516
22397.7 4.90422
22398.8 4.97556
22399.4 5.22399
22399.7 6.03030
22399.8 8.17201
22399.9 12.3045
22399.9 27.4266
22400.0 49.8636
22400.1 27.3145
22400.1 16.5117
22400.1 11.3166
22400.2 7.83818
22400.4 5.88501
22400.6 5.18114
22401.2 4.95873
22402.4 4.89809
22404.7 4.88224
22409.4 4.87810
22418.8 4.87672
22437.5 4.87604
22456.2 4.87656
22465.6 4.87835
22470.3 4.88637
22472.6 4.92527
22473.8 5.09120
22474.4 5.70375
22474.6 7.63368
22474.8 12.7413
22474.9 21.2016
22474.9 32.8631
22474.9 57.7697
22475.0 89.9527
22475.0 111.516
22475.0 90.7085
22475.1 58.6284
22475.1 29.8896
22475.2 20.0240
22475.2 11.9623
22475.4 7.51134
22475.7 5.72512
22476.4 5.13393
22477.7 4.96030
22480.2 4.90987
22485.4 4.89667
22495.7 4.89982
22506.0 4.91405
22516.4 4.94440
22526.7 5.01437
22531.8 5.08620
22537.0 5.21820
22539.6 5.32904
22542.2 5.49658
22544.7 5.76568
22547.3 6.23531
22549.9 7.15911
22551.2 7.99338
22552.5 9.35070
22553.8 11.7594
22555.1 16.5838
22555.7 21.0139
22556.3 28.0442
22557.0 40.1730
22557.6 60.9082
22558.3 95.5088
22559.0 118.668
22559.7 96.1620
22560.4 62.3948
22560.8 47.2200
22561.2 36.6229
22562.1 24.1559
22562.9 17.6197
22563.8 13.8715
22564.6 11.5507
22565.5 10.0226
22567.2 8.20643
22568.9 7.20741
22570.6 6.60631
22574.0 5.94442
22577.4 5.60543
22580.8 5.40916
22584.2 5.28436
22587.6 5.20037
22594.4 5.09760
22601.2 5.04319
22608.0 5.04356
22611.4 5.19714
22612.3 5.36632
22613.1 5.83254
22613.6 6.44974
22614.0 7.96165
22614.2 9.84317
22614.4 13.8287
22614.5 18.0820
22614.6 25.0339
22614.7 40.4257
22614.8 52.7957
22614.8 73.0059
22614.9 112.945
22615.0 142.379
22615.1 113.857
22615.2 74.1232
22615.2 50.9809
22615.3 35.8915
22615.4 21.7595
22615.6 15.3438
22615.7 11.9799
22615.9 8.77644
22616.2 7.36029
22616.7 6.17237
22617.2 5.69732
22618.3 5.32271
22619.3 5.17826
22623.5 5.01843
22631.8 4.95917
22648.5 4.92564
22681.9 4.90037
22715.2 4.88837
22748.6 4.88091
22815.3 4.87134
22848.6 4.86781
22865.3 4.86634
22873.6 4.86639
22877.8 4.87001
22879.9 4.88702
22880.9 4.95509
22881.4 5.20473
22881.7 6.01715
22881.8 8.18137
22881.9 13.0073
22881.9 18.5867
22882.0 34.2519
22882.0 63.7398
22882.0 34.3527
22882.1 16.3927
22882.1 11.0290
22882.2 7.18647
22882.4 5.63193
22882.7 5.09050
22883.4 4.92712
22884.8 4.88214
22887.5 4.86956
22893.0 4.86563
22904.0 4.86372
22925.9 4.86181
22969.8 4.85970
23013.7 4.86598
23024.7 4.87570
23035.7 4.90532
23041.2 4.94746
23046.7 5.06631
23049.4 5.22910
23050.8 5.38799
23052.1 5.67102
23053.5 6.25012
23054.2 6.80345
23054.9 7.74032
23055.6 9.58157
23055.9 11.2016
23056.3 13.8017
23056.6 18.5201
23056.9 27.6066
23057.1 35.7341
23057.3 48.6369
23057.5 70.1390
23057.6 109.268
23057.8 170.319
23058.0 213.772
23058.2 170.490
23058.4 109.481
23058.5 79.1933
23058.6 60.0781
23058.9 37.7420
23059.1 26.2764
23059.3 19.7964
23059.6 15.8272
23059.8 13.2364
23060.3 10.1876
23060.8 8.53755
23061.3 7.54771
23062.2 6.47204
23063.2 5.92756
23064.2 5.62009
23066.1 5.29952
23068.0 5.14377
23069.9 5.05721
23073.8 4.96848
23081.5 4.90264
23089.2 4.87851
23104.6 4.86011
23119.9 4.85345
23135.3 4.85264
23150.7 4.86456
23158.4 4.88895
23166.1 4.97011
23170.0 5.09146
23171.9 5.21594
23173.8 5.44356
23175.8 5.92745
23176.7 6.39462
23177.7 7.21203
23178.6 8.82675
23179.1 10.2917
23179.6 12.6867
23180.1 16.9681
23180.3 20.4753
23180.6 25.6458
23180.8 33.6401
23181.0 46.7053
23181.3 69.3179
23181.5 110.478
23181.8 175.756
23182.0 218.745
23182.2 177.923
23182.5 113.211
23182.7 79.9359
23182.9 58.7625
23183.0 44.2662
23183.2 35.1092
23183.6 23.9080
23184.0 17.8909
23184.3 14.3246
23184.7 12.0476
23185.4 9.42038
23186.2 8.02120
23186.9 7.18822
23187.7 6.65180
23188.4 6.28979
23189.9 5.83309
23191.3 5.57138
23194.3 5.29330
23197.3 5.15506
23200.2 5.07604
23206.1 4.99217
23217.9 4.92528
23229.7 4.89821
23253.3 4.87492
23265.2 4.86873
23271.1 4.86676
23274.0 4.86912
23275.5 4.88539
23276.2 4.95451
23276.6 5.20964
23276.8 5.96785
23276.9 7.70955
23276.9 10.9867
23277.0 20.1696
23277.0 35.6788
23277.0 20.3738
23277.1 10.1912
23277.2 7.20910
23277.3 5.68640
23277.5 5.12617
23278.0 4.94236
23278.9 4.88741
23280.7 4.87090
23284.4 4.86497
23291.8 4.86137
23306.5 4.85729
23321.2 4.85386
23328.6 4.85194
23332.3 4.85176
23334.1 4.85914
23335.0 4.89921
23335.5 5.06149
23335.7 5.60389
23335.8 7.16596
23335.9 10.3938
23335.9 14.8353
23336.0 25.1219
23336.0 45.9848
23336.0 25.7157
23336.1 11.9441
23336.1 8.62698
23336.2 6.29344
23336.4 5.34804
23336.7 5.00659
23337.4 4.90141
23338.8 4.86911
23341.6 4.85837
23347.2 4.85391
23358.4 4.85101
23380.8 4.84781
23425.5 4.84321
23470.2 4.83980
23492.5 4.83945
23503.7 4.84413
23509.3 4.87099
23512.1 4.99387
23513.5 5.48847
23513.9 5.97369
23514.2 7.23333
23514.4 8.83971
23514.6 12.3432
23514.6 16.2961
23514.7 22.9095
23514.8 39.0584
23514.9 52.7001
23514.9 73.5597
23515.0 119.529
23515.0 143.952
23515.1 112.516
23515.1 74.9216
23515.2 46.3888
23515.2 33.1110
23515.3 19.9058
23515.4 14.0721
23515.5 11.0551
23515.7 8.20944
23515.9 6.95995
23516.3 5.91562
23516.7 5.49896
23518.3 5.04598
23521.5 4.91347
23527.9 4.87860
23540.7 4.89490
23547.2 4.93525
23553.6 5.05382
23556.8 5.21592
23558.4 5.37289
23560.0 5.64916
23561.6 6.20265
23562.4 6.71415
23563.2 7.56928
23564.0 9.15372
23564.4 10.5025
23564.8 12.5710
23565.2 15.9500
23565.6 21.9274
23566.0 33.5454
23566.2 43.4467
23566.4 57.9242
23566.7 90.3687
23567.0 111.392
23567.3 90.6312
23567.6 58.2572
23567.9 39.8645
23568.2 28.7916
23568.4 21.9732
23568.7 17.5975
23569.3 12.6166
23569.8 10.0407
23570.3 8.53085
23570.9 7.60522
23572.0 6.55576
23573.1 6.00330
23574.1 5.68264
23576.3 5.34025
23578.5 5.17010
23580.6 5.07365
23585.0 4.97378
23593.6 4.89793
23602.3 4.86936
23619.6 4.84675
23637.0 4.83750
23654.3 4.83374
23671.6 4.83929
23680.3 4.85532
23689.0 4.91299
23693.3 5.00168
23695.5 5.09303
23697.6 5.26008
23699.8 5.61265
23700.9 5.94957
23702.0 6.53083
23703.1 7.66662
23703.6 8.66461
23704.1 10.2512
23704.7 12.9709
23705.2 18.1258
23705.5 22.5469
23705.8 29.2613
23706.0 39.7966
23706.3 56.9871
23706.7 88.7725
23707.0 111.249
23707.4 90.4838
23707.7 59.1162
23708.0 39.4415
23708.3 28.1670
23708.7 21.3918
23709.0 17.1173
23709.6 12.3233
23710.3 9.87179
23710.9 8.44420
23711.6 7.56643
23712.8 6.56854
23714.1 6.03990
23715.4 5.72954
23718.0 5.39222
23720.5 5.22165
23723.1 5.12260
23728.2 5.01666
23738.5 4.93138
23748.8 4.89688
23769.3 4.86758
23789.9 4.85455
23831.0 4.84187
23872.1 4.83508
23913.2 4.83083
23954.2 4.82987
23974.8 4.83334
23995.3 4.84870
24005.6 4.87340
24015.9 4.94782
24021.0 5.05343
24023.6 5.15898
24026.2 5.34925
24028.7 5.74783
24030.0 6.13415
24031.3 6.80472
24032.6 8.14680
24033.2 9.36568
24033.9 11.3765
24034.5 15.0269
24034.8 18.0687
24035.1 22.6336
24035.5 29.8688
24035.8 42.1207
24036.1 64.4370
24036.4 107.665
24036.7 169.272
24037.0 211.418
24037.3 170.039
24037.6 108.623
24037.8 75.8327
24038.0 55.2025
24038.2 41.8685
24038.5 32.9847
24038.9 22.4831
24039.3 16.8505
24039.8 13.4589
24040.2 11.3554
24041.1 8.93206
24042.0 7.63467
24042.9 6.87593
24043.8 6.38458
24044.7 6.05492
24046.4 5.64598
24048.2 5.41280
24051.7 5.16987
24055.3 5.05182
24058.8 4.98528
24065.9 4.91627
24080.0 4.86281
24094.2 4.84127
24122.5 4.82117
24136.6 4.82539
24143.7 4.89818
24145.5 4.98711
24147.3 5.25191
24148.1 5.62373
24149.0 6.61856
24149.5 7.88075
24149.7 9.03280
24149.9 10.9269
24150.1 14.3386
24150.2 17.1542
24150.3 21.3350
24150.5 27.8631
24150.6 38.6839
24150.7 57.8175
24150.8 96.9500
24150.9 150.785
24151.0 191.962
24151.1 153.182
24151.2 99.8749
24151.3 71.0097
24151.4 53.9648
24151.4 40.9658
24151.5 33.2184
24151.7 23.0328
24151.8 17.4346
24152.0 14.0651
24152.1 11.8901
24152.4 9.35315
24152.7 7.98751
24153.0 7.16849
24153.6 6.27456
24154.8 5.55762
24156.0 5.27785
24158.4 5.05774
24160.8 4.97201
24165.6 4.90274
24170.4 4.87434
24189.6 4.83789
24208.7 4.82439
24218.3 4.82191
24223.1 4.84674
24225.5 4.99001
24226.7 5.58640
24227.0 6.16654
24227.3 7.63787
24227.4 9.37975
24227.6 13.2060
24227.7 23.9129
24227.8 36.1495
24227.9 60.3316
24227.9 94.4318
24228.0 117.829
24228.1 96.0248
24228.1 62.3231
24228.2 40.5154
24228.2 28.2235
24228.4 17.3238
24228.5 12.2195
24228.6 9.86034
24228.8 7.54215
24229.0 6.56870
24229.5 5.72487
24229.9 5.38482
24231.7 5.00674
24235.3 4.88787
24242.6 4.84784
24257.0 4.83151
24285.8 4.82211
24343.6 4.81386
24459.0 4.80358
24574.4 4.79585
24632.2 4.79685
24661.0 4.80749
24675.4 4.82850
24682.7 4.87215
24686.3 5.00691
24687.2 5.13727
24688.1 5.48931
24688.5 5.94843
24689.0 7.12081
24689.2 8.58314
24689.4 11.7756
24689.5 15.5074
24689.6 22.1674
24689.8 36.7328
24689.8 52.4053
24689.9 76.5762
24689.9 117.811
24690.0 149.007
24690.1 118.397
24690.1 77.2909
24690.2 46.8943
24690.3 30.4957
24690.4 21.8058
24690.4 17.2970
24690.6 11.8644
24690.8 9.44779
24691.1 7.22280
24691.4 6.30327
24692.0 5.56977
24692.6 5.29006
24695.1 5.00849
24700.0 4.96697
24705.0 5.02001
24709.9 5.14214
24714.8 5.40897
24717.3 5.66803
24719.8 6.11967
24722.3 7.00543
24723.5 7.80674
24724.7 9.09553
24726.0 11.3916
24727.2 15.9211
24727.8 20.0427
24728.4 26.6519
24729.1 37.7888
24729.7 56.5390
24730.3 88.1605
24731.0 109.679
24731.7 89.1279
24732.3 57.7520
24732.9 40.3718
24733.4 29.5448
24734.0 22.7390
24734.5 18.3670
24735.6 13.1990
24736.7 10.5035
24737.8 8.91180
24738.9 7.91490
24741.1 6.77367
24743.3 6.18739
24745.5 5.89451
24746.6 5.86479
24747.7 6.03849
24748.2 6.37160
24748.8 7.30588
24749.0 8.54987
24749.3 11.4259
24749.5 14.7242
24749.6 20.7897
24749.7 26.6503
24749.7 36.1826
24749.8 52.5194
24749.9 77.9480
24749.9 123.773
24750.0 151.535
24750.1 124.968
24750.1 78.9796
24750.2 57.1509
24750.3 43.4103
24750.4 27.7120
24750.5 19.8286
24750.6 15.4297
24750.8 10.8753
24751.0 8.89833
24751.4 7.13723
24751.8 6.41205
24752.6 5.81653
24753.4 5.56943
24755.1 5.34880
24756.7 5.24099
24760.0 5.12363
24763.3 5.05553
24769.8 4.97522
24776.4 4.92886
24789.5 4.87798
24802.6 4.85111
24828.8 4.82340
24841.9 4.81495
24848.4 4.81196
24851.7 4.81560
24853.3 4.84282
24854.1 4.96303
24854.6 5.41880
24854.8 6.82153
24854.9 10.1930
24854.9 15.8286
24855.0 35.8983
24855.0 67.5129
24855.0 36.4246
24855.1 21.0303
24855.1 13.2734
24855.2 8.19006
24855.4 5.92560
24855.7 5.15482
24856.3 4.91328
24857.5 4.84120
24860.0 4.81898
24865.0 4.81030
24875.0 4.80439
24885.0 4.80051
24890.0 4.80026
24892.5 4.80979
24893.7 4.85949
24894.3 5.06020
24894.6 5.75938
24894.8 7.90699
24894.9 12.8417
24894.9 20.4689
24895.0 35.8279
24895.0 67.4011
24895.0 36.3723
24895.1 18.3514
24895.1 12.1626
24895.2 7.62814
24895.4 5.71316
24895.8 5.07242
24896.5 4.88048
24897.9 4.82439
24900.8 4.80675
24906.5 4.79987
24918.0 4.79536
24940.9 4.79014
24986.8 4.78198
25032.7 4.77432
25055.6 4.77771
25061.4 4.78863
25067.1 4.82839
25070.0 4.89032
25072.9 5.07370
25074.3 5.32786
25075.7 5.99945
25076.4 6.84264
25076.8 7.60197
25077.2 8.78806
25077.5 10.9156
25077.9 15.0950
25078.1 18.8131
25078.2 24.6654
25078.4 34.2737
25078.6 49.6970
25078.8 76.9617
25079.0 96.3132
25079.2 78.4123
25079.4 51.3895
25079.6 36.6737
25079.8 27.0372
25079.9 20.9610
25080.1 17.1833
25080.4 12.4830
25080.8 10.0681
25081.1 8.60329
25081.4 7.70011
25082.1 6.65326
25082.8 6.08577
25083.4 5.75204
25084.7 5.38511
25087.4 5.08964
25090.1 4.97399
25095.4 4.88151
25100.7 4.84457
25111.4 4.81388
25122.1 4.80067
25164.7 4.78191
25207.3 4.77413
25228.6 4.77119
25239.3 4.77014
25244.6 4.77155
25247.3 4.78114
25248.6 4.82255
25249.3 4.98457
25249.6 5.53793
25249.8 7.24809
25249.9 10.8511
25249.9 16.1660
25250.0 33.0848
25250.0 61.6646
25250.0 33.3171
25250.1 18.6706
25250.1 11.9354
25250.2 7.87826
25250.3 5.79050
25250.6 5.06843
25251.2 4.85422
25252.4 4.79280
25254.8 4.77556
25259.5 4.77012
25269.0 4.76755
25288.0 4.76497
25307.0 4.76288
25316.5 4.76224
25321.2 4.76367
25323.6 4.77187
25324.8 4.80605
25325.4 4.93329
25325.7 5.37675
25325.8 6.68928
25325.9 9.30463
25325.9 13.8025
25326.0 26.1324
25326.0 47.6142
25326.0 26.2427
25326.1 15.9541
25326.1 11.0960
25326.2 7.48894
25326.3 5.76648
25326.5 5.06315
25327.0 4.84725
25327.9 4.78475
25329.7 4.76730
25333.3 4.76219
25340.5 4.76013
25355.0 4.75850
25369.4 4.75951
25376.7 4.77223
25380.3 4.83111
25382.1 5.06764
25383.0 5.92123
25383.2 6.72980
25383.5 8.60770
25383.6 10.9767
25383.7 15.6357
25383.8 27.6867
25383.9 43.5008
25383.9 72.5895
25384.0 111.205
25384.0 140.991
25384.1 111.671
25384.1 73.1556
25384.1 52.4510
25384.2 37.4164
25384.2 23.4038
25384.3 16.6102
25384.4 12.9029
25384.5 9.25619
25384.7 7.60106
25385.0 6.16083
25385.2 5.60722
25386.4 4.99892
25388.6 4.82477
25393.2 4.77567
25402.2 4.76091
25420.3 4.75495
25456.5 4.75010
25492.7 4.74629
25510.9 4.74457
25519.9 4.74455
25524.4 4.74861
25526.7 4.76803
25527.8 4.84646
25528.4 5.14347
25528.7 6.11600
25528.8 8.75173
25528.9 13.9860
25528.9 22.4801
25529.0 37.8076
25529.0 61.3641
25529.0 71.0769
25529.0 61.5082
25529.0 38.0120
25529.1 17.4551
25529.2 11.0812
25529.3 7.18705
25529.5 5.49343
25529.9 4.95965
25530.7 4.80247
25532.4 4.75940
25535.7 4.74723
25542.3 4.74321
25555.5 4.74088
25581.9 4.73794
25634.7 4.73259
25740.4 4.72187
25846.1 4.71191
25898.9 4.71131
25925.3 4.72510
25931.9 4.73962
25938.5 4.77874
25941.8 4.83024
25945.1 4.96770
25946.8 5.14768
25948.4 5.62102
25949.3 6.22974
25950.1 7.73414
25950.5 9.57668
25950.7 11.2057
25950.9 13.6508
25951.1 18.0330
25951.3 25.9026
25951.4 33.3856
25951.5 43.8414
25951.6 60.1488
25951.7 87.0441
25951.9 135.256
25952.0 168.400
25952.1 134.295
25952.3 85.8549
25952.4 61.0958
25952.5 44.1390
25952.6 33.3346
25952.6 26.8195
25952.8 18.2467
25953.0 13.9206
25953.2 11.2402
25953.4 9.62954
25953.8 7.73398
25954.6 6.15936
25955.4 5.54799
25956.9 5.07452
25958.5 4.90337
25961.6 4.77949
25964.7 4.73691
25977.1 4.69810
25989.5 4.69249
25995.7 4.69440
25998.9 4.70591
26000.4 4.75003
26001.2 4.91370
26001.6 5.48652
26001.8 7.16253
26001.9 11.4266
26001.9 18.8454
26002.0 36.5971
26002.0 68.3806
26002.0 36.4722
26002.1 16.5668
26002.2 9.91339
26002.3 6.61858
26002.5 5.25852
26003.0 4.84133
26003.9 4.72694
26005.7 4.69752
26009.4 4.69012
26016.7 4.68837
26031.4 4.69037
26046.0 4.71311
26049.7 4.73984
26053.3 4.81870
26055.2 4.92899
26057.0 5.23210
26057.9 5.63072
26058.8 6.62384
26059.3 7.80979
26059.8 10.4361
26060.0 13.1048
26060.2 17.9668
26060.3 22.1849
26060.4 27.8329
26060.6 36.1264
26060.7 49.0925
26060.8 75.5459
26061.0 94.3490
26061.2 76.3418
26061.3 49.9447
26061.5 37.0712
26061.6 28.0883
26061.7 22.1394
26061.8 18.3845
26062.0 13.5353
26062.3 10.8394
26062.7 8.10716
26063.2 6.88360
26064.1 5.81601
26065.0 5.38436
26066.9 5.03724
26068.7 4.90325
26072.4 4.79985
26076.1 4.76103
26083.6 4.73256
26091.0 4.72413
26105.8 4.72657
26120.6 4.74718
26135.4 4.80091
26142.8 4.85702
26150.2 4.96052
26153.9 5.04799
26157.6 5.18051
26161.3 5.39523
26165.0 5.77594
26166.8 6.08711
26168.7 6.54773
26170.5 7.27035
26172.4 8.49625
26174.2 10.8200
26175.2 12.8600
26176.1 16.0333
26177.0 21.4674
26177.9 31.5008
26178.4 40.1909
26178.9 52.9789
26179.3 72.6962
26179.8 103.198
26180.4 162.296
26181.0 201.727
26181.6 162.534
26182.2 103.505
26183.0 60.3643
26183.7 38.9048
26184.4 27.3002
26185.1 20.6763
26185.9 16.4938
26186.6 13.7709
26188.0 10.5040
26189.5 8.71733
26190.9 7.63802
26193.8 6.46015
26196.7 5.86192
26199.6 5.51821
26202.5 5.30256
26205.4 5.15871
26211.2 4.98313
26217.0 4.88418
26228.6 4.78099
26240.2 4.72932
26251.7 4.69761
26263.3 4.67285
26269.1 4.66303
26272.0 4.68894
26273.5 4.86999
26274.2 5.62592
26274.6 8.09899
26274.7 14.1879
26274.8 24.4830
26274.9 37.7579
26274.9 61.4828
26275.0 98.1630
26275.0 120.467
26275.0 100.377
26275.1 63.6596
26275.1 40.3734
26275.2 28.7552
26275.3 17.4142
26275.4 9.73163
26275.6 7.40244
26275.8 6.40147
26276.4 5.24397
26277.8 4.86502
26280.5 4.74059
26285.9 4.69349
26296.6 4.66926
26318.2 4.64972
26361.3 4.62733
26404.4 4.61589
26415.2 4.62173
26426.0 4.65181
26431.4 4.70238
26436.7 4.85758
26439.4 5.07850
26440.8 5.29815
26442.1 5.68840
26443.5 6.49170
26444.2 7.24063
26444.8 8.50748
26445.5 10.9398
26445.8 13.0589
26446.2 16.2581
26446.5 21.7539
26446.8 31.4434
26447.0 39.6452
26447.2 51.6901
26447.4 69.7898
26447.5 95.6068
26447.8 151.887
26448.0 188.674
26448.2 153.539
26448.5 97.6927
26448.7 70.4997
26448.8 51.8223
26449.0 39.5912
26449.2 31.3637
26449.6 21.5440
26449.9 16.2269
26450.3 13.0598
26450.6 11.0311
26451.4 8.70679
26452.1 7.44388
26452.8 6.69214
26454.2 5.88195
26455.7 5.47047
26457.1 5.23496
26460.0 4.98552
26462.8 4.86129
26465.7 4.79006
26471.4 4.71378
26482.9 4.65116
26494.3 4.62368
26517.3 4.59539
26540.2 4.57738
26586.0 4.54765
26608.9 4.53346
26620.4 4.53234
26626.1 4.56561
26629.0 4.72978
26630.4 5.36683
26630.8 5.97648
26631.2 7.51051
26631.3 9.32021
26631.5 13.2958
26631.6 17.2956
26631.7 24.4892
26631.8 38.7464
26631.9 64.7586
26631.9 100.893
26632.0 125.761
26632.1 101.855
26632.1 65.5239
26632.2 47.5584
26632.2 35.6597
26632.3 22.4118
26632.4 15.9410
26632.5 12.6721
26632.7 9.13220
26632.9 7.48490
26633.3 6.05093
26633.7 5.46068
26634.4 4.98392
26635.2 4.80224
26638.3 4.60528
26644.4 4.54332
26656.6 4.51737
26668.8 4.50537
26674.9 4.50133
26677.9 4.50593
26679.4 4.54134
26680.2 4.69590
26680.6 5.26339
26680.8 6.99972
26680.9 11.4809
26680.9 19.2843
26681.0 36.9224
26681.0 70.0308
26681.0 37.6079
26681.1 22.8455
26681.1 15.7228
26681.2 9.25519
26681.3 6.12892
26681.6 5.01520
26682.1 4.65364
26683.2 4.54717
26685.4 4.51427
26689.8 4.50255
26698.5 4.49828
26716.0 4.51755
26724.7 4.56293
26729.1 4.61339
26733.5 4.70899
26737.8 4.91537
26740.0 5.11647
26742.2 5.46936
26744.4 6.17230
26745.5 6.80907
26746.6 7.85174
26747.6 9.71992
26748.2 11.2710
26748.7 13.5215
26749.3 17.0803
26749.8 22.8175
26750.4 33.0077
26750.9 50.9628
26751.5 79.6756
26752.0 98.7193
26752.6 79.8713
26753.1 51.9025
26753.6 33.8754
26754.2 23.8480
26754.7 17.9785
26755.2 14.3472
26755.8 11.9757
26756.3 10.3530
26757.3 8.34940
26758.4 7.21168
26759.5 6.50583
26761.6 5.71240
26763.7 5.29924
26765.8 5.05608
26770.1 4.79372
26774.3 4.66020
26778.5 4.58114
26787.0 4.49175
26804.0 4.40426
26812.5 4.37642
26816.7 4.37110
26818.8 4.39924
26819.9 4.53181
26820.4 5.01725
26820.7 6.60830
26820.8 10.4817
26820.9 18.1652
26820.9 26.0090
26820.9 44.0355
26821.0 83.9134
26821.1 44.2258
26821.1 23.0666
26821.1 15.1593
26821.2 8.74792
26821.4 5.87215
26821.7 4.80654
26822.4 4.47440
26823.8 4.37649
26826.5 4.34236
26832.0 4.31889
26842.9 4.28370
26864.7 4.20894
26886.5 4.11392
26908.3 3.98025
26930.1 3.77033
26941.0 3.61044
26951.9 3.38182
26962.8 3.02606
26968.3 2.76262
26973.7 2.39961
26979.2 1.87319
26981.9 1.51568
26984.6 1.07698
26987.4 0.563690
26990.1 0.171037
26991.4 0.350308
26992.1 0.749689
26992.8 1.59587
26993.5 3.29567
26993.8 4.70250
26994.2 6.70040
26994.5 9.55523
26994.8 13.6589
26995.2 19.5728
26995.5 28.0377
26995.9 41.0493
26996.3 58.2245
26997.0 91.8597
26997.4 96.3325
26997.7 90.8027
26998.5 68.8868
26999.3 49.9198
27000.0 38.1234
27000.8 30.7222
27001.6 26.1754
27002.4 23.5860
27002.8 23.0800
27003.1 23.3285
27003.5 24.9366
27003.7 26.7643
27003.9 29.6792
27004.1 34.9735
27004.3 44.0920
27004.5 61.5610
27004.7 96.5811
27004.8 145.060
27005.0 177.273
27005.2 144.491
27005.3 95.4975
27005.4 70.2984
27005.6 55.0340
27005.7 43.9678
27005.8 37.0586
27006.0 28.1987
27006.2 23.4275
27006.5 20.3278
27006.7 18.3445
27007.1 15.8170
27007.6 14.3074
27008.0 13.2881
27008.9 11.9550
27009.8 11.0798
27010.7 10.4352
27012.5 9.51326
27014.3 8.86446
27016.1 8.37416
27019.7 7.67367
27023.3 7.19231
27026.9 6.84154
27034.1 6.36181
27041.4 6.04811
27048.6 5.82705
27063.0 5.53474
27077.4 5.34896
27091.8 5.21954
27120.6 5.04879
27149.4 4.93873
27178.2 4.86121
27207.0 4.81086
27221.4 4.81237
27228.6 4.86039
27232.2 5.00262
27234.0 5.41383
27234.5 5.76229
27234.9 6.58564
27235.2 7.54696
27235.4 9.51468
27235.6 15.2848
27235.7 22.4577
27235.8 38.3986
27235.9 57.1130
27236.0 69.0474
27236.1 54.8832
27236.2 35.4247
27236.2 25.4230
27236.3 19.1854
27236.4 12.2013
27236.7 7.56300
27237.2 5.55218
27238.2 4.91457
27240.3 4.77404
27244.4 4.78095
27248.5 4.82888
27252.6 4.92053
27256.7 5.12004
27258.7 5.31744
27260.8 5.66760
27262.8 6.36781
27263.8 7.01178
27264.9 8.05920
27265.9 9.95847
27266.4 11.5037
27266.9 13.7797
27267.4 17.2915
27267.9 23.0081
27268.4 32.8373
27268.9 50.1824
27269.5 78.4312
27270.0 98.0033
27270.5 80.0708
27271.1 52.2304
27271.5 37.4559
27271.9 27.9703
27272.3 21.8515
27272.7 17.8613
27273.5 13.0495
27274.3 10.4506
27275.1 8.88716
27275.9 7.89869
27277.6 6.74961
27279.2 6.12858
27280.8 5.75803
27284.1 5.34979
27287.3 5.13986
27290.6 5.01599
27297.1 4.88008
27303.6 4.80804
27310.0 4.76352
27323.0 4.71047
27349.0 4.66035
27375.0 4.65021
27388.0 4.66403
27401.0 4.70044
27414.0 4.77817
27427.0 4.94136
27433.5 5.08681
27439.9 5.31270
27446.4 5.68398
27452.9 6.34174
27459.4 7.65698
27462.7 8.85919
27465.9 10.8301
27469.2 14.3948
27470.8 17.3544
27472.4 21.7337
27474.1 28.6416
27475.7 40.0784
27477.3 60.3744
27478.9 97.6710
27480.5 154.123
27482.0 191.628
27483.6 154.313
27485.1 98.4031
27486.7 62.0626
27488.2 41.7764
27489.8 30.1121
27491.3 22.9931
27492.9 18.3915
27494.5 15.2675
27497.6 11.4418
27500.7 9.28628
27503.8 7.95500
27510.1 6.46081
27516.3 5.67809
27522.5 5.20964
27528.8 4.90034
27535.0 4.67949
27547.5 4.37496
27560.0 4.15633
27584.9 3.78698
27609.9 3.35742
27622.4 3.06646
27634.8 2.67657
27647.3 2.11634
27653.6 1.73430
27659.8 1.25571
27666.0 0.672557
27669.2 0.367115
27672.3 0.123699
27673.8 0.0769777
27675.4 0.143306
27677.0 0.422056
27678.5 1.10644
27679.3 1.71096
27680.1 2.59134
27680.9 3.86964
27681.6 5.72929
27682.4 8.44793
27683.2 12.4446
27684.0 18.3350
27684.8 26.8230
27685.6 39.7529
27686.4 56.7201
27688.0 90.2750
27688.8 94.9706
27689.6 89.6591
27691.3 68.1885
27692.5 54.0004
27693.7 43.6817
27694.9 36.2377
27696.1 30.8845
27698.5 23.8459
27701.0 19.5947
27703.4 16.7892
27705.8 14.8363
27710.7 12.3093
27715.5 10.7651
27720.4 9.73079
27730.1 8.43892
27739.8 7.66654
27749.5 7.15274
27768.9 6.51055
27788.3 6.13018
27798.0 6.00371
27807.7 5.92542
27812.5 5.91460
27817.4 5.93741
27822.2 6.02094
27827.1 6.22941
27831.9 6.74157
27834.4 7.26787
27836.8 8.20289
27839.2 10.0624
27840.4 11.7248
27841.6 14.3906
27842.8 19.0506
27844.1 27.9205
27844.7 35.6710
27845.3 47.3319
27845.9 66.0970
27846.5 95.5093
27847.2 151.873
27848.0 190.298
27848.8 154.667
27849.5 99.9524
27850.4 62.3082
27851.2 41.8717
27852.0 30.3556
27852.8 23.4787
27853.6 18.9959
27854.4 15.9606
27856.1 12.2512
27857.7 10.1178
27859.3 8.77322
27862.6 7.15128
27865.9 6.10302
27869.1 5.11905
27870.8 4.47836
27872.4 3.53988
27873.2 2.84245
27874.0 1.94200
27874.9 1.44779
27875.1 2.08110
27875.3 3.98088
27875.5 9.28161
27875.6 14.8300
27875.7 25.0260
27875.8 37.0703
27875.8 52.8324
27876.0 84.6622
27876.1 89.7271
27876.2 85.5564
27876.3 65.9893
27876.4 55.2394
27876.5 46.4972
27876.7 34.7422
27876.9 27.7129
27877.1 23.2265
27877.3 20.1792
27877.5 18.0005
27877.9 15.1268
27878.3 13.3357
27878.7 12.1203
27879.5 10.5976
27880.3 9.66157
27881.1 9.03347
27882.7 8.24301
27884.3 7.75527
27885.9 7.42415
27889.1 6.99407
27895.4 6.53257
27901.8 6.28729
27908.2 6.15116
27914.6 6.13300
27917.8 6.23086
27919.3 6.35348
27920.9 6.59002
27922.5 7.09364
27923.3 7.57004
27924.1 8.36034
27924.9 9.83908
27925.3 11.0909
27925.7 12.9349
27926.1 15.9583
27926.5 21.1653
27926.9 30.8579
27927.3 49.3500
27927.7 75.9010
27928.0 94.2566
27928.4 76.9755
27928.7 50.6859
27928.9 37.8055
27929.2 28.9592
27929.4 23.0927
27929.7 19.2381
27930.2 14.4310
27930.7 11.7747
27931.2 10.1433
27931.7 9.11157
27932.6 7.90030
27933.6 7.23703
27934.6 6.83995
27936.6 6.39649
27938.5 6.16384
27940.5 6.02293
27944.4 5.86089
27952.3 5.70457
27960.2 5.61905
27975.9 5.51174
27991.7 5.43774
28007.4 5.37940
28023.2 5.33056
28054.6 5.25022
28086.1 5.18365
28117.6 5.12430
28149.1 5.07058
28164.9 5.07812
28168.8 5.12052
28172.7 5.27130
28174.7 5.49899
28175.7 5.73147
28176.7 6.14832
28177.7 7.01530
28178.1 7.82248
28178.6 9.18253
28179.1 11.7143
28179.4 13.9240
28179.6 17.1680
28179.9 22.6635
28180.1 31.8815
28180.4 50.2053
28180.6 86.0894
28180.8 137.349
28181.0 171.054
28181.2 140.379
28181.4 89.9230
28181.6 55.8116
28181.9 37.6016
28182.1 27.3765
28182.3 21.2304
28182.5 17.2959
28182.7 14.6408
28183.2 11.4044
28183.6 9.58628
28184.1 8.46430
28184.9 7.20643
28185.8 6.54573
28186.7 6.16157
28188.5 5.74620
28190.2 5.53522
28192.0 5.41422
28195.5 5.29063
28199.0 5.24974
28202.6 5.30143
28204.3 5.42278
28206.1 5.78826
28207.0 6.27405
28207.9 7.48571
28208.3 8.88313
28208.7 11.8443
28209.0 14.7014
28209.2 19.6042
28209.4 28.6942
28209.6 46.9819
28209.8 73.1178
28210.0 90.4829
28210.2 74.4018
28210.4 48.5990
28210.5 34.6381
28210.7 25.6112
28210.9 19.9560
28211.0 16.4681
28211.3 12.2246
28211.6 9.96784
28212.0 8.60350
28212.3 7.76693
28212.9 6.79971
28214.1 5.96767
28215.4 5.62939
28217.9 5.35061
28220.4 5.23707
28225.4 5.13858
28230.3 5.09269
28240.3 5.04362
28250.3 5.01331
28290.2 4.93292
28330.1 4.86351
28350.0 4.82666
28360.0 4.80662
28365.0 4.79627
28367.5 4.79588
28368.7 4.82357
28369.3 4.95255
28369.6 5.40653
28369.8 6.74452
28369.9 9.58325
28369.9 22.0826
28370.0 40.0305
28370.1 22.7369
28370.1 10.7831
28370.2 7.50229
28370.3 5.83485
28370.6 5.12830
28371.1 4.89643
28372.2 4.82132
28374.3 4.79355
28378.6 4.77657
28387.1 4.75491
28404.1 4.71332
28438.2 4.61618
28472.2 4.50479
28480.8 4.49718
28485.0 4.51322
28489.3 4.56512
28493.5 4.71123
28495.7 4.87261
28497.8 5.17570
28499.9 5.82359
28501.0 6.45124
28502.0 7.52403
28503.1 9.60861
28503.6 11.4272
28504.2 14.2965
28504.7 19.1612
28505.2 28.2280
28505.5 36.0460
28505.8 47.2834
28506.0 65.2096
28506.3 91.7633
28506.6 145.548
28507.0 182.468
28507.4 148.068
28507.7 94.9119
28508.0 63.4508
28508.4 45.0147
28508.7 33.6121
28509.0 26.2614
28509.6 17.8425
28510.2 13.4517
28510.8 10.8617
28511.5 9.25605
28512.7 7.41424
28514.0 6.42792
28515.2 5.84290
28517.7 5.19707
28520.2 4.85668
28522.6 4.64930
28527.6 4.40368
28532.6 4.26178
28537.6 4.20516
28540.1 4.25550
28542.5 4.51025
28543.8 4.90001
28544.4 5.27690
28545.0 5.92335
28545.6 7.14390
28546.0 8.19279
28546.3 9.80839
28546.6 12.4532
28546.9 17.1272
28547.2 26.1623
28547.4 34.1039
28547.5 44.7852
28547.8 69.9995
28548.0 87.3477
28548.3 71.2827
28548.5 46.3800
28548.7 32.2552
28548.9 23.5219
28549.1 18.0665
28549.3 14.6626
28549.7 10.5757
28550.2 8.40623
28550.6 7.12555
28551.0 6.30705
28551.8 5.35478
28552.6 4.83139
28553.4 4.51347
28555.1 4.14277
28558.4 3.77432
28561.7 3.54932
28568.2 3.16576
28574.8 2.72247
28581.4 2.11471
28584.7 1.70914
28587.9 1.21356
28591.2 0.632238
28594.5 0.160479
28596.2 0.294943
28597.0 0.666462
28597.8 1.47061
28598.6 3.08608
28599.0 4.41287
28599.4 6.27971
28599.8 8.91486
28600.3 12.6460
28600.7 17.9294
28601.1 25.3536
28601.6 37.8867
28602.0 54.2784
28603.0 87.0632
28603.5 92.0158
28604.0 87.2364
28604.9 66.9227
28605.6 54.6765
28606.2 45.4033
28607.5 33.1521
28608.7 26.0174
28610.0 21.5405
28611.3 18.5347
28612.6 16.4035
28615.1 13.6252
28617.6 11.9012
28620.2 10.7403
28625.2 9.28806
28630.3 8.41796
28635.4 7.84214
28645.5 7.12689
28655.7 6.70006
28665.8 6.41649
28686.1 6.06243
28706.4 5.84905
28726.7 5.70575
28767.3 5.52398
28807.9 5.41338
28828.2 5.37407
28848.5 5.34407
28868.8 5.32596
28889.1 5.33194
28899.2 5.35833
28909.4 5.43336
28914.4 5.52293
28919.5 5.72851
28922.1 5.96432
28923.3 6.17283
28924.6 6.51302
28925.9 7.15754
28926.5 7.73766
28927.1 8.67634
28927.8 10.4414
28928.1 11.9730
28928.4 14.2995
28928.7 18.4008
28929.0 25.9973
28929.2 32.8551
28929.3 43.6435
28929.5 61.4250
28929.7 89.5029
28929.8 137.105
28930.0 164.016
28930.2 129.622
28930.3 79.8000
28930.5 56.8623
28930.6 41.0530
28930.7 30.9416
28930.9 24.7086
28931.1 16.7675
28931.4 12.7593
28931.6 10.3464
28931.9 8.90648
28932.4 7.29671
28932.9 6.47330
28933.4 6.02520
28934.4 5.58630
28936.4 5.33089
28938.4 5.30238
28942.5 5.42230
28946.5 5.69998
28950.6 6.28798
28952.6 6.85325
28954.6 7.83257
28956.6 9.73090
28957.6 11.4135
28958.6 14.0908
28959.6 18.6788
28960.7 27.3515
28961.2 34.8474
28961.7 45.9478
28962.2 63.5837
28962.7 90.6175
28963.3 144.237
28964.0 180.908
28964.7 147.555
28965.3 95.8340
28965.9 65.1577
28966.5 46.4568
28967.1 34.9165
28967.6 27.5957
28968.8 19.0528
28970.0 14.6341
28971.1 12.0330
28972.3 10.4010
28974.6 8.52341
28976.9 7.51817
28979.2 6.91728
28981.5 6.52771
28983.8 6.26051
28988.4 5.92226
28993.0 5.72320
28997.6 5.59419
29002.2 5.50466
29011.5 5.38911
29020.7 5.31750
29039.2 5.23070
29057.6 5.17716
29076.1 5.15076
29085.3 5.16962
29089.9 5.20729
29094.5 5.29579
29099.1 5.51914
29101.4 5.75830
29103.7 6.20254
29106.1 7.14168
29107.2 8.03007
29108.4 9.53420
29109.5 12.3680
29110.1 14.7828
29110.7 18.3890
29111.2 24.2827
29111.8 34.2134
29112.4 52.8733
29113.0 88.2541
29113.5 141.138
29114.0 178.925
29114.5 147.210
29115.0 95.8482
29115.6 60.7224
29116.1 41.3662
29116.7 30.3348
29117.2 23.7242
29117.8 19.3575
29118.3 16.4347
29119.4 12.7882
29120.5 10.7097
29121.6 9.41111
29123.8 7.93296
29126.0 7.14556
29128.1 6.67614
29130.3 6.37018
29132.5 6.15838
29136.9 5.88959
29141.2 5.73180
29145.6 5.63221
29150.0 5.56837
29158.7 5.51680
29163.1 5.53292
29167.4 5.59932
29171.8 5.77930
29174.0 5.96784
29176.1 6.30858
29178.3 6.99554
29179.4 7.62438
29180.5 8.65622
29181.6 10.5027
29182.7 14.2352
29183.2 17.6948
29183.8 23.2055
29184.3 32.8181
29184.9 49.3556
29185.4 76.4714
29186.0 95.1394
29186.6 77.9508
29187.1 51.2068
29187.6 37.2499
29188.0 28.1709
29188.4 22.2505
29188.9 18.2776
29189.7 13.5422
29190.6 10.9773
29191.4 9.44664
29192.3 8.46350
29194.0 7.32499
29195.7 6.70764
29197.5 6.33634
29200.9 5.92850
29204.3 5.71692
29207.8 5.59168
29214.6 5.45259
29221.5 5.37809
29228.4 5.33151
29242.1 5.27531
29269.6 5.21737
29297.0 5.18435
29352.0 5.14223
29379.5 5.12451
29393.2 5.11242
29400.1 5.10099
29403.5 5.09404
29405.2 5.12481
29406.1 5.33741
29406.5 6.22438
29406.7 8.88824
29406.8 15.1845
29406.9 23.5765
29406.9 47.5998
29407.0 76.3067
29407.0 93.1210
29407.0 78.6315
29407.1 50.6396
29407.1 32.3581
29407.1 21.6824
29407.2 12.9048
29407.4 8.22824
29407.7 6.18887
29408.3 5.48469
29409.5 5.25222
29412.0 5.17043
29416.9 5.13801
29426.8 5.12146
29446.5 5.10838
29486.0 5.09199
29525.5 5.07745
29545.2 5.06795
29555.1 5.05912
29560.0 5.05220
29562.5 5.06585
29563.7 5.18636
29564.3 5.73916
29564.6 7.68781
29564.8 12.5802
29564.9 22.0916
29564.9 33.7003
29564.9 50.3299
29565.0 82.3545
29565.0 98.2697
29565.0 84.3693
29565.1 53.0104
29565.1 26.5756
29565.2 16.7401
29565.3 10.0209
29565.6 6.78714
29566.1 5.64781
29567.0 5.27026
29569.0 5.14475
29572.9 5.09981
29580.8 5.08070
29596.5 5.06945
29628.0 5.05845
29690.9 5.04156
29753.8 5.02217
29785.2 5.00779
29800.9 5.01474
29804.9 5.04022
29808.8 5.13617
29810.8 5.28770
29812.7 5.73316
29813.7 6.34809
29814.2 6.93221
29814.7 7.93465
29815.2 9.84738
29815.4 11.5571
29815.7 14.1250
29815.9 18.6128
29816.2 26.4801
29816.3 33.5616
29816.4 43.2014
29816.5 57.5230
29816.6 79.4303
29816.8 125.259
29817.0 157.888
29817.2 128.686
29817.4 83.4835
29817.5 54.8072
29817.7 37.6601
29817.9 27.7435
29818.1 21.6635
29818.3 17.7169
29818.4 15.0269
29818.8 11.7820
29819.1 9.87497
29819.5 8.69250
29820.2 7.37347
29820.9 6.67074
29821.6 6.26003
29823.1 5.81193
29825.9 5.44641
29828.8 5.30049
29834.5 5.18044
29840.2 5.13064
29851.6 5.08732
29863.0 5.06776
29885.8 5.04866
29908.7 5.03846
29954.3 5.02614
30000.0 5.01777
30000.0 6.66813
35000.0 6.59975
40000.0 6.54986
50000.0 6.48358
60000.0 6.44288
70000.0 6.41602
80000.0 6.39713
99999.9 6.37147
100000 6.34536
150000 6.31855
200000 6.31598
250000 6.32349
300000 6.33555
500000 6.38931
600000 6.39882
700000 6.40703
800000 6.39610
900000 6.37153
1.00000E+06 6.33374
1.12500E+06 6.25626
1.25000E+06 6.18853
1.30476E+06 6.14824
1.40238E+06 6.05705
1.50000E+06 5.98512
1.62500E+06 5.85664
1.75000E+06 5.74460
1.77209E+06 5.72225
1.88605E+06 5.59764
2.00000E+06 5.48752
2.04494E+06 5.44091
2.04494E+06 5.44090
2.13068E+06 5.35242
2.13068E+06 5.35242
2.24467E+06 5.23650
2.28582E+06 5.19532
2.28582E+06 5.19532
2.38649E+06 5.09656
2.38649E+06 5.09656
2.41161E+06 5.07242
2.41302E+06 5.07106
2.51231E+06 4.97751
2.55111E+06 4.94240
2.55111E+06 4.94240
2.56816E+06 4.92703
2.67612E+06 4.82378
2.78408E+06 4.73265
2.89204E+06 4.65208
3.00000E+06 4.58074
3.09986E+06 4.51769
3.19971E+06 4.46022
3.29957E+06 4.40777
3.39942E+06 4.35983
3.54957E+06 4.27780
3.69971E+06 4.20609
3.84986E+06 4.14328
4.00000E+06 4.08818
4.06250E+06 4.07253
4.12500E+06 4.05736
4.18750E+06 4.04264
4.25000E+06 4.02835
4.31250E+06 4.01448
4.37500E+06 4.00101
4.43750E+06 3.98791
4.50000E+06 3.97519
4.56250E+06 3.96282
4.62500E+06 3.95078
4.68750E+06 3.93907
4.75000E+06 3.92767
4.81250E+06 3.91657
4.87500E+06 3.90576
4.93750E+06 3.89523
5.00000E+06 3.88496
5.06250E+06 3.88350
5.12500E+06 3.88209
5.18750E+06 3.88073
5.25000E+06 3.87941
5.31250E+06 3.87813
5.37500E+06 3.87689
5.43750E+06 3.87569
5.50000E+06 3.87452
5.56250E+06 3.87339
5.62500E+06 3.87229
5.68750E+06 3.87121
5.75000E+06 3.87017
5.81250E+06 3.86916
5.87500E+06 3.86817
5.93750E+06 3.86721
6.00000E+06 3.86627
6.06250E+06 3.87314
6.12500E+06 3.88004
6.18750E+06 3.88696
6.25000E+06 3.89391
6.31250E+06 3.90087
6.37500E+06 3.90786
6.43750E+06 3.91487
6.50000E+06 3.92189
6.56250E+06 3.92894
6.62500E+06 3.93599
6.68750E+06 3.94307
6.75000E+06 3.95015
6.81250E+06 3.95726
6.87500E+06 3.96437
6.93750E+06 3.97149
7.00000E+06 3.97863
7.02926E+06 3.98442
7.08602E+06 3.99536
7.14277E+06 4.00631
7.19953E+06 4.01728
7.25629E+06 4.02826
7.31304E+06 4.03926
7.36980E+06 4.05027
7.42655E+06 4.06130
7.48331E+06 4.07233
7.54682E+06 4.08423
7.61033E+06 4.09615
7.67383E+06 4.10807
7.73734E+06 4.12001
7.80246E+06 4.13203
7.86757E+06 4.14407
7.93379E+06 4.15615
8.00000E+06 4.16825
8.10734E+06 4.19195
8.21467E+06 4.21563
8.32489E+06 4.23960
8.43511E+06 4.26356
8.48528E+06 4.27437
8.61207E+06 4.30142
8.73885E+06 4.32843
8.86943E+06 4.35582
9.00000E+06 4.38319
9.04494E+06 4.39201
9.08987E+06 4.40083
9.13481E+06 4.40965
9.17975E+06 4.41847
9.22468E+06 4.42729
9.26962E+06 4.43611
9.31455E+06 4.44494
9.35949E+06 4.45376
9.42316E+06 4.46607
9.48683E+06 4.47837
9.52771E+06 4.48620
9.56860E+06 4.49403
9.60948E+06 4.50187
9.65036E+06 4.50970
9.71529E+06 4.52198
9.78022E+06 4.53426
9.84514E+06 4.54653
9.91007E+06 4.55879
9.95504E+06 4.56719
1.00000E+07 4.57562
1.00308E+07 4.57866
1.00880E+07 4.58293
1.01451E+07 4.58736
1.02023E+07 4.59195
1.02595E+07 4.59669
1.03166E+07 4.60159
1.03738E+07 4.60664
1.04309E+07 4.61185
1.04881E+07 4.61720
1.05521E+07 4.62328
1.06161E+07 4.62954
1.06801E+07 4.63598
1.07441E+07 4.64260
1.08080E+07 4.64941
1.08720E+07 4.65639
1.09360E+07 4.66355
1.10000E+07 4.67088
1.10611E+07 4.67521
1.11223E+07 4.67970
1.11834E+07 4.68434
1.12446E+07 4.68913
1.13057E+07 4.69407
1.13668E+07 4.69917
1.14280E+07 4.70441
1.14891E+07 4.70980
1.15530E+07 4.71547
1.16168E+07 4.72131
1.16807E+07 4.72730
1.17446E+07 4.73345
1.18084E+07 4.73975
1.18723E+07 4.74621
1.19361E+07 4.75282
1.20000E+07 4.75958
1.20625E+07 4.75469
1.21250E+07 4.74994
1.21875E+07 4.74532
1.22500E+07 4.74083
1.23125E+07 4.73647
1.23750E+07 4.73224
1.24375E+07 4.72813
1.25000E+07 4.72415
1.25625E+07 4.72030
1.26250E+07 4.71657
1.26875E+07 4.71297
1.27500E+07 4.70949
1.28125E+07 4.70613
1.28750E+07 4.70289
1.29375E+07 4.69978
1.30000E+07 4.69679
1.30625E+07 4.69269
1.31250E+07 4.68865
1.31875E+07 4.68469
1.32500E+07 4.68079
1.33125E+07 4.67696
1.33750E+07 4.67320
1.34375E+07 4.66951
1.35000E+07 4.66589
1.35625E+07 4.66234
1.36250E+07 4.65885
1.36875E+07 4.65544
1.37500E+07 4.65209
1.38125E+07 4.64881
1.38750E+07 4.64560
1.39375E+07 4.64246
1.40000E+07 4.63939
1.40625E+07 4.63032
1.41250E+07 4.62134
1.41875E+07 4.61246
1.42500E+07 4.60367
1.43125E+07 4.59498
1.43750E+07 4.58639
1.44375E+07 4.57789
1.45000E+07 4.56951
1.45625E+07 4.56089
1.46250E+07 4.55236
1.46875E+07 4.54391
1.47500E+07 4.53554
1.48125E+07 4.52726
1.48750E+07 4.51907
1.49375E+07 4.51098
1.50000E+07 4.50299
1.51250E+07 4.48159
1.52500E+07 4.46058
1.53750E+07 4.43995
1.55000E+07 4.41971
1.56250E+07 4.39986
1.57500E+07 4.38042
1.58750E+07 4.36140
1.60000E+07 4.34280
1.61491E+07 4.31538
1.63618E+07 4.27614
1.65746E+07 4.23827
1.67873E+07 4.20178
1.70000E+07 4.16666
1.72535E+07 4.12476
1.72673E+07 4.12251
1.76337E+07 4.06309
1.80000E+07 4.00715
1.85000E+07 3.92022
1.90000E+07 3.84070
2.00000E+07 3.68919