Sb-121(n,tot) ENDF/B-VII.1
Energy(eV) XS(b)
1.00000E-05 292.413
1.25000E-05 261.968
1.50000E-05 239.494
2.00000E-05 207.947
2.75000E-05 177.931
3.50000E-05 158.177
4.25000E-05 143.916
5.00000E-05 132.999
6.25000E-05 119.383
7.50000E-05 109.333
0.000100000 95.2249
0.000125000 85.5974
0.000150000 78.4907
0.000200000 68.5153
0.000275000 59.0239
0.000350000 52.7775
0.000425000 48.2682
0.000500000 44.8161
0.000625000 40.5111
0.000750000 37.3333
0.00100000 32.8729
0.00125000 29.8292
0.00150000 27.5826
0.00200000 24.4293
0.00275000 21.4295
0.00350000 19.4555
0.00425000 18.0308
0.00500000 16.9403
0.00625000 15.5806
0.00750000 14.5772
0.0100000 13.1694
0.0125000 12.2093
0.0150000 11.5010
0.0200000 10.5076
0.0253000 9.79641
0.0314750 9.20735
0.0376500 8.77059
0.0500000 8.15549
0.0625000 7.73065
0.0750000 7.41797
0.100000 6.98097
0.125000 6.68455
0.150000 6.46709
0.200000 6.16460
0.275000 5.88138
0.350000 5.69892
0.500000 5.47422
0.750000 5.27862
1.00000 5.17764
1.50000 5.09727
2.00000 5.10601
2.75000 5.25741
3.50000 5.66544
3.87500 6.06381
4.25000 6.73207
4.62500 7.94935
5.00000 10.4802
5.14939 12.3026
5.29878 15.0741
5.44816 19.5772
5.59755 27.5991
5.67224 34.1868
5.74694 43.9827
5.82163 59.4417
5.89633 85.8831
5.97102 136.623
6.00837 181.436
6.04571 252.834
6.08306 376.003
6.10173 473.490
6.12041 612.622
6.13908 818.873
6.15775 1137.49
6.17643 1648.79
6.19510 2477.84
6.21755 3967.58
6.24000 4965.28
6.26245 3978.67
6.28490 2491.92
6.29941 1814.61
6.31393 1347.67
6.34295 802.543
6.37197 523.499
6.40100 366.194
6.43002 270.023
6.45905 207.340
6.51709 133.670
6.57514 93.8399
6.63319 69.9546
6.69124 54.5271
6.74929 43.9929
6.86539 30.9392
6.98148 23.4620
7.09758 18.7814
7.21368 15.6565
7.44587 11.8695
7.67806 9.74601
7.91026 8.43523
8.14245 7.56902
8.60684 6.53200
9.07123 5.96235
10.0000 5.41710
10.6677 5.26739
11.3354 5.25507
12.0031 5.40209
12.6708 5.82828
13.0046 6.24645
13.3384 6.93223
13.6723 8.12042
14.0061 10.3703
14.1731 12.3036
14.3400 15.2839
14.5069 20.1907
14.6738 29.0478
14.7573 36.3902
14.8407 47.3839
14.9242 64.8595
15.0077 94.9896
15.0494 118.919
15.0911 153.348
15.1329 205.298
15.1746 288.651
15.2163 433.748
15.2372 549.575
15.2580 716.047
15.2789 965.249
15.2998 1354.68
15.3206 1989.62
15.3415 3037.57
15.3658 4876.05
15.3900 6117.81
15.4143 4917.53
15.4385 3089.93
15.4563 2162.15
15.4741 1553.97
15.4920 1154.67
15.5098 885.381
15.5454 563.024
15.5811 387.995
15.6167 283.511
15.6523 216.515
15.7236 138.948
15.7949 97.5339
15.8662 72.8692
15.9374 56.9930
16.0087 46.1675
16.1512 32.7491
16.2938 25.0421
16.4363 20.1959
16.5789 16.9426
16.8640 12.9635
17.1491 10.7001
17.4342 9.28084
17.7193 8.32671
18.2894 7.15233
18.8596 6.47483
19.4298 6.04238
20.0000 5.74580
21.1944 5.35614
22.3888 5.12646
23.5832 4.97951
24.7777 4.89052
25.9721 4.87571
26.5693 4.92754
27.1665 5.07967
27.4651 5.23521
27.7637 5.49801
28.0623 5.96604
28.3609 6.87459
28.5102 7.66778
28.6595 8.90312
28.8088 10.9566
28.9581 14.6956
29.0328 17.8124
29.1074 22.4953
29.1821 29.9613
29.2567 42.8625
29.3314 67.8744
29.3687 90.1310
29.4060 125.772
29.4433 187.623
29.4620 236.773
29.4807 307.150
29.4993 411.907
29.5180 574.316
29.5366 836.144
29.5553 1263.00
29.5777 2032.15
29.6000 2556.55
29.6224 2059.71
29.6447 1297.50
29.6607 917.354
29.6768 665.427
29.6928 498.409
29.7089 384.935
29.7409 247.867
29.7730 172.753
29.8051 127.636
29.8371 98.5607
29.9013 64.7067
29.9654 46.5202
30.0296 35.6317
30.0937 28.5918
30.1578 23.7721
30.2861 17.7665
30.4144 14.2932
30.5427 12.0949
30.6710 10.6100
30.9275 8.77863
31.1841 7.72500
31.4406 7.05704
31.6972 6.60320
32.2103 6.03628
32.7235 5.70250
33.2366 5.48516
33.7497 5.33317
34.7760 5.13502
35.8022 5.01172
36.8285 4.93327
37.0850 4.92379
37.3416 4.92959
37.4699 4.95055
37.5981 5.01505
37.6623 5.09636
37.6944 5.16797
37.7264 5.28051
37.7585 5.46963
37.7906 5.81684
37.8066 6.10513
37.8226 6.52905
37.8387 7.16840
37.8547 8.13156
37.8774 10.0999
37.9000 11.4144
37.9227 10.1006
37.9453 8.13047
37.9689 6.83137
37.9924 6.12007
38.0159 5.71651
38.0395 5.47254
38.0866 5.20949
38.1337 5.07950
38.1808 5.00588
38.2278 4.95989
38.3220 4.90690
38.5104 4.85875
38.6987 4.83486
39.4521 4.78653
40.9590 4.72773
43.9727 4.64316
46.9863 4.57673
48.4932 4.54859
49.2466 4.53751
50.0000 4.53181
50.8737 4.54444
51.3106 4.57207
51.7474 4.63866
51.9658 4.70327
52.1843 4.81018
52.4027 4.99780
52.6211 5.35727
52.7303 5.66805
52.8395 6.14799
52.9487 6.93719
53.0580 8.35262
53.1672 11.2371
53.2218 13.9295
53.2764 18.4539
53.3310 26.8618
53.3583 34.0138
53.3856 44.9505
53.4129 62.7177
53.4402 93.7929
53.4675 153.037
53.4812 202.533
53.4948 272.894
53.5061 349.664
53.5174 437.983
53.5400 551.431
53.5626 446.119
53.5852 283.067
53.6066 181.724
53.6280 122.831
53.6494 87.8669
53.6708 66.0137
53.7136 41.7337
53.7564 29.4324
53.7992 22.3949
53.8420 18.0049
53.9276 13.0423
54.0132 10.4438
54.0988 8.91162
54.1844 7.93126
54.2700 7.26652
54.4411 6.45744
54.6123 6.04505
54.6979 5.96477
54.7835 6.03760
54.8263 6.20836
54.8691 6.61300
54.8905 7.00356
54.9119 7.64798
54.9333 8.75673
54.9547 10.6925
54.9774 13.8592
55.0000 15.9657
55.0227 13.8198
55.0453 10.6109
55.0636 8.85677
55.0819 7.75389
55.1003 7.05308
55.1186 6.59069
55.1552 6.04407
55.1918 5.74540
55.2651 5.43859
55.3384 5.28226
55.4849 5.11554
55.6314 5.01935
55.9244 4.90013
56.2175 4.82329
56.8036 4.72483
57.3897 4.66224
58.5618 4.58344
59.7340 4.53238
60.9062 4.49530
61.4923 4.48182
62.0784 4.47467
62.6644 4.48348
62.9575 4.50349
63.2505 4.55047
63.5436 4.66687
63.6901 4.79004
63.8366 5.01910
63.9831 5.50373
64.0564 5.97024
64.1297 6.77713
64.2029 8.33709
64.2396 9.71739
64.2762 11.9124
64.3128 15.6757
64.3494 22.8074
64.3678 28.9231
64.3861 38.1984
64.4044 52.7372
64.4227 75.6383
64.4464 119.568
64.4700 149.846
64.4937 121.926
64.5173 78.5847
64.5353 55.8742
64.5532 41.1630
64.5712 31.6030
64.5892 25.2081
64.6251 17.6039
64.6610 13.4965
64.6970 11.0499
64.7329 9.48159
64.8048 7.66200
64.8766 6.68563
64.9485 6.10030
65.0922 5.45957
65.2360 5.13173
65.3797 4.93951
65.6671 4.73067
65.9546 4.62214
66.2421 4.55614
66.8170 4.47871
67.9668 4.40050
69.1167 4.35907
69.6916 4.34978
70.2665 4.35400
70.8414 4.38555
71.4163 4.48126
71.7038 4.58218
71.9913 4.75651
72.2787 5.07338
72.5662 5.69944
72.7099 6.25151
72.8536 7.11591
72.9974 8.55718
73.1411 11.1806
73.2848 16.6179
73.3567 21.7677
73.4286 30.5386
73.5004 47.1343
73.5364 61.4993
73.5723 83.8396
73.6082 120.954
73.6441 188.038
73.6621 242.876
73.6801 322.319
73.6980 439.906
73.7160 613.452
73.7430 989.976
73.7700 1250.22
73.7970 1012.15
73.8240 641.191
73.8547 377.033
73.8854 238.862
73.9161 163.183
73.9468 118.488
73.9775 90.2133
74.0082 71.3101
74.0696 48.4694
74.1310 35.7472
74.1924 27.9430
74.3151 19.2399
74.4379 14.7285
74.5607 12.0767
74.6835 10.3775
74.8063 9.21795
75.0518 7.77119
75.2974 6.92757
75.5430 6.38678
75.7885 6.01583
76.2797 5.54680
76.7708 5.26626
77.2619 5.08071
77.7531 4.94872
78.7353 4.77137
79.7176 4.65404
81.6821 4.49547
83.6466 4.37847
84.6289 4.33027
85.6112 4.29809
86.1023 4.29708
86.5934 4.31941
87.0846 4.39085
87.5757 4.57637
87.8213 4.76142
88.0668 5.07110
88.3124 5.61731
88.5579 6.66309
88.8035 8.94793
88.9263 11.2105
89.0491 15.2399
89.1719 23.3901
89.2333 30.9608
89.2946 43.6521
89.3560 67.2029
89.3867 87.2520
89.4174 117.948
89.4481 167.962
89.4788 255.898
89.4942 325.937
89.5095 425.109
89.5249 567.769
89.5402 771.936
89.5651 1243.18
89.5900 1566.74
89.6149 1265.23
89.6398 799.840
89.6580 563.961
89.6762 408.876
89.6944 306.823
89.7126 237.941
89.7490 155.489
89.7855 110.995
89.8219 84.9169
89.8583 68.8619
89.9311 52.9825
90.0039 50.8199
90.0403 54.9967
90.0768 64.6307
90.1132 83.8949
90.1496 123.064
90.1678 157.518
90.1860 210.282
90.2042 293.431
90.2133 351.839
90.2224 424.754
90.2343 543.767
90.2462 681.645
90.2700 863.198
90.2819 820.402
90.2938 705.545
90.3176 453.649
90.3448 272.160
90.3719 176.654
90.3990 123.962
90.4262 92.5713
90.4533 72.5239
90.4805 58.9789
90.5347 42.3373
90.5890 32.8207
90.6433 26.8153
90.7519 19.8308
90.8605 15.9856
90.9690 13.5905
91.1862 10.8102
91.4033 9.27292
91.6204 8.32451
91.8376 7.76869
91.9461 7.78486
92.0004 8.16425
92.0276 8.70127
92.0547 9.82990
92.1000 12.4483
92.1453 9.66889
92.1760 8.33464
92.2067 7.69544
92.2680 7.14388
92.3908 6.73881
92.6362 6.37340
93.1271 5.95291
93.6181 5.68204
94.1090 5.48922
95.0908 5.23135
96.0727 5.06528
98.0363 4.85881
100.000 4.72868
102.664 4.60240
105.328 4.49933
106.659 4.45129
107.991 4.40839
108.657 4.39592
109.323 4.40947
109.656 4.44620
109.989 4.54319
110.156 4.64711
110.322 4.84705
110.405 5.03183
110.489 5.36742
110.530 5.67179
110.572 6.20686
110.613 7.34059
110.634 8.45169
110.655 10.3034
110.678 13.3156
110.700 15.3536
110.745 10.7397
110.779 8.45351
110.814 7.66821
110.882 7.65747
110.951 8.61630
111.019 10.6081
111.088 14.6101
111.122 18.1748
111.156 23.8092
111.190 33.4209
111.225 51.3098
111.242 66.4873
111.259 89.0174
111.276 123.542
111.293 176.594
111.305 226.672
111.317 284.009
111.340 358.954
111.364 291.747
111.387 186.253
111.402 138.474
111.417 105.105
111.447 65.6239
111.476 45.0065
111.506 33.2003
111.536 25.8876
111.565 21.0663
111.625 15.3176
111.684 12.1512
111.744 10.2195
111.862 8.07170
111.981 6.95689
112.100 6.29951
112.219 5.87562
112.338 5.58415
112.575 5.21558
112.813 4.99603
113.288 4.74955
113.764 4.61392
114.239 4.52581
115.189 4.41090
117.090 4.26298
118.992 4.13836
120.893 4.00924
121.843 3.94493
122.794 3.89637
123.269 3.89226
123.744 3.92292
124.220 4.03093
124.695 4.32670
124.933 4.63160
125.170 5.15383
125.408 6.09832
125.646 7.95415
125.764 9.58496
125.883 12.1255
126.002 16.3358
126.121 23.9296
126.180 30.1800
126.240 39.4364
126.299 53.8830
126.358 78.0488
126.388 96.6285
126.418 122.512
126.448 159.901
126.477 216.351
126.507 306.333
126.537 459.471
126.566 739.503
126.581 965.271
126.596 1274.24
126.623 2063.39
126.650 2612.69
126.677 2120.81
126.704 1346.14
126.724 949.672
126.744 688.086
126.763 515.390
126.783 398.352
126.823 257.379
126.862 180.202
126.902 133.804
126.942 103.842
127.021 68.8464
127.100 49.8889
127.179 38.4672
127.258 31.0150
127.337 25.8793
127.496 19.4035
127.654 15.5998
127.812 13.1559
127.971 11.4808
128.287 9.37314
128.604 8.12958
128.920 7.32512
129.237 6.77416
129.870 6.13117
130.187 6.00458
130.504 6.07536
130.820 6.59180
130.979 7.26027
131.137 8.60567
131.295 11.6136
131.374 14.6011
131.453 19.8627
131.533 30.2417
131.572 39.5536
131.612 54.4727
131.651 80.4102
131.671 100.972
131.691 130.294
131.711 173.620
131.731 240.144
131.750 345.883
131.770 514.366
131.795 836.677
131.820 1064.73
131.833 1010.35
131.845 865.639
131.870 550.460
131.888 390.507
131.906 285.248
131.925 215.136
131.943 167.739
131.979 110.241
132.015 78.6855
132.051 59.5764
132.088 47.1957
132.160 32.6750
132.233 24.7626
132.305 19.9693
132.450 14.6445
132.596 11.8728
132.741 10.2243
132.886 9.15092
133.031 8.40505
133.321 7.44510
133.611 6.85880
134.191 6.17855
134.772 5.79000
135.352 5.53215
136.513 5.19573
137.673 4.96930
138.834 4.79302
139.994 4.64700
140.575 4.59146
140.865 4.58694
141.010 4.63549
141.083 4.75589
141.119 4.93240
141.155 5.37091
141.200 6.19264
141.245 5.36680
141.267 5.04752
141.290 4.86791
141.334 4.69887
141.424 4.59305
141.603 4.54879
141.960 4.56094
142.318 4.65152
142.675 4.89770
142.854 5.14515
143.033 5.56012
143.211 6.29383
143.390 7.69913
143.479 8.90851
143.569 10.7622
143.658 13.7724
143.748 19.0537
143.837 29.4530
143.882 38.7870
143.926 53.8137
143.971 79.9750
143.993 100.849
144.016 130.596
144.038 174.985
144.060 243.309
144.083 352.795
144.105 530.056
144.133 860.679
144.160 1093.12
144.188 887.582
144.215 563.626
144.236 391.529
144.257 281.032
144.279 209.105
144.300 161.293
144.342 104.372
144.384 73.6280
144.427 55.2956
144.469 43.5178
144.553 29.8065
144.638 22.4111
144.723 17.9531
144.892 13.0404
145.061 10.5018
145.230 9.00387
145.568 7.36758
145.907 6.52155
146.245 6.02176
146.922 5.51627
147.260 5.43031
147.598 5.47070
147.937 5.71646
148.275 6.38697
148.444 7.05169
148.613 8.15186
148.782 10.0698
148.951 13.6860
149.121 21.4205
149.205 28.8925
149.290 41.7800
149.332 51.9799
149.374 66.5408
149.417 88.2167
149.459 122.232
149.501 179.343
149.522 223.327
149.544 283.950
149.565 370.693
149.586 497.121
149.607 686.250
149.628 969.055
149.659 1574.64
149.690 2001.11
149.721 1629.26
149.752 1037.37
149.781 673.706
149.809 458.839
149.838 328.693
149.866 246.594
149.923 153.922
149.980 106.318
150.037 78.7145
150.094 61.3518
150.209 41.4580
150.323 30.8767
150.437 24.5429
150.551 20.4274
150.665 17.5872
150.893 13.9968
151.121 11.8711
151.350 10.4916
151.578 9.53539
152.034 8.31164
152.491 7.57071
152.947 7.07712
153.403 6.72541
154.316 6.25687
155.229 5.95832
156.142 5.76392
156.370 5.73906
156.598 5.74967
156.712 5.79629
156.827 5.94043
156.884 6.11990
156.941 6.51557
156.969 6.91129
156.998 7.60973
157.026 8.96233
157.041 10.1138
157.055 11.7572
157.077 15.4725
157.100 17.9340
157.123 15.4494
157.145 11.7448
157.171 9.14923
157.196 7.79344
157.222 7.05134
157.247 6.61442
157.298 6.15122
157.349 5.92524
157.400 5.79723
157.451 5.71691
157.553 5.62242
157.756 5.53095
157.960 5.48076
158.367 5.41668
158.775 5.37640
159.182 5.36778
159.386 5.39070
159.589 5.45910
159.793 5.64284
159.895 5.84084
159.997 6.20853
160.099 6.97560
160.149 7.69715
160.200 8.91123
160.251 11.1566
160.277 13.0555
160.302 15.9182
160.328 20.5114
160.353 28.3196
160.379 42.7059
160.404 70.1814
160.427 110.874
160.450 139.224
160.473 114.068
160.496 74.2604
160.521 46.9471
160.546 32.1490
160.571 23.7625
160.595 18.7222
160.620 15.4709
160.645 13.2790
160.694 10.5895
160.744 9.06981
160.793 8.12649
160.892 7.05947
160.991 6.49571
161.090 6.15772
161.288 5.78183
161.486 5.58129
161.684 5.45667
162.080 5.30682
162.872 5.15081
163.664 5.06768
164.060 5.04950
164.456 5.05843
164.852 5.12117
165.248 5.30816
165.446 5.50323
165.644 5.83727
165.842 6.43805
166.040 7.60823
166.139 8.62599
166.238 10.1983
166.337 12.7727
166.436 17.3369
166.535 26.4139
166.585 34.6366
166.634 47.9853
166.684 71.4791
166.708 90.4079
166.733 117.638
166.758 158.706
166.783 222.842
166.807 327.421
166.832 499.984
166.861 806.914
166.890 1021.51
166.920 829.726
166.949 526.777
166.978 331.067
167.008 220.687
167.037 156.355
167.066 116.624
167.096 90.5992
167.125 72.8358
167.184 50.8186
167.242 38.2133
167.301 30.3482
167.418 21.3993
167.536 16.6663
167.653 13.8412
167.770 12.0082
167.887 10.7448
168.122 9.14622
168.356 8.19943
168.591 7.58394
168.826 7.15688
169.295 6.60905
169.764 6.27618
170.233 6.05369
170.702 5.89461
171.640 5.68165
172.578 5.54456
173.517 5.44905
173.986 5.41557
174.220 5.41464
174.279 5.42406
174.338 5.44928
174.396 5.52594
174.425 5.62496
174.455 5.83550
174.477 6.11136
174.500 6.29389
174.523 6.10717
174.545 5.82968
174.575 5.61238
174.605 5.50980
174.665 5.42635
174.724 5.39402
174.784 5.37727
175.023 5.34799
175.500 5.32279
175.739 5.31914
175.977 5.33258
176.097 5.35970
176.157 5.38739
176.216 5.43568
176.276 5.52810
176.306 5.60797
176.335 5.73172
176.365 5.93688
176.395 6.30341
176.425 7.02781
176.440 7.65458
176.455 8.57093
176.477 10.5616
176.500 11.8809
176.523 10.5508
176.545 8.56762
176.561 7.59969
176.577 6.95760
176.593 6.52625
176.609 6.23331
176.640 5.87629
176.672 5.67954
176.704 5.56080
176.736 5.48389
176.799 5.39359
176.862 5.34404
176.926 5.31355
177.052 5.27826
177.306 5.24453
177.559 5.22584
178.573 5.18081
180.600 5.11933
182.627 5.07476
183.134 5.06869
183.641 5.07198
183.894 5.08560
184.021 5.10124
184.148 5.13078
184.275 5.19272
184.338 5.25139
184.401 5.35083
184.465 5.53850
184.496 5.70072
184.528 5.95217
184.560 6.37218
184.591 7.13699
184.607 7.77017
184.623 8.69108
184.639 10.0687
184.655 12.1279
184.677 16.3857
184.700 19.2229
184.723 16.3863
184.745 12.1280
184.760 10.2086
184.774 8.88721
184.803 7.33142
184.832 6.52794
184.861 6.07233
184.890 5.79187
184.918 5.60922
184.976 5.39369
185.034 5.27634
185.091 5.20565
185.207 5.12779
185.322 5.08760
185.437 5.06370
185.668 5.03672
185.898 5.02143
186.129 5.01097
186.590 4.99606
187.513 4.97414
188.435 4.95518
189.357 4.93781
189.818 4.93085
190.280 4.92797
190.510 4.93033
190.741 4.93836
190.971 4.95801
191.202 5.00401
191.317 5.04803
191.432 5.12012
191.548 5.24488
191.663 5.47905
191.778 5.97660
191.836 6.45476
191.894 7.27353
191.951 8.83113
191.980 10.1769
192.009 12.2627
192.038 15.7039
192.067 21.8445
192.095 33.8635
192.110 44.1457
192.124 59.0458
192.147 93.3045
192.170 117.436
192.193 96.5638
192.216 63.3153
192.231 47.4812
192.246 36.6549
192.277 24.0244
192.307 17.5456
192.338 13.8746
192.368 11.6148
192.398 10.1300
192.459 8.36329
192.520 7.38899
192.581 6.79468
192.703 6.13093
192.824 5.78382
192.946 5.57747
193.067 5.44333
193.189 5.35037
193.432 5.23157
193.676 5.15984
193.919 5.11211
194.162 5.07809
194.649 5.03251
195.135 5.00285
196.108 4.96492
197.081 4.93997
198.054 4.92108
199.027 4.90592
199.514 4.90041
199.757 4.89987
200.000 4.90886
200.127 4.94093
200.191 5.00669
200.223 5.09379
200.255 5.28875
200.277 5.53013
200.300 5.69020
200.323 5.52847
200.345 5.28764
200.372 5.11491
200.398 5.02691
200.451 4.95148
200.556 4.90800
200.767 4.88844
201.188 4.87775
202.030 4.86605
203.715 4.84634
207.085 4.80851
208.770 4.78831
209.612 4.77745
210.454 4.76606
211.297 4.75507
211.718 4.75115
212.139 4.75136
212.560 4.76496
212.771 4.78617
212.982 4.83333
213.087 4.87743
213.192 4.94870
213.297 5.07057
213.403 5.29661
213.508 5.77033
213.561 6.22014
213.613 6.98126
213.666 8.40579
213.692 9.61648
213.719 11.4631
213.745 14.4582
213.771 19.6245
213.798 29.2846
213.824 48.2827
213.847 75.9028
213.870 95.3974
213.893 78.5914
213.916 51.7989
213.933 38.1414
213.949 29.1092
213.966 23.0935
213.983 18.9861
214.016 13.9962
214.049 11.2383
214.082 9.56783
214.115 8.48228
214.182 7.20364
214.248 6.50559
214.315 6.08104
214.447 5.60855
214.580 5.36194
214.713 5.21504
214.846 5.11931
214.979 5.05272
215.244 4.96703
215.510 4.91462
216.041 4.85345
216.572 4.81780
217.104 4.79339
218.166 4.76037
218.697 4.74920
219.229 4.74255
219.760 4.74434
220.291 4.76592
220.557 4.79336
220.822 4.84410
221.088 4.94039
221.354 5.13567
221.486 5.30956
221.619 5.58223
221.752 6.03511
221.885 6.84961
222.018 8.49469
222.084 10.0037
222.150 12.4805
222.217 16.9015
222.283 25.7640
222.316 33.7899
222.350 46.6317
222.383 68.1700
222.416 105.005
222.435 134.549
222.453 168.873
222.490 214.434
222.527 175.644
222.564 113.451
222.588 84.8212
222.612 64.8894
222.659 41.3388
222.707 29.0981
222.754 22.1016
222.802 17.7685
222.850 14.9091
222.945 11.4944
223.040 9.60292
223.135 8.44357
223.325 7.14599
223.516 6.46587
223.706 6.06092
223.896 5.79762
224.087 5.61523
224.467 5.38260
224.848 5.24276
225.229 5.15038
225.609 5.08516
226.371 4.99946
227.132 4.94686
227.513 4.92956
227.893 4.92170
228.084 4.92691
228.274 4.95367
228.369 4.99249
228.417 5.02901
228.464 5.08965
228.512 5.19996
228.560 5.42767
228.583 5.64123
228.607 5.99686
228.631 6.62856
228.655 7.78406
228.677 9.53306
228.700 10.6927
228.723 9.52428
228.745 7.78264
228.771 6.54683
228.797 5.91188
228.823 5.56745
228.849 5.36561
228.901 5.15437
228.953 5.05365
229.005 4.99820
229.056 4.96482
229.160 4.92912
229.368 4.90736
229.575 4.91841
229.782 4.97352
229.886 5.03803
229.990 5.16126
230.093 5.42342
230.145 5.67380
230.197 6.09843
230.249 6.89412
230.275 7.57048
230.301 8.60175
230.327 10.2648
230.353 13.1365
230.378 18.4893
230.404 28.9675
230.427 44.2595
230.450 55.0580
230.473 45.7990
230.496 30.9798
230.519 21.2296
230.542 15.6931
230.564 12.4646
230.587 10.4701
230.610 9.16688
230.633 8.27336
230.679 7.16679
230.725 6.53136
230.770 6.13334
230.862 5.67963
230.954 5.43785
231.045 5.29263
231.228 5.13136
231.411 5.04639
231.594 4.99479
231.961 4.93558
232.327 4.90227
232.693 4.88043
233.425 4.85243
234.158 4.83432
234.890 4.82160
235.622 4.81619
235.806 4.81928
235.989 4.83142
236.080 4.84829
236.172 4.88987
236.218 4.93660
236.263 5.03176
236.286 5.12012
236.309 5.26545
236.332 5.51920
236.355 5.97299
236.377 6.67983
236.400 7.14859
236.423 6.67607
236.445 5.97203
236.463 5.59109
236.482 5.35139
236.518 5.09968
236.554 4.98354
236.590 4.92221
236.662 4.86305
236.735 4.83651
236.879 4.81343
237.024 4.80337
237.314 4.79376
237.603 4.78837
238.760 4.77517
241.075 4.75691
242.232 4.75000
243.390 4.74603
243.969 4.74737
244.547 4.75744
244.837 4.77384
244.981 4.79050
245.126 4.82055
245.271 4.88220
245.343 4.94035
245.415 5.03936
245.488 5.22853
245.524 5.39464
245.560 5.65681
245.596 6.10617
245.632 6.95495
245.650 7.68613
245.669 8.80058
245.687 10.5579
245.705 13.3293
245.727 18.4952
245.750 21.9413
245.773 18.4953
245.795 13.3293
245.818 10.0196
245.841 8.17288
245.863 7.10271
245.886 6.45122
245.909 6.02780
245.931 5.74156
245.977 5.39037
246.022 5.19304
246.067 5.07171
246.158 4.93683
246.248 4.86766
246.339 4.82759
246.520 4.78550
246.701 4.76523
246.883 4.75434
247.245 4.74580
247.607 4.74931
247.789 4.75746
247.970 4.77459
248.151 4.81255
248.242 4.84966
248.332 4.91451
248.423 5.04200
248.468 5.15714
248.513 5.34473
248.559 5.67904
248.581 5.95316
248.604 6.35522
248.627 6.97970
248.649 7.99662
248.672 9.76808
248.695 12.9148
248.717 17.8435
248.740 21.1325
248.763 17.8454
248.785 12.9169
248.810 9.53978
248.835 7.75540
248.860 6.76423
248.885 6.17814
248.910 5.80526
248.935 5.55694
248.984 5.25693
249.034 5.09078
249.084 4.98952
249.183 4.87783
249.282 4.82067
249.382 4.78747
249.580 4.75210
249.779 4.73426
249.978 4.72374
250.375 4.71183
251.170 4.70015
251.965 4.69312
253.555 4.68259
255.145 4.67353
256.735 4.66513
258.325 4.65768
259.120 4.65506
259.915 4.65548
260.312 4.65975
260.710 4.67510
260.909 4.69714
261.008 4.71868
261.107 4.75644
261.207 4.83138
261.256 4.89972
261.306 5.01197
261.356 5.21548
261.381 5.38503
261.405 5.63783
261.430 6.03894
261.455 6.71253
261.480 7.93030
261.505 10.2247
261.527 13.5824
261.550 15.8071
261.573 13.5668
261.595 10.2248
261.611 8.59346
261.627 7.50595
261.643 6.78118
261.659 6.28920
261.691 5.69030
261.722 5.36111
261.754 5.16277
261.786 5.03553
261.849 4.88770
261.913 4.80852
261.976 4.76142
262.103 4.71041
262.230 4.68471
262.357 4.66987
262.610 4.65404
263.118 4.64131
263.625 4.63664
264.133 4.63668
264.640 4.64622
264.894 4.66255
265.021 4.67923
265.147 4.70926
265.274 4.77052
265.338 4.82775
265.401 4.92433
265.465 5.10601
265.496 5.26258
265.528 5.50598
265.560 5.91134
265.591 6.64939
265.607 7.26055
265.623 8.14973
265.639 9.49095
265.655 11.4872
265.677 15.6164
265.700 18.3516
265.723 15.5980
265.745 11.4882
265.762 9.43038
265.778 8.07614
265.795 7.18388
265.811 6.58364
265.844 5.85846
265.876 5.46515
265.909 5.22963
265.942 5.07914
266.007 4.90498
266.073 4.81204
266.138 4.75686
266.269 4.69715
266.400 4.66707
266.531 4.64969
266.793 4.63105
267.316 4.61565
267.840 4.60933
268.364 4.60773
268.887 4.61478
269.149 4.62864
269.280 4.64318
269.411 4.66968
269.542 4.72418
269.607 4.77544
269.673 4.86218
269.738 5.02608
269.771 5.16794
269.804 5.38943
269.837 5.76201
269.869 6.44515
269.886 7.01616
269.902 7.85463
269.918 9.13361
269.935 11.0626
269.957 14.9571
269.980 17.5566
270.003 14.9579
270.025 11.0634
270.044 8.90219
270.063 7.57146
270.082 6.73483
270.100 6.19465
270.138 5.57090
270.175 5.24498
270.213 5.05543
270.250 4.93609
270.325 4.80033
270.400 4.72905
270.475 4.68699
270.625 4.64168
270.775 4.61874
270.925 4.60526
271.225 4.59027
271.825 4.57636
272.425 4.56907
273.025 4.56538
273.625 4.56899
273.925 4.57992
274.075 4.59221
274.225 4.61533
274.375 4.66412
274.450 4.71076
274.525 4.79095
274.600 4.94516
274.637 5.08137
274.675 5.29822
274.712 5.67174
274.750 6.38749
274.769 7.01174
274.787 7.96844
274.806 9.49643
274.825 11.9598
274.847 16.4122
274.870 19.3796
274.893 16.4124
274.915 11.9596
274.931 9.87333
274.946 8.46304
274.976 6.83963
275.006 6.01847
275.036 5.56176
275.067 5.28350
275.097 5.10359
275.157 4.89286
275.218 4.77903
275.278 4.71078
275.399 4.63631
275.520 4.59826
275.641 4.57591
275.883 4.55113
276.367 4.52829
276.850 4.51536
277.818 4.49568
278.785 4.47672
279.753 4.45620
280.720 4.43390
281.687 4.41581
281.929 4.41762
282.171 4.43428
282.292 4.46113
282.413 4.53281
282.473 4.61880
282.534 4.80772
282.564 4.99824
282.594 5.33964
282.625 6.01817
282.640 6.60869
282.655 7.47627
282.677 9.33933
282.700 10.5735
282.723 9.32998
282.745 7.47467
282.773 6.11476
282.800 5.43562
282.827 5.07477
282.854 4.86618
282.908 4.65061
282.962 4.54830
283.071 4.45771
283.179 4.41965
283.613 4.37908
284.046 4.38968
284.480 4.45659
284.697 4.53501
284.914 4.67627
285.130 4.94059
285.347 5.47231
285.456 5.94433
285.564 6.68184
285.673 7.90245
285.781 10.0869
285.889 14.4637
285.944 18.4433
285.998 24.9119
286.052 36.2919
286.079 45.4225
286.106 58.5783
286.133 78.2633
286.160 108.962
286.187 158.710
286.215 240.274
286.247 390.846
286.280 498.244
286.296 474.376
286.313 408.202
286.346 262.575
286.374 176.175
286.403 123.344
286.431 90.6494
286.460 69.6130
286.517 45.3896
286.574 32.6811
286.631 25.2270
286.688 20.4833
286.802 14.9962
286.917 12.0441
287.031 10.2614
287.145 9.09474
287.259 8.28484
287.488 7.25386
287.716 6.63882
287.944 6.23745
288.173 5.95814
288.630 5.59954
289.087 5.38218
289.543 5.23770
290.000 5.13526
290.914 5.00038
291.827 4.91682
292.284 4.88755
292.741 4.86811
292.970 4.86634
293.198 4.88247
293.312 4.91190
293.426 4.99214
293.483 5.08822
293.541 5.29749
293.569 5.50526
293.598 5.87091
293.626 6.58106
293.641 7.18359
293.655 8.04309
293.677 9.98506
293.700 11.2713
293.723 9.97463
293.745 8.04005
293.771 6.66565
293.797 5.95677
293.823 5.57263
293.849 5.34754
293.901 5.11187
293.953 4.99846
294.057 4.89627
294.161 4.85180
294.369 4.81202
294.577 4.79262
294.993 4.77009
295.409 4.75458
297.073 4.71096
298.736 4.67866
300.400 4.65158
302.064 4.62708
303.727 4.60361
304.559 4.59241
305.391 4.58380
305.807 4.58373
306.223 4.59616
306.431 4.61882
306.535 4.64224
306.639 4.68433
306.743 4.76935
306.795 4.84767
306.847 4.97757
306.899 5.21480
306.925 5.41355
306.951 5.71337
306.977 6.19200
307.003 7.01083
307.029 8.52431
307.055 11.4452
307.077 15.5873
307.100 18.3299
307.123 15.5682
307.145 11.4454
307.161 9.46275
307.176 8.13714
307.192 7.24039
307.208 6.62830
307.239 5.87880
307.270 5.46556
307.301 5.21537
307.332 5.05440
307.394 4.86687
307.456 4.76674
307.518 4.70778
307.642 4.64624
307.891 4.61022
308.139 4.62976
308.264 4.66348
308.388 4.72552
308.512 4.83990
308.636 5.06308
308.761 5.55202
308.823 6.02986
308.885 6.86068
308.947 8.46262
308.978 9.86965
309.009 12.0692
309.040 15.7651
309.071 22.4740
309.102 36.0438
309.118 47.9427
309.133 65.5686
309.157 104.490
309.180 132.178
309.204 108.893
309.227 71.2916
309.249 47.9396
309.270 34.1213
309.292 25.7238
309.314 20.4215
309.357 14.4151
309.400 11.3184
309.443 9.51423
309.487 8.37340
309.573 7.06218
309.660 6.35884
309.746 5.93540
309.833 5.65813
309.919 5.46580
310.092 5.22041
310.266 5.07349
310.439 4.97712
310.612 4.90964
310.958 4.82206
311.304 4.76796
311.996 4.70443
312.689 4.66757
313.381 4.64272
314.766 4.60957
316.151 4.58697
317.535 4.57103
318.228 4.56710
318.920 4.57246
319.266 4.58719
319.439 4.60361
319.612 4.63450
319.785 4.69998
319.872 4.76306
319.959 4.87237
320.045 5.08602
320.088 5.27793
320.132 5.58805
320.175 6.13745
320.218 7.23147
320.240 8.22984
320.261 9.83193
320.283 12.5509
320.305 17.2712
320.327 24.9070
320.350 29.9942
320.373 24.9084
320.395 17.2725
320.416 12.6841
320.437 9.99632
320.458 8.38254
320.478 7.36644
320.520 6.22954
320.561 5.65387
320.603 5.32433
320.644 5.11993
320.727 4.89001
320.810 4.77044
320.893 4.70040
321.058 4.62542
321.224 4.58764
321.390 4.56552
321.721 4.54081
322.384 4.51726
323.047 4.50322
324.373 4.48100
325.699 4.45909
327.025 4.43450
327.688 4.42070
328.351 4.40619
329.014 4.39351
329.346 4.39124
329.677 4.39863
329.843 4.41095
330.009 4.43568
330.175 4.48511
330.340 4.58872
330.423 4.68264
330.506 4.83135
330.589 5.08034
330.672 5.53036
330.755 6.44459
330.796 7.28400
330.837 8.66208
330.879 11.1276
330.920 16.0479
330.941 20.4865
330.962 27.5561
330.982 39.3346
331.003 59.3032
331.027 94.4258
331.050 119.452
331.074 98.4220
331.097 64.4924
331.111 49.5382
331.125 38.8678
331.154 25.8771
331.182 18.9132
331.210 14.8615
331.239 12.3057
331.267 10.6021
331.324 8.54792
331.381 7.39757
331.437 6.68847
331.551 5.88808
331.664 5.46479
331.778 5.21083
331.891 5.04457
332.005 4.92864
332.232 4.77889
332.459 4.68700
332.912 4.57915
333.366 4.51536
333.820 4.47036
334.728 4.40336
335.182 4.37501
335.636 4.34920
336.090 4.32838
336.543 4.32219
336.770 4.33335
336.997 4.36646
337.224 4.44537
337.451 4.62969
337.565 4.80660
337.678 5.09701
337.792 5.60048
337.905 6.54443
338.019 8.54384
338.075 10.4484
338.132 13.6843
338.189 19.7448
338.217 24.9024
338.245 32.7247
338.274 45.3469
338.302 66.9547
338.316 83.7830
338.331 107.053
338.345 139.577
338.359 184.378
338.384 299.519
338.410 382.272
338.436 313.866
338.461 202.312
338.482 140.043
338.503 100.511
338.523 75.2640
338.544 58.6459
338.585 38.9982
338.627 28.4873
338.668 22.2201
338.709 18.2038
338.792 13.5102
338.875 10.9644
338.957 9.41915
339.040 8.40425
339.123 7.69846
339.288 6.79596
339.453 6.25579
339.619 5.90170
339.784 5.65439
340.115 5.33436
340.446 5.13774
340.776 5.00473
341.107 4.90847
341.769 4.77977
342.099 4.73956
342.430 4.72140
342.761 4.75413
342.926 4.81988
343.091 4.97093
343.174 5.11264
343.257 5.34055
343.340 5.72640
343.422 6.42935
343.505 7.86533
343.546 9.19127
343.588 11.3668
343.629 15.2615
343.670 23.0304
343.691 30.0511
343.712 41.1602
343.732 59.7145
343.753 90.9167
343.765 116.500
343.776 146.263
343.800 186.156
343.824 153.368
343.847 99.7925
343.862 75.9043
343.876 58.9335
343.905 38.3857
343.934 27.4306
343.963 21.0773
343.992 17.0774
344.021 14.4139
344.079 11.2038
344.137 9.40582
344.195 8.29650
344.311 7.04215
344.427 6.37693
344.542 5.97701
344.658 5.71433
344.774 5.53091
345.006 5.29410
345.238 5.14951
345.469 5.05286
345.701 4.98418
346.164 4.89560
346.628 4.85173
346.859 4.85221
346.975 4.86501
347.091 4.89613
347.207 4.96877
347.265 5.03978
347.323 5.16132
347.381 5.39034
347.410 5.58671
347.439 5.88765
347.468 6.38185
347.497 7.25372
347.526 8.95445
347.540 10.4043
347.555 12.4810
347.577 17.1405
347.600 20.2306
347.623 17.1168
347.646 12.4765
347.661 10.2329
347.677 8.73862
347.693 7.73121
347.709 7.04521
347.740 6.20702
347.772 5.74426
347.803 5.46498
347.835 5.28435
347.897 5.07324
347.960 4.95861
348.023 4.88921
348.149 4.81147
348.275 4.76977
348.401 4.74370
348.653 4.71183
349.157 4.67684
349.660 4.65448
350.668 4.62265
351.675 4.59879
352.683 4.57963
353.690 4.56490
354.194 4.56064
354.697 4.56333
354.949 4.57344
355.201 4.60654
355.327 4.65177
355.390 4.69453
355.453 4.76692
355.516 4.90342
355.547 5.02132
355.579 5.20393
355.610 5.50867
355.642 6.06282
355.658 6.52100
355.673 7.18650
355.689 8.18046
355.705 9.66358
355.727 12.7474
355.750 14.7898
355.773 12.7330
355.795 9.66327
355.818 7.69892
355.840 6.59773
355.863 5.95946
355.885 5.56773
355.907 5.31358
355.930 5.14061
355.975 4.92834
356.019 4.80862
356.064 4.73471
356.154 4.65198
356.333 4.58356
356.512 4.55573
356.871 4.53176
357.229 4.52015
357.946 4.50621
358.663 4.49592
361.530 4.46253
362.964 4.44756
364.397 4.43404
365.114 4.42895
365.831 4.42855
366.189 4.43461
366.548 4.45778
366.727 4.49141
366.817 4.52425
366.906 4.58165
366.996 4.69450
367.041 4.79635
367.085 4.96215
367.130 5.25712
367.153 5.49789
367.175 5.85195
367.197 6.39794
367.220 7.28775
367.242 8.82269
367.265 11.5432
367.287 15.8291
367.310 18.6864
367.333 15.8295
367.355 11.5434
367.380 8.61268
367.405 7.05965
367.430 6.19513
367.454 5.68317
367.479 5.35710
367.504 5.13976
367.553 4.87731
367.603 4.73139
367.652 4.64236
367.751 4.54392
367.850 4.49329
367.949 4.46369
368.147 4.43164
368.543 4.40458
368.938 4.39180
369.730 4.37657
370.521 4.36502
373.687 4.32252
376.853 4.27480
380.018 4.21541
383.184 4.13413
384.767 4.07884
386.350 4.00689
387.141 3.96189
387.932 3.90893
388.724 3.84682
389.515 3.77744
389.911 3.74420
390.307 3.71996
390.702 3.72303
391.098 3.80493
391.296 3.91779
391.494 4.13545
391.692 4.56335
391.889 5.45577
391.988 6.26467
392.087 7.54471
392.186 9.68790
392.285 13.5646
392.335 16.7463
392.384 21.4226
392.434 28.6225
392.483 40.3634
392.533 61.1817
392.557 77.9296
392.582 102.140
392.607 138.685
392.631 195.756
392.656 288.759
392.681 442.256
392.710 724.365
392.740 928.495
392.770 762.739
392.799 490.222
392.824 331.472
392.850 233.298
392.875 171.702
392.900 131.532
392.950 84.9004
393.000 60.1827
393.050 45.5572
393.101 36.2211
393.201 25.3567
393.302 19.4680
393.402 15.8976
393.502 13.5508
393.603 11.9153
393.804 9.82270
394.004 8.56798
394.205 7.74481
394.406 7.16988
394.808 6.42764
395.210 5.97494
395.611 5.67237
396.013 5.45669
396.817 5.17021
397.620 4.98814
398.423 4.86123
399.227 4.76667
400.834 4.63174
402.441 4.53473
403.244 4.49369
403.646 4.47477
404.047 4.45787
404.449 4.44691
404.650 4.44800
404.851 4.46139
405.052 4.50833
405.152 4.56409
405.253 4.67311
405.353 4.91048
405.403 5.13963
405.453 5.53171
405.504 6.26821
405.529 6.89599
405.554 7.85251
405.579 9.39074
405.604 12.0313
405.629 16.9021
405.654 26.2943
405.677 40.4138
405.700 50.6655
405.723 42.4293
405.746 28.8129
405.763 21.6879
405.780 16.9785
405.797 13.8648
405.814 11.7504
405.848 9.19430
405.882 7.78592
405.916 6.93301
405.950 6.37791
406.018 5.72211
406.086 5.36062
406.154 5.13898
406.290 4.88826
406.426 4.75404
406.561 4.67189
406.833 4.57695
407.105 4.52307
407.377 4.48743
407.921 4.44070
409.008 4.38400
410.095 4.34432
411.183 4.31198
412.270 4.28634
412.814 4.27925
413.357 4.28668
413.629 4.30933
413.765 4.33475
413.901 4.38243
414.037 4.48241
414.105 4.57739
414.173 4.73914
414.241 5.04686
414.275 5.31526
414.309 5.73535
414.343 6.44664
414.377 7.76921
414.394 8.88366
414.411 10.5488
414.428 13.1082
414.445 17.0247
414.467 24.7302
414.490 29.8384
414.513 24.6944
414.536 17.0241
414.562 11.5828
414.588 8.78613
414.614 7.26901
414.640 6.38006
414.666 5.82196
414.692 5.45115
414.744 5.00695
414.796 4.76178
414.848 4.61302
414.952 4.44865
415.056 4.36398
415.160 4.31418
415.368 4.25940
415.576 4.22991
415.784 4.21088
416.200 4.18573
417.033 4.15200
417.865 4.12366
418.697 4.09604
419.114 4.08236
419.530 4.06966
419.946 4.06133
420.154 4.06260
420.362 4.07447
420.570 4.11560
420.674 4.16461
420.778 4.26070
420.882 4.47086
420.934 4.67463
420.986 5.02483
421.038 5.68670
421.064 6.25434
421.090 7.12446
421.116 8.53523
421.142 10.9851
421.168 15.5799
421.194 24.6409
421.217 37.9261
421.240 47.5598
421.263 39.7871
421.286 26.9660
421.308 18.7323
421.330 13.9548
421.352 11.1066
421.374 9.31741
421.418 7.31312
421.462 6.28416
421.506 5.68642
421.550 5.30922
421.638 4.87378
421.726 4.63850
421.814 4.49540
421.990 4.33370
422.166 4.24626
422.342 4.19160
422.695 4.12578
423.047 4.08557
423.399 4.05663
424.103 4.01356
425.512 3.94770
426.920 3.88796
429.738 3.76269
431.146 3.69579
431.498 3.68146
431.850 3.67490
432.027 3.68211
432.203 3.71663
432.291 3.76664
432.379 3.89124
432.423 4.03091
432.467 4.31371
432.489 4.57303
432.511 4.99425
432.533 5.71658
432.555 6.98621
432.577 9.01500
432.600 10.3589
432.623 9.00326
432.645 6.98140
432.666 5.77055
432.687 5.05551
432.707 4.62538
432.728 4.35398
432.769 4.04960
432.810 3.89375
432.893 3.74670
432.975 3.68048
433.140 3.62005
433.305 3.58998
433.634 3.55337
433.964 3.52543
435.282 3.42218
436.600 3.30840
437.919 3.17788
439.237 3.03370
439.896 2.96622
440.555 2.92551
441.215 2.98557
441.544 3.12949
441.874 3.48299
442.039 3.82703
442.203 4.39408
442.368 5.37851
442.533 7.22709
442.698 11.1457
442.780 14.8944
442.863 21.2987
442.945 33.3862
442.986 43.7821
443.027 59.8032
443.069 86.0259
443.110 132.290
443.130 169.151
443.151 221.311
443.172 296.233
443.192 402.750
443.226 655.272
443.260 834.055
443.294 680.258
443.328 433.983
443.361 276.487
443.394 185.790
443.427 132.137
443.460 98.6527
443.493 76.5608
443.526 61.3896
443.591 42.4749
443.657 31.5819
443.723 24.7530
443.855 16.9487
443.986 12.7907
444.118 10.2948
444.381 7.52891
444.645 6.07628
444.908 5.19804
445.435 4.21449
445.961 3.77404
446.225 3.75666
446.488 4.00210
446.751 4.88521
446.883 5.91572
447.014 7.89518
447.080 9.58394
447.146 12.1318
447.212 16.1786
447.278 23.0559
447.311 28.4194
447.344 35.9279
447.377 46.8567
447.409 63.4897
447.442 90.2367
447.475 136.224
447.492 172.083
447.508 221.390
447.525 290.783
447.541 386.656
447.571 630.617
447.600 804.617
447.630 657.625
447.659 420.391
447.679 307.803
447.698 230.235
447.737 139.783
447.777 93.3980
447.816 67.1588
447.855 50.9439
447.894 40.2807
447.972 27.5828
448.051 20.5572
448.129 16.2537
448.286 11.4215
448.443 8.88742
448.599 7.39306
448.913 5.89825
449.226 5.70077
449.383 6.26107
449.539 7.76360
449.618 9.20525
449.657 10.2198
449.696 11.5093
449.735 13.1750
449.774 15.3516
449.814 18.2440
449.853 22.1561
449.892 27.6095
449.931 35.4323
449.970 47.0911
450.009 65.2596
450.049 95.4886
450.068 118.384
450.088 149.448
450.107 193.018
450.127 255.220
450.146 345.442
450.166 475.059
450.198 784.643
450.230 1012.60
450.262 837.558
450.294 542.459
450.321 373.320
450.347 266.533
450.373 198.174
450.400 153.196
450.452 100.156
450.505 71.6417
450.558 54.6216
450.610 43.6431
450.716 30.7686
450.821 23.7325
450.926 19.4547
451.137 14.7309
451.348 12.3945
451.558 11.2267
451.980 11.0261
452.401 13.9423
452.612 17.6514
452.823 24.7196
453.033 39.3322
453.139 52.7677
453.244 74.6327
453.349 113.034
453.455 187.449
453.507 252.409
453.560 352.325
453.613 511.215
453.665 765.302
453.733 1258.10
453.800 1618.06
453.867 1333.12
453.935 859.439
453.994 576.796
454.052 403.436
454.111 295.519
454.170 225.747
454.287 145.165
454.405 102.646
454.522 77.5655
454.640 61.5138
454.875 42.8022
455.110 32.6123
455.345 26.3870
455.580 22.2651
455.815 19.3707
456.285 15.6218
456.754 13.3322
457.224 11.8024
457.694 10.7127
458.634 9.26517
459.574 8.34141
460.044 7.99179
460.514 7.70387
460.749 7.60043
460.866 7.57611
460.984 7.59712
461.101 7.73140
461.160 7.90070
461.219 8.22649
461.278 8.90023
461.307 9.51103
461.336 10.4811
461.366 12.1287
461.395 15.1306
461.424 21.1751
461.439 26.4489
461.454 34.1469
461.477 52.1250
461.500 65.6896
461.523 55.8930
461.546 38.8414
461.563 30.0277
461.580 24.1116
461.596 20.1211
461.613 17.3654
461.646 13.9684
461.679 12.0542
461.713 10.8699
461.746 10.0884
461.812 9.14155
461.879 8.60131
461.945 8.25742
462.078 7.84467
462.211 7.60135
462.344 7.43590
462.609 7.21248
463.141 6.93288
463.672 6.73599
464.735 6.43639
465.798 6.19593
466.861 5.98298
467.392 5.88163
467.924 5.78447
468.455 5.70445
468.721 5.68859
468.987 5.72471
469.120 5.78800
469.252 5.91531
469.385 6.16843
469.518 6.69314
469.651 7.89899
469.717 9.10992
469.784 11.2507
469.850 15.4480
469.883 19.1574
469.917 25.0085
469.950 34.8566
469.983 52.8654
470.000 67.6877
470.016 89.2669
470.033 121.320
470.049 168.876
470.062 218.115
470.075 275.133
470.100 353.022
470.125 292.079
470.151 190.057
470.176 122.877
470.201 84.3555
470.226 61.6151
470.251 47.4264
470.276 38.0473
470.301 31.6005
470.351 23.5312
470.401 18.8519
470.451 15.8993
470.551 12.4907
470.651 10.6487
470.751 9.52899
470.851 8.78814
470.951 8.26840
471.151 7.59391
471.351 7.18024
471.552 6.90187
471.752 6.70173
472.152 6.43161
472.552 6.25532
473.353 6.03185
474.153 5.88982
474.954 5.79079
475.354 5.75649
475.754 5.74431
475.954 5.76288
476.054 5.78959
476.154 5.84294
476.255 5.95710
476.305 6.06450
476.355 6.24396
476.405 6.57302
476.430 6.84751
476.455 7.25956
476.480 7.91212
476.505 9.01465
476.530 11.0144
476.555 14.7956
476.577 20.2904
476.600 23.9494
476.623 20.2621
476.646 14.7695
476.665 11.6690
476.684 9.76907
476.703 8.59109
476.722 7.83430
476.761 6.96261
476.799 6.50980
476.837 6.24563
476.876 6.07920
476.952 5.88782
477.029 5.78514
477.106 5.72258
477.259 5.65072
477.566 5.58170
477.873 5.54258
478.486 5.48785
479.100 5.44322
479.713 5.40296
480.020 5.38481
480.327 5.37014
480.634 5.36620
480.787 5.37580
480.941 5.40633
481.094 5.49173
481.171 5.58556
481.247 5.76086
481.324 6.12425
481.363 6.46193
481.401 7.01662
481.439 8.00774
481.478 9.96929
481.497 11.7238
481.516 14.4659
481.535 18.9713
481.554 26.3907
481.577 40.1510
481.600 50.1902
481.623 42.2920
481.646 29.1433
481.661 22.9137
481.676 18.5964
481.706 13.4652
481.736 10.7901
481.766 9.25494
481.795 8.29981
481.825 7.66628
481.885 6.90319
481.945 6.47603
482.005 6.21085
482.124 5.90834
482.244 5.74486
482.363 5.64417
482.603 5.52729
482.842 5.46066
483.081 5.41645
483.559 5.35829
484.516 5.28733
485.472 5.23715
487.385 5.15691
489.298 5.08604
491.211 5.01541
492.168 4.97745
493.124 4.93556
494.081 4.88757
494.559 4.86122
495.037 4.83567
495.276 4.82583
495.516 4.82220
495.755 4.83360
495.994 4.88341
496.113 4.94118
496.233 5.04487
496.353 5.23752
496.472 5.61970
496.592 6.46997
496.651 7.30760
496.711 8.76317
496.771 11.5628
496.801 13.9985
496.831 17.7804
496.861 24.0134
496.891 35.0768
496.920 56.4712
496.935 74.4577
496.950 100.207
496.963 128.977
496.975 162.290
497.000 207.808
497.025 172.223
497.050 112.625
497.073 75.8164
497.095 53.6740
497.118 40.1522
497.141 31.5071
497.186 21.6556
497.231 16.5159
497.277 13.5052
497.322 11.5872
497.413 9.36248
497.504 8.15558
497.595 7.42110
497.685 6.93658
497.776 6.59785
497.958 6.16146
498.139 5.89782
498.321 5.72423
498.502 5.60335
498.865 5.45408
499.228 5.39340
499.410 5.41153
499.501 5.44867
499.591 5.52654
499.682 5.69489
499.728 5.85271
499.773 6.11328
499.818 6.58313
499.864 7.53867
499.886 8.42007
499.909 9.86154
499.932 12.3575
499.954 16.7730
499.977 23.7311
500.000 28.3390
500.023 23.6930
500.046 16.7616
500.060 13.7549
500.074 11.6346
500.101 9.08901
500.129 7.74718
500.157 6.97764
500.185 6.49819
500.212 6.18209
500.268 5.80591
500.324 5.59817
500.379 5.47122
500.490 5.32822
500.601 5.25148
500.712 5.20382
500.934 5.14656
501.379 5.08628
501.823 5.04967
502.712 4.99961
503.600 4.96285
504.489 4.93333
505.377 4.91056
505.822 4.90414
506.266 4.90916
506.488 4.92614
506.710 4.98076
506.821 5.05434
506.877 5.12320
506.932 5.23839
506.988 5.45181
507.016 5.63272
507.044 5.90747
507.071 6.35384
507.099 7.12972
507.127 8.61145
507.141 9.84920
507.155 11.5927
507.177 15.6413
507.200 18.3236
507.223 15.6235
507.246 11.5932
507.273 8.65512
507.300 7.18009
507.327 6.39360
507.354 5.93803
507.381 5.65339
507.408 5.46611
507.462 5.24277
507.516 5.11988
507.570 5.04533
507.678 4.96266
507.894 4.89380
508.110 4.86442
508.542 4.83589
508.975 4.81910
509.839 4.79429
510.704 4.77301
514.162 4.69432
517.620 4.61405
521.078 4.52467
524.537 4.41725
527.995 4.27529
529.724 4.18047
530.588 4.12317
531.453 4.05658
532.318 3.97836
532.750 3.93529
533.182 3.89343
533.614 3.86877
533.830 3.88138
534.047 3.94543
534.263 4.15585
534.371 4.40540
534.479 4.89585
534.587 5.97281
534.641 7.01960
534.695 8.82016
534.749 12.2299
534.776 15.1453
534.803 19.6022
534.830 26.7965
534.857 39.2002
534.871 48.8492
534.884 62.2025
534.898 80.8816
534.911 106.855
534.923 137.973
534.936 174.014
534.960 223.295
534.972 213.462
534.985 184.782
535.009 120.308
535.024 91.3032
535.039 70.6546
535.069 45.5964
535.100 32.1964
535.130 24.3809
535.160 19.4661
535.190 16.1827
535.251 12.2029
535.311 9.96464
535.371 8.57309
535.492 6.98710
535.613 6.13650
535.734 5.61800
535.975 5.02787
536.217 4.70321
536.459 4.49585
536.942 4.23732
537.425 4.07127
537.908 3.94690
538.875 3.76811
539.358 3.71788
539.841 3.72076
540.324 3.83894
540.807 4.23820
541.049 4.67302
541.291 5.43223
541.532 6.81330
541.774 9.50791
541.895 11.8368
542.015 15.3959
542.136 21.1173
542.257 30.9581
542.378 49.5498
542.438 65.4662
542.499 89.7967
542.559 129.060
542.619 196.713
542.680 322.029
542.710 423.661
542.740 564.270
542.795 930.009
542.850 1198.93
542.905 989.871
542.960 639.443
543.024 379.624
543.088 243.685
543.152 168.965
543.216 124.581
543.280 96.2846
543.344 77.2505
543.472 53.9854
543.600 40.7968
543.728 32.5730
543.984 23.1822
544.241 18.1532
544.497 15.1063
544.753 13.0978
545.009 11.6908
545.521 9.87161
546.033 8.76199
546.545 8.02116
547.057 7.49411
548.082 6.79602
549.106 6.35601
549.618 6.19495
550.130 6.07127
550.386 6.03382
550.642 6.04600
550.771 6.11046
550.835 6.18307
550.899 6.31518
550.963 6.57527
550.995 6.80466
551.027 7.16520
551.059 7.77063
551.091 8.88005
551.107 9.79887
551.123 11.1478
551.139 13.1752
551.155 16.2206
551.177 22.4827
551.200 26.6309
551.223 22.4456
551.246 16.2040
551.260 13.4054
551.274 11.4718
551.303 9.17817
551.332 7.98865
551.360 7.31293
551.389 6.89413
551.418 6.61853
551.475 6.28983
551.532 6.10650
551.590 5.99242
551.704 5.85874
551.819 5.78139
551.934 5.72859
552.163 5.65502
552.622 5.55341
553.080 5.47171
553.998 5.32703
554.915 5.18904
555.833 5.04795
556.292 4.97742
556.750 4.91717
556.980 4.90074
557.209 4.90841
557.438 4.97013
557.668 5.16303
557.782 5.36832
557.897 5.72242
558.012 6.35966
558.126 7.58864
558.241 10.2456
558.298 12.8066
558.356 17.1676
558.413 25.3331
558.442 32.2562
558.470 42.6973
558.499 59.3871
558.528 87.5337
558.542 109.210
558.556 138.563
558.571 178.890
558.585 233.910
558.613 383.465
558.640 493.453
558.668 408.052
558.695 264.637
558.713 195.476
558.732 147.698
558.769 91.8216
558.805 63.0453
558.842 46.6607
558.879 36.5197
558.916 29.8186
558.989 21.7868
559.063 17.3034
559.137 14.5321
559.284 11.3916
559.431 9.71542
559.578 8.70002
559.725 8.02863
559.872 7.55599
560.166 6.93969
560.461 6.55796
560.755 6.29837
561.049 6.10963
561.638 5.85051
562.226 5.68302
562.521 5.63375
562.668 5.62848
562.815 5.65478
562.962 5.76153
563.036 5.88918
563.109 6.13418
563.183 6.64966
563.220 7.12926
563.256 7.91469
563.293 9.30772
563.330 12.0347
563.348 14.4298
563.367 18.1338
563.385 24.0603
563.403 33.5607
563.427 52.1033
563.450 65.8031
563.473 55.3958
563.497 37.7745
563.513 29.0560
563.529 23.0766
563.545 18.9921
563.561 16.1594
563.593 12.6108
563.625 10.6037
563.657 9.35858
563.688 8.53796
563.752 7.54880
563.816 6.99399
563.880 6.64788
564.008 6.24880
564.136 6.02944
564.264 5.89148
564.519 5.72615
564.775 5.62781
565.030 5.56012
565.541 5.46797
566.564 5.35385
567.586 5.27664
569.631 5.16592
571.675 5.08235
573.720 5.01175
575.765 4.94681
576.787 4.91437
577.810 4.88083
578.321 4.86461
578.832 4.85598
579.087 4.86699
579.215 4.88642
579.343 4.93035
579.471 5.03659
579.535 5.14619
579.599 5.34324
579.663 5.73560
579.695 6.08829
579.726 6.64973
579.758 7.61288
579.790 9.40720
579.806 10.9196
579.822 13.1484
579.838 16.5559
579.854 21.7070
579.877 32.7656
579.900 40.8621
579.923 34.5463
579.946 23.9940
579.973 16.0202
580.001 11.9090
580.028 9.67640
580.056 8.36074
580.083 7.52743
580.110 6.96783
580.165 6.28684
580.220 5.90093
580.275 5.66047
580.384 5.38492
580.494 5.23636
580.603 5.14539
580.822 5.04116
581.041 4.98325
581.260 4.94597
581.698 4.89904
582.574 4.84580
583.450 4.81040
584.326 4.78186
585.202 4.75896
585.641 4.75227
586.079 4.75768
586.298 4.77605
586.517 4.83543
586.626 4.91550
586.736 5.11556
586.790 5.34697
586.845 5.83925
586.872 6.31947
586.900 7.15423
586.927 8.73364
586.941 10.0447
586.955 11.8820
586.977 16.2038
587.000 19.0684
587.023 16.1830
587.046 11.8802
587.069 9.06630
587.092 7.51176
587.115 6.62501
587.139 6.08876
587.185 5.50797
587.232 5.22163
587.325 4.96153
587.418 4.85027
587.604 4.75698
587.790 4.71749
588.162 4.68012
588.534 4.65875
589.278 4.62719
590.022 4.59897
591.510 4.54123
592.999 4.47621
594.487 4.39857
595.975 4.30026
596.720 4.23993
597.092 4.20725
597.464 4.17563
597.836 4.15583
598.022 4.16245
598.208 4.20239
598.394 4.33533
598.487 4.49192
598.580 4.79688
598.673 5.45535
598.719 6.08574
598.766 7.15254
598.812 9.12085
598.836 10.7710
598.859 13.2258
598.882 17.0853
598.905 23.4343
598.929 34.5736
598.952 54.4917
598.964 69.8314
598.976 87.6239
599.000 111.964
599.024 93.1489
599.048 61.5714
599.072 40.6687
599.096 28.6809
599.120 21.6000
599.143 17.1786
599.167 14.2528
599.191 12.2401
599.239 9.71676
599.286 8.24952
599.334 7.32109
599.429 6.24305
599.525 5.65613
599.620 5.29507
599.810 4.88050
600.001 4.64955
600.192 4.49999
600.573 4.30851
601.335 4.07526
602.097 3.90010
602.478 3.82588
602.860 3.77173
603.241 3.76824
603.622 3.90312
603.812 4.09423
604.003 4.46350
604.194 5.18552
604.384 6.67578
604.575 10.1027
604.670 13.5538
604.765 19.6575
604.813 24.5679
604.861 31.6255
604.908 42.2298
604.956 58.9143
605.004 87.0227
605.051 138.177
605.075 180.126
605.099 240.978
605.123 330.955
605.146 463.789
605.183 765.614
605.220 987.718
605.257 816.738
605.294 528.776
605.324 364.928
605.354 260.795
605.384 194.238
605.414 150.322
605.474 98.4275
605.534 70.4698
605.594 53.7369
605.655 42.9537
605.775 30.2780
605.895 23.3287
606.015 19.0747
606.135 16.2558
606.256 14.2771
606.496 11.7221
606.737 10.1720
606.977 9.14420
607.217 8.41904
607.698 7.46979
608.179 6.87870
608.660 6.47450
609.141 6.17843
610.103 5.76415
610.584 5.60873
611.065 5.47658
611.546 5.37426
611.786 5.34846
612.026 5.36944
612.267 5.52201
612.387 5.72908
612.507 6.15765
612.628 7.13221
612.688 8.09871
612.748 9.78459
612.808 13.0188
612.838 15.8290
612.868 20.1597
612.898 27.2754
612.928 39.7387
612.958 63.5601
612.973 83.3186
612.988 111.304
613.014 180.811
613.040 232.117
613.066 192.709
613.092 126.171
613.108 95.1672
613.125 73.3818
613.158 47.3714
613.191 33.6898
613.225 25.7919
613.258 20.8574
613.291 17.5746
613.357 13.6133
613.424 11.3860
613.490 10.0037
613.623 8.42495
613.756 7.57532
613.888 7.05625
614.021 6.70977
614.154 6.46330
614.419 6.13647
614.685 5.92881
615.215 5.67510
615.746 5.52015
616.277 5.41106
617.339 5.25835
618.401 5.14782
619.463 5.05737
621.586 4.90090
623.710 4.74382
624.772 4.65368
625.833 4.54803
626.364 4.48742
626.895 4.42151
627.426 4.35350
627.957 4.29776
628.223 4.28887
628.488 4.31439
628.753 4.41769
629.019 4.71012
629.152 5.01317
629.284 5.52955
629.417 6.45048
629.550 8.21375
629.683 11.9894
629.749 15.5916
629.815 21.6661
629.882 32.8704
629.915 42.2280
629.948 56.1412
629.981 77.9331
630.014 113.845
630.048 176.336
630.081 287.571
630.115 473.969
630.150 612.215
630.185 507.393
630.219 329.346
630.246 232.234
630.273 169.194
630.300 127.874
630.327 100.183
630.381 66.9248
630.434 48.7565
630.488 37.7651
630.541 30.6322
630.649 22.1843
630.756 17.5290
630.863 14.6663
630.971 12.7650
631.078 11.4284
631.293 9.70089
631.507 8.65134
631.722 7.95571
631.936 7.46497
632.366 6.82395
632.795 6.42699
633.224 6.15802
633.653 5.96382
634.512 5.70137
635.370 5.53075
636.229 5.40932
637.087 5.31718
638.804 5.18312
640.521 5.08628
642.238 5.01119
643.096 4.98715
643.311 4.98904
643.525 5.00768
643.633 5.03743
643.740 5.11560
643.794 5.20747
643.847 5.40352
643.874 5.59491
643.901 5.92498
643.928 6.54419
643.955 7.76991
643.977 9.46954
644.000 10.6036
644.023 9.46823
644.045 7.76701
644.062 6.91981
644.078 6.36203
644.111 5.74531
644.144 5.44613
644.177 5.28325
644.242 5.12199
644.308 5.04804
644.439 4.98263
644.570 4.95366
645.094 4.90899
646.143 4.86522
648.240 4.79086
650.337 4.71426
652.434 4.62702
654.531 4.51701
655.579 4.44650
656.628 4.35885
657.152 4.30614
657.676 4.24617
658.201 4.17904
658.725 4.11007
658.987 4.08172
659.249 4.06893
659.511 4.09593
659.773 4.22773
659.904 4.38450
660.036 4.66915
660.167 5.20228
660.298 6.26554
660.429 8.63539
660.494 10.9645
660.560 15.0046
660.625 22.7244
660.658 29.3886
660.691 39.6097
660.724 56.2856
660.756 85.2207
660.773 107.985
660.789 139.728
660.806 184.513
660.822 246.896
660.851 406.342
660.880 524.422
660.909 434.786
660.938 282.466
660.958 209.288
660.977 158.688
661.015 98.8914
661.054 67.8619
661.092 50.1016
661.131 39.0666
661.169 31.7527
661.246 22.9482
661.323 18.0235
661.400 14.9701
661.554 11.4967
661.708 9.63746
661.862 8.50743
662.016 7.75884
662.170 7.23142
662.478 6.54240
662.786 6.11518
663.094 5.82428
663.402 5.61251
664.018 5.32011
664.634 5.12071
665.866 4.83982
667.098 4.61168
667.713 4.49923
668.329 4.38731
668.637 4.33674
668.945 4.29981
669.253 4.29891
669.561 4.39535
669.715 4.52937
669.869 4.78548
670.023 5.28078
670.177 6.29045
670.331 8.57698
670.408 10.8475
670.485 14.8132
670.562 22.4318
670.601 29.0432
670.639 39.2671
670.678 56.0023
670.716 85.3772
670.735 108.670
670.755 141.178
670.774 187.327
670.793 252.511
670.827 416.145
670.860 537.797
670.894 446.416
670.927 290.361
670.963 181.372
670.998 121.069
671.034 86.4728
671.070 65.3048
671.105 51.5102
671.141 42.1011
671.212 30.4199
671.283 23.6926
671.355 19.4566
671.497 14.5668
671.640 11.9218
671.782 10.3062
671.925 9.23332
672.067 8.47601
672.352 7.48607
672.637 6.87049
672.922 6.44961
673.207 6.14150
673.777 5.71807
674.062 5.57658
674.347 5.49698
674.632 5.56108
674.774 5.73398
674.917 6.15115
675.059 7.18837
675.131 8.26975
675.202 10.2178
675.273 14.1041
675.309 17.5791
675.344 23.1076
675.380 32.5002
675.416 49.8661
675.433 64.2944
675.451 85.4695
675.469 117.219
675.487 164.824
675.513 270.456
675.540 348.722
675.553 334.086
675.567 289.618
675.593 189.276
675.614 133.870
675.635 97.9567
675.656 74.6136
675.677 59.0266
675.719 40.3359
675.760 30.1284
675.802 23.9588
675.844 19.9593
675.927 15.2234
676.011 12.6051
676.094 10.9921
676.178 9.91537
676.261 9.15596
676.428 8.16629
676.595 7.55763
676.762 7.14856
676.928 6.85570
677.262 6.46384
677.596 6.21255
678.264 5.90439
678.931 5.71777
679.599 5.58930
680.934 5.41807
682.269 5.30441
683.604 5.22032
686.274 5.09822
688.944 5.00768
691.614 4.93254
694.285 4.86595
695.620 4.84126
695.953 4.84190
696.287 4.85818
696.454 4.88640
696.621 4.96576
696.704 5.06608
696.788 5.30243
696.830 5.55957
696.871 6.06836
696.892 6.52689
696.913 7.25391
696.934 8.47534
696.955 10.5460
696.977 13.9927
697.000 16.2890
697.023 13.9923
697.045 10.5446
697.071 8.15161
697.096 6.89469
697.121 6.20466
697.147 5.79826
697.197 5.36880
697.248 5.16162
697.349 4.97626
697.450 4.89769
697.652 4.83162
697.854 4.80303
698.258 4.77450
698.662 4.75687
700.278 4.70283
701.895 4.64742
703.511 4.58192
705.127 4.49772
705.936 4.44402
706.744 4.37867
707.148 4.34060
707.552 4.29903
707.956 4.25598
708.360 4.22020
708.562 4.21363
708.764 4.22748
708.966 4.28728
709.168 4.45823
709.269 4.63560
709.370 4.93748
709.471 5.47494
709.572 6.50152
709.673 8.69019
709.724 10.7711
709.774 14.2757
709.825 20.7050
709.850 26.0661
709.875 34.0053
709.901 46.4032
709.926 66.6278
709.951 101.677
709.964 128.258
709.976 163.430
710.003 268.323
710.030 345.683
710.044 330.917
710.057 286.581
710.084 186.758
710.102 136.757
710.121 102.852
710.140 79.6881
710.158 63.6959
710.196 43.8400
710.233 32.6607
710.270 25.7567
710.307 21.2204
710.382 15.7802
710.456 12.7479
710.531 10.8752
710.680 8.74692
710.829 7.60631
710.978 6.91185
711.127 6.44973
711.276 6.12251
711.574 5.69096
711.872 5.41827
712.469 5.08482
713.065 4.87580
713.363 4.79458
713.661 4.72651
713.959 4.68128
714.108 4.67963
714.257 4.71466
714.406 4.84530
714.481 4.99941
714.555 5.29463
714.630 5.91411
714.667 6.49114
714.704 7.43689
714.742 9.11670
714.779 12.4012
714.797 15.3086
714.816 19.7929
714.835 26.9849
714.853 38.6264
714.877 60.9953
714.900 77.5325
714.923 64.9175
714.947 43.5247
714.973 27.9340
715.000 19.6277
715.026 14.9761
715.053 12.1947
715.079 10.4027
715.106 9.19197
715.158 7.69936
715.211 6.84311
715.264 6.30391
715.370 5.67653
715.475 5.32993
715.581 5.11125
715.793 4.84716
716.004 4.68687
716.215 4.57384
716.638 4.42395
716.850 4.38542
717.061 4.38941
717.272 4.47979
717.484 4.77239
717.590 5.08383
717.695 5.61876
717.801 6.57459
717.907 8.40016
718.012 12.2759
718.065 15.9421
718.118 22.0571
718.171 33.1618
718.197 42.2668
718.224 55.6298
718.250 76.1508
718.277 108.882
718.303 163.596
718.329 256.636
718.360 423.914
718.390 549.074
718.420 456.819
718.451 297.783
718.469 227.245
718.487 176.380
718.523 113.803
718.560 79.6522
718.596 59.5410
718.632 46.7394
718.669 38.1485
718.741 27.6336
718.814 21.6678
718.887 17.9343
719.032 13.6532
719.178 11.3424
719.323 9.93191
719.468 8.99532
719.614 8.33483
719.904 7.47260
720.195 6.94043
720.486 6.58128
720.777 6.32341
721.358 5.97790
721.940 5.75651
722.521 5.60168
723.103 5.48654
724.266 5.32483
725.429 5.21514
726.592 5.14083
726.882 5.13220
727.173 5.14053
727.319 5.16533
727.464 5.24115
727.537 5.33794
727.609 5.56251
727.646 5.80061
727.682 6.25285
727.700 6.64379
727.718 7.23701
727.737 8.17871
727.755 9.66703
727.777 12.4257
727.800 14.2627
727.823 12.4238
727.845 9.66291
727.860 8.41784
727.874 7.55545
727.903 6.54530
727.932 6.02256
727.961 5.72724
728.019 5.42614
728.077 5.28489
728.193 5.15916
728.308 5.10466
728.540 5.05485
728.771 5.02920
729.697 4.97165
730.623 4.92759
731.549 4.88475
732.475 4.83885
732.938 4.81349
733.401 4.78635
733.864 4.76045
734.095 4.75283
734.327 4.75937
734.442 4.77583
734.558 4.81161
734.674 4.88611
734.790 5.04564
734.905 5.42044
734.963 5.80096
735.021 6.47476
735.079 7.79402
735.108 8.95349
735.137 10.7685
735.166 13.7991
735.195 19.2171
735.224 29.8188
735.238 38.8961
735.252 51.9242
735.264 66.3488
735.276 83.2838
735.300 106.786
735.324 89.4730
735.348 59.6566
735.366 43.1632
735.385 32.4682
735.404 25.5143
735.422 20.8715
735.460 15.2985
735.497 12.2519
735.534 10.4083
735.572 9.21247
735.646 7.79506
735.721 7.01051
735.796 6.52700
735.870 6.20455
735.945 5.97688
736.094 5.68054
736.243 5.49877
736.542 5.29020
736.840 5.17462
737.139 5.10095
737.736 5.01079
738.333 4.95566
738.930 4.91673
740.124 4.86176
742.513 4.78783
744.901 4.73070
749.678 4.62885
752.066 4.57800
753.261 4.55527
753.858 4.55795
754.156 4.60707
754.231 4.65403
754.306 4.76331
754.343 4.87966
754.380 5.10300
754.417 5.59624
754.436 6.07558
754.455 6.84409
754.477 8.23968
754.500 9.16396
754.523 8.23237
754.545 6.84230
754.577 5.72233
754.608 5.21362
754.671 4.82188
754.733 4.68292
754.796 4.61881
754.921 4.56222
755.046 4.53758
755.547 4.50163
756.548 4.46846
758.550 4.40802
760.552 4.34118
761.553 4.31320
761.804 4.31461
762.054 4.33607
762.179 4.37208
762.304 4.46991
762.367 4.58853
762.429 4.85162
762.461 5.11883
762.492 5.60413
762.523 6.58471
762.539 7.44859
762.555 8.73331
762.577 11.4329
762.600 13.2239
762.623 11.4187
762.646 8.72979
762.664 7.28029
762.682 6.36646
762.718 5.40466
762.754 4.95986
762.790 4.72458
762.863 4.49715
762.935 4.39476
763.080 4.30492
763.224 4.26483
763.514 4.22413
763.803 4.19861
764.960 4.11698
766.118 4.02779
767.275 3.91984
767.854 3.85775
768.433 3.79196
769.011 3.72959
769.590 3.69569
769.879 3.71237
770.169 3.78448
770.458 3.97595
770.747 4.44666
770.892 4.90761
771.037 5.67023
771.181 6.99538
771.326 9.46858
771.471 14.6231
771.543 19.4367
771.615 27.3954
771.688 41.6905
771.724 53.3351
771.760 70.2559
771.796 95.9695
771.832 136.547
771.869 203.648
771.905 315.604
771.947 521.150
771.990 673.179
772.033 557.587
772.075 361.778
772.110 251.381
772.144 180.926
772.178 135.591
772.213 105.437
772.281 69.7040
772.350 50.3597
772.419 38.7455
772.487 31.2407
772.624 22.3959
772.762 17.5340
772.899 14.5511
773.036 12.5700
773.173 11.1784
773.448 9.37823
773.722 8.28305
773.997 7.55568
774.271 7.04136
774.820 6.36611
775.369 5.94418
775.918 5.65482
776.467 5.44274
777.565 5.14751
778.663 4.94437
780.859 4.65694
783.055 4.42442
784.152 4.30809
785.250 4.18276
786.348 4.04110
786.897 3.96252
787.446 3.88143
787.995 3.81410
788.270 3.80615
788.544 3.85572
788.819 4.07577
788.956 4.35814
789.093 4.93344
789.230 6.23280
789.299 7.51930
789.368 9.76368
789.436 14.0753
789.470 17.8215
789.505 23.6272
789.539 33.1659
789.573 50.0150
789.591 63.4698
789.608 82.3552
789.625 109.556
789.642 148.102
789.671 242.630
789.700 311.877
789.729 257.920
789.758 167.632
789.778 123.877
789.797 93.6794
789.817 72.9345
789.836 58.4067
789.875 40.2618
789.914 29.9364
789.953 23.5468
789.992 19.3242
790.070 14.2599
790.148 11.4293
790.226 9.67761
790.382 7.68038
790.538 6.60423
790.694 5.94325
791.006 5.17714
791.317 4.74002
791.629 4.44753
792.253 4.05505
792.877 3.80107
793.189 3.74132
793.500 3.79688
793.812 4.18019
793.968 4.70054
794.124 5.77930
794.280 8.23143
794.358 10.6594
794.436 14.8700
794.514 22.8901
794.553 29.7799
794.592 40.2920
794.631 57.2894
794.670 86.5250
794.709 140.451
794.728 183.989
794.748 243.890
794.784 403.361
794.820 522.054
794.856 433.611
794.892 282.272
794.930 177.338
794.968 118.753
795.006 84.9124
795.044 64.1037
795.082 50.4942
795.120 41.1821
795.196 29.5828
795.272 22.8773
795.347 18.6404
795.499 13.7292
795.651 11.0513
795.802 9.40178
796.106 7.50506
796.409 6.44900
796.712 5.76795
797.319 4.91206
797.926 4.40309
798.229 4.28316
798.532 4.36276
798.836 4.98314
798.988 5.82645
799.139 7.56483
799.215 9.10633
799.291 11.4855
799.367 15.3355
799.442 21.9719
799.480 27.1798
799.518 34.4884
799.556 45.1195
799.594 61.2281
799.632 86.8762
799.670 130.181
799.708 208.002
799.727 269.556
799.746 352.791
799.783 584.864
799.820 758.145
799.857 630.396
799.894 410.022
799.919 304.462
799.943 231.099
799.992 144.035
800.041 98.5992
800.090 72.5176
800.139 56.2098
800.188 45.3653
800.285 32.2634
800.383 24.8823
800.481 20.2835
800.676 15.0057
800.872 12.1507
801.067 10.4059
801.458 8.49239
801.849 7.80520
802.045 7.98180
802.240 8.85155
802.436 11.3449
802.534 14.0108
802.631 18.8021
802.729 28.1872
802.778 36.3968
802.827 49.0956
802.876 69.9182
802.925 106.251
802.974 174.822
802.998 231.083
803.022 310.031
803.066 514.952
803.110 670.280
803.154 560.500
803.198 367.548
803.232 260.617
803.266 190.947
803.300 145.326
803.334 114.553
803.403 77.4864
803.471 57.1270
803.539 44.7473
803.607 36.6635
803.744 27.0091
803.880 21.6206
804.017 18.2629
804.290 14.3922
804.563 12.2667
804.836 10.9381
805.382 9.37606
805.928 8.48577
806.473 7.90723
807.565 7.19181
808.657 6.75934
809.749 6.46506
811.933 6.08260
814.117 5.83844
816.300 5.66430
820.668 5.42088
825.035 5.24102
827.219 5.15825
829.403 5.07161
831.587 4.97016
832.678 4.90738
833.770 4.82974
834.316 4.78254
834.862 4.72768
835.408 4.66358
835.954 4.59087
836.227 4.55421
836.500 4.52354
836.773 4.51338
837.046 4.56476
837.182 4.64719
837.319 4.81235
837.455 5.14192
837.592 5.82880
837.728 7.40897
837.797 8.99094
837.865 11.7573
837.933 17.0781
837.967 21.6757
838.001 28.7516
838.035 40.2441
838.070 60.1682
838.087 75.7752
838.104 97.2943
838.121 127.641
838.138 169.694
838.169 280.535
838.200 363.999
838.231 303.890
838.262 199.347
838.282 150.705
838.302 116.216
838.341 74.5912
838.381 52.4357
838.420 39.5572
838.459 31.4289
838.499 25.9904
838.577 19.3825
838.656 15.6398
838.735 13.3026
838.892 10.6187
839.050 9.16666
839.207 8.27825
839.365 7.68615
839.522 7.26741
839.837 6.71894
840.152 6.37871
840.467 6.14822
840.782 5.98201
841.412 5.75805
842.041 5.61329
842.671 5.51097
843.301 5.43389
844.561 5.32302
845.820 5.24405
848.340 5.12949
850.859 5.03657
852.119 4.98993
853.378 4.93829
854.638 4.87522
855.268 4.83590
855.897 4.78851
856.527 4.73181
856.842 4.70259
857.157 4.68203
857.315 4.68303
857.472 4.70327
857.630 4.76562
857.787 4.92724
857.866 5.08861
857.944 5.35709
858.023 5.82462
858.102 6.69552
858.181 8.49493
858.220 10.1527
858.259 12.8475
858.299 17.5770
858.338 26.6539
858.358 34.5014
858.377 46.4250
858.397 65.0706
858.417 94.1897
858.443 154.254
858.470 199.475
858.497 167.038
858.523 110.287
858.549 73.0272
858.575 51.2875
858.601 38.2746
858.627 30.0653
858.653 24.6075
858.679 20.8095
858.731 16.0128
858.783 13.2056
858.834 11.4139
858.938 9.32332
859.042 8.18020
859.145 7.47745
859.249 7.00913
859.352 6.67815
859.560 6.24617
859.767 5.98006
859.974 5.80103
860.181 5.67285
860.596 5.50187
861.010 5.39293
861.425 5.31707
861.839 5.26086
862.668 5.18246
863.497 5.13116
864.326 5.10839
864.533 5.11758
864.740 5.15669
864.844 5.21233
864.947 5.35271
864.999 5.51418
865.051 5.85421
865.077 6.18032
865.103 6.73688
865.129 7.76138
865.154 9.73824
865.177 12.5524
865.200 14.4291
865.223 12.5514
865.246 9.73578
865.269 7.90207
865.292 6.89098
865.315 6.31040
865.339 5.95903
865.385 5.57805
865.432 5.38985
865.525 5.21817
865.618 5.14404
865.804 5.08062
865.990 5.05265
866.733 5.00767
868.221 4.96317
871.197 4.89752
877.147 4.78248
880.123 4.71894
881.610 4.68188
883.098 4.63812
884.586 4.58253
885.330 4.54719
886.074 4.50389
886.817 4.44983
887.189 4.41917
887.561 4.39065
887.747 4.38185
887.933 4.38396
888.119 4.41174
888.305 4.50347
888.398 4.60302
888.491 4.77627
888.584 5.08973
888.677 5.69486
888.770 6.99696
888.817 8.23949
888.863 10.3339
888.910 14.1716
888.956 22.0718
888.979 29.3871
889.003 41.2190
889.026 61.3738
889.037 76.5371
889.049 96.4414
889.062 124.645
889.075 157.746
889.100 203.493
889.113 195.378
889.126 169.771
889.151 111.788
889.172 78.2881
889.193 57.1108
889.214 43.5164
889.235 34.5655
889.277 23.9794
889.319 18.2803
889.362 14.8575
889.404 12.6427
889.488 10.0329
889.572 8.59383
889.656 7.70861
889.740 7.11842
889.824 6.70267
889.993 6.16211
890.161 5.83107
890.329 5.60981
890.498 5.45234
890.834 5.24389
891.171 5.11209
891.507 5.02072
891.844 4.95304
892.517 4.85764
893.190 4.79125
894.537 4.69799
895.883 4.62770
897.230 4.56600
899.922 4.44504
902.615 4.30405
903.961 4.21675
905.308 4.11034
906.654 3.97390
907.327 3.88876
908.001 3.78791
908.674 3.66922
909.010 3.60649
909.347 3.55338
909.684 3.55237
909.852 3.61737
910.020 3.80852
910.188 4.33975
910.273 4.92618
910.357 6.02275
910.441 8.29356
910.483 10.3873
910.525 13.7922
910.567 19.7687
910.588 24.5059
910.609 31.2449
910.630 41.1989
910.651 56.2582
910.672 79.7995
910.693 116.790
910.722 192.565
910.750 249.747
910.778 208.625
910.807 136.867
910.827 99.5093
910.848 74.3839
910.869 57.5225
910.889 45.9774
910.930 31.7669
910.971 23.8041
911.013 18.9073
911.054 15.6936
911.136 11.8405
911.218 9.68298
911.300 8.34122
911.465 6.79695
911.629 5.95198
911.794 5.42354
912.123 4.79535
912.452 4.42428
912.781 4.16989
913.439 3.83981
913.768 3.75001
914.097 3.73993
914.426 3.88813
914.755 4.40476
914.919 4.96407
915.084 5.93055
915.248 7.66310
915.412 10.9718
915.495 13.7785
915.577 17.9828
915.659 24.5840
915.741 35.5424
915.824 55.2554
915.865 71.2805
915.906 94.5901
915.947 129.794
915.988 185.203
916.029 275.841
916.070 426.009
916.120 709.063
916.170 922.336
916.220 768.596
916.270 501.163
916.306 360.175
916.343 266.172
916.380 203.236
916.416 160.263
916.490 107.707
916.563 78.4370
916.636 60.5047
916.709 48.7467
916.856 34.6798
917.002 26.8414
917.149 21.9803
917.295 18.7297
917.442 16.4311
917.735 13.4385
918.028 11.6061
918.321 10.3832
918.614 9.51560
919.200 8.37469
919.786 7.66296
920.372 7.17819
920.958 6.82698
922.130 6.35106
923.302 6.04137
924.474 5.82109
925.646 5.65389
927.990 5.40831
930.335 5.22107
931.507 5.13408
932.679 5.04198
933.265 4.99071
933.558 4.96391
933.851 4.93878
934.144 4.92539
934.290 4.93457
934.437 4.97559
934.583 5.10488
934.657 5.25444
934.730 5.54109
934.803 6.14804
934.840 6.71535
934.876 7.65132
934.913 9.31949
934.950 12.5844
934.968 15.4506
934.986 19.8752
935.004 26.9320
935.023 38.2784
935.035 48.6763
935.046 60.8148
935.070 77.8681
935.094 65.8309
935.117 44.6735
935.140 31.0340
935.162 22.8953
935.184 17.9573
935.207 14.8115
935.251 11.2310
935.296 9.36151
935.340 8.25757
935.385 7.55100
935.474 6.72048
935.563 6.26237
935.652 5.97881
935.830 5.65191
936.009 5.47095
936.187 5.35609
936.543 5.21602
937.256 5.06890
937.969 4.97925
939.395 4.84436
940.821 4.71579
941.534 4.64470
942.247 4.56492
942.960 4.47319
943.673 4.36765
944.030 4.31151
944.386 4.25846
944.743 4.22233
945.099 4.24430
945.278 4.31183
945.456 4.46425
945.634 4.78917
945.812 5.49634
945.991 7.17810
946.080 8.89536
946.169 11.9524
946.258 17.9393
946.303 23.2183
946.347 31.4591
946.392 45.1662
946.436 69.5859
946.458 89.2275
946.481 117.157
946.503 157.461
946.525 215.100
946.563 356.472
946.600 463.427
946.637 386.875
946.675 253.098
946.704 180.211
946.732 132.485
946.761 101.076
946.789 79.8096
946.847 54.1022
946.904 39.9521
946.961 31.3406
947.018 25.7223
947.133 19.0303
947.247 15.3092
947.362 13.0051
947.476 11.4653
947.591 10.3774
947.820 8.95921
948.049 8.08948
948.278 7.50748
948.506 7.09352
948.964 6.54612
949.422 6.20111
949.880 5.96297
950.338 5.78746
951.254 5.54180
952.170 5.37190
954.001 5.12978
955.833 4.92811
956.749 4.82145
957.664 4.69895
958.122 4.62802
958.580 4.54847
959.038 4.45986
959.496 4.36781
959.725 4.32835
959.954 4.30681
960.183 4.33208
960.412 4.48160
960.526 4.66420
960.641 4.99803
960.755 5.62382
960.870 6.86522
960.984 9.59428
961.041 12.2295
961.099 16.7072
961.156 24.9947
961.185 31.8993
961.213 42.1698
961.242 58.1238
961.270 84.1634
961.299 128.817
961.328 207.118
961.359 343.813
961.390 447.259
961.421 373.963
961.453 245.381
961.483 160.440
961.514 110.710
961.544 80.9899
961.574 62.3111
961.605 49.8534
961.635 41.1895
961.696 30.2653
961.757 23.8604
961.818 19.7779
961.940 15.0092
962.062 12.3963
962.184 10.7895
962.306 9.71659
962.427 8.95824
962.671 7.96685
962.915 7.35522
963.159 6.94329
963.402 6.64811
963.890 6.25410
964.377 6.00293
964.865 5.82791
965.352 5.69814
966.327 5.51593
967.302 5.39102
969.252 5.22217
971.202 5.10360
973.151 5.00703
977.051 4.83416
980.951 4.64367
982.900 4.52393
984.850 4.37214
985.825 4.27812
986.800 4.16763
987.775 4.03764
988.750 3.89056
989.237 3.81788
989.725 3.76037
990.212 3.75148
990.700 3.88480
990.943 4.08087
991.187 4.46369
991.431 5.21485
991.674 6.76090
991.918 10.2677
992.040 13.7374
992.162 19.7433
992.284 31.1132
992.345 40.7982
992.406 55.4914
992.467 78.9481
992.527 118.491
992.588 189.438
992.649 321.093
992.710 534.883
992.770 697.569
992.831 583.084
992.891 381.516
992.947 254.386
993.002 177.726
993.058 130.656
993.113 100.505
993.224 65.9140
993.335 47.7190
993.446 36.9731
993.558 30.0732
993.780 21.9807
994.002 17.5322
994.224 14.7911
994.446 12.9609
994.668 11.6669
995.113 9.97767
995.557 8.93768
996.001 8.23933
996.446 7.74060
997.334 7.07848
998.223 6.65959
999.111 6.36987
1000.00 6.15618
1001.46 5.90207
1002.91 5.71628
1004.37 5.56665
1005.82 5.43350
1007.28 5.29873
1008.01 5.22342
1008.73 5.13686
1009.10 5.08734
1009.46 5.03294
1009.83 4.97462
1010.19 4.91934
1010.37 4.90057
1010.55 4.89990
1010.74 4.94225
1010.92 5.09231
1011.01 5.25770
1011.10 5.54697
1011.19 6.07105
1011.28 7.08202
1011.37 9.24042
1011.42 11.3093
1011.46 14.6827
1011.51 20.9021
1011.55 33.0760
1011.58 44.2150
1011.60 60.8879
1011.62 89.2410
1011.64 133.796
1011.67 221.652
1011.70 288.964
1011.71 277.952
1011.73 241.614
1011.76 158.646
1011.78 111.078
1011.80 80.8393
1011.83 61.4955
1011.85 48.6761
1011.89 33.5195
1011.94 25.3153
1011.99 20.3851
1012.03 17.1839
1012.12 13.3918
1012.22 11.2920
1012.31 9.99238
1012.40 9.12310
1012.49 8.51325
1012.68 7.70700
1012.86 7.21270
1013.04 6.87867
1013.23 6.64126
1013.59 6.32472
1013.96 6.12406
1014.33 5.98512
1014.69 5.88270
1015.43 5.74020
1016.16 5.64425
1017.63 5.51863
1019.10 5.43578
1020.57 5.37407
1023.50 5.28206
1026.44 5.20981
1029.38 5.14263
1030.85 5.10564
1032.32 5.05978
1033.05 5.02958
1033.78 4.99212
1034.15 4.97497
1034.34 4.97293
1034.52 4.98690
1034.70 5.05061
1034.79 5.13365
1034.89 5.30174
1034.98 5.68405
1035.02 6.06021
1035.07 6.70840
1035.12 7.92486
1035.14 8.95367
1035.16 10.5024
1035.18 12.9437
1035.21 17.0012
1035.23 24.1164
1035.25 36.1709
1035.28 57.0663
1035.30 72.9446
1035.32 61.9894
1035.35 42.3503
1035.37 30.3382
1035.39 22.8637
1035.41 18.1750
1035.43 15.2346
1035.47 11.6719
1035.51 9.75198
1035.55 8.60071
1035.60 7.85390
1035.68 6.96932
1035.76 6.47903
1035.84 6.17504
1036.01 5.82661
1036.17 5.63691
1036.33 5.51924
1036.66 5.38219
1037.32 5.25430
1037.97 5.19101
1039.29 5.12021
1040.60 5.07257
1041.91 5.02892
1043.23 4.97790
1043.88 4.94500
1044.54 4.90727
1044.87 4.89656
1045.03 4.90444
1045.20 4.94064
1045.36 5.05860
1045.44 5.19826
1045.52 5.47161
1045.61 6.06301
1045.65 6.62748
1045.69 7.57600
1045.73 9.30144
1045.77 12.8031
1045.79 16.0801
1045.81 21.0569
1045.83 29.7664
1045.85 43.7715
1045.86 55.8102
1045.88 69.9946
1045.90 89.9745
1045.92 76.0101
1045.95 51.2926
1045.97 37.4326
1045.99 28.8185
1046.00 22.8363
1046.02 19.0048
1046.06 14.2287
1046.10 11.5950
1046.13 9.99411
1046.17 8.94695
1046.24 7.69838
1046.32 7.00329
1046.39 6.57186
1046.54 6.08043
1046.69 5.81189
1046.84 5.64655
1047.13 5.45679
1047.43 5.35134
1047.72 5.28468
1048.31 5.20416
1048.90 5.15613
1049.49 5.12334
1050.67 5.07916
1051.85 5.04859
1053.04 5.02455
1055.40 4.98586
1060.12 4.92227
1064.85 4.86099
1069.57 4.79108
1071.93 4.74828
1074.29 4.69524
1076.66 4.62316
1077.84 4.57409
1079.02 4.50955
1079.61 4.46836
1080.20 4.41867
1080.79 4.35734
1081.38 4.28123
1081.68 4.23711
1081.97 4.19094
1082.27 4.14883
1082.56 4.13177
1082.71 4.15155
1082.86 4.21712
1083.01 4.37958
1083.15 4.76108
1083.30 5.72689
1083.37 6.74772
1083.45 8.57530
1083.52 12.2812
1083.56 15.6111
1083.60 20.9128
1083.63 29.9034
1083.65 37.0509
1083.67 46.4208
1083.69 60.4668
1083.71 79.7990
1083.72 108.099
1083.74 149.409
1083.77 246.984
1083.80 321.207
1083.83 269.666
1083.86 177.832
1083.88 120.786
1083.91 86.8366
1083.94 64.7366
1083.96 50.9040
1084.01 34.4386
1084.06 25.7973
1084.11 20.5284
1084.16 17.1329
1084.26 13.1652
1084.37 10.9530
1084.47 9.59973
1084.57 8.69349
1084.67 8.05105
1084.87 7.20781
1085.07 6.69069
1085.28 6.34156
1085.48 6.09345
1085.88 5.76323
1086.29 5.55448
1086.69 5.41038
1087.10 5.30448
1087.91 5.15752
1088.72 5.05845
1090.34 4.92642
1091.96 4.83401
1093.58 4.75771
1096.82 4.61494
1098.44 4.53671
1100.06 4.44643
1101.68 4.33630
1103.30 4.19476
1104.11 4.10700
1104.92 4.00506
1105.73 3.88834
1106.54 3.76547
1106.95 3.71366
1107.35 3.68869
1107.76 3.73402
1108.16 3.96591
1108.37 4.24420
1108.57 4.74646
1108.77 5.68716
1108.97 7.53524
1109.18 11.5883
1109.28 15.4619
1109.38 21.9929
1109.48 34.0793
1109.53 44.1046
1109.58 58.5775
1109.63 81.2224
1109.68 116.818
1109.73 177.677
1109.78 279.341
1109.84 468.673
1109.90 610.749
1109.96 509.552
1110.02 334.511
1110.07 221.414
1110.13 154.855
1110.18 113.513
1110.24 87.5684
1110.34 57.5962
1110.45 41.8692
1110.56 32.5903
1110.67 26.6339
1110.89 19.6667
1111.11 15.8133
1111.32 13.4363
1111.54 11.8484
1111.76 10.7286
1112.20 9.25799
1112.63 8.35272
1113.07 7.74245
1113.50 7.30709
1114.37 6.72760
1115.24 6.36044
1116.11 6.10621
1116.98 5.91857
1118.73 5.65334
1120.47 5.46045
1121.34 5.37206
1122.21 5.27766
1122.65 5.22649
1122.86 5.20272
1123.08 5.18785
1123.30 5.20681
1123.41 5.25507
1123.52 5.37273
1123.63 5.67326
1123.68 5.99253
1123.73 6.55711
1123.79 7.69148
1123.82 8.67358
1123.84 10.1988
1123.87 12.6977
1123.90 17.0680
1123.92 25.2836
1123.95 41.4475
1123.96 53.5529
1123.98 66.7020
1124.00 85.2060
1124.03 72.1305
1124.05 49.5552
1124.07 36.1537
1124.09 27.5182
1124.11 21.9394
1124.13 18.3698
1124.17 13.8575
1124.21 11.4491
1124.25 9.95021
1124.29 8.99505
1124.37 7.83693
1124.44 7.18951
1124.52 6.78537
1124.68 6.31828
1124.84 6.06116
1125.00 5.89994
1125.31 5.70957
1125.63 5.59906
1125.94 5.52584
1126.57 5.43094
1127.21 5.36872
1127.84 5.32242
1129.10 5.25343
1131.62 5.15601
1134.15 5.07928
1136.67 5.00703
1137.94 4.96834
1139.20 4.92438
1140.46 4.86951
1141.09 4.83471
1141.72 4.79184
1142.36 4.73773
1142.67 4.70678
1142.99 4.67791
1143.30 4.67093
1143.46 4.69901
1143.62 4.79100
1143.70 4.89098
1143.78 5.06444
1143.86 5.37659
1143.93 5.97474
1144.01 7.24171
1144.05 8.44982
1144.09 10.3989
1144.13 13.9682
1144.17 20.8230
1144.19 27.0134
1144.21 36.0609
1144.23 51.2125
1144.25 74.2298
1144.26 96.3054
1144.28 122.329
1144.30 157.315
1144.31 151.365
1144.33 131.558
1144.35 88.1608
1144.37 65.5019
1144.39 50.7609
1144.42 33.3207
1144.46 24.0069
1144.49 18.8268
1144.52 15.5020
1144.56 13.3548
1144.63 10.7382
1144.70 9.23580
1144.76 8.29792
1144.90 7.22612
1145.04 6.63952
1145.18 6.28108
1145.45 5.86831
1145.73 5.64175
1146.00 5.49959
1146.55 5.33129
1147.10 5.23373
1147.65 5.16912
1148.75 5.08580
1149.85 5.03132
1150.95 4.99049
1153.15 4.92787
1157.54 4.82901
1161.94 4.73214
1166.34 4.61472
1168.54 4.53893
1170.73 4.44227
1172.93 4.30976
1174.03 4.22149
1175.13 4.11052
1176.23 3.96866
1176.78 3.88545
1177.33 3.80166
1177.60 3.76764
1177.88 3.75194
1178.15 3.78121
1178.43 3.92372
1178.57 4.09189
1178.70 4.39055
1178.84 4.94432
1178.98 6.01814
1179.12 8.36161
1179.18 10.6132
1179.25 14.3585
1179.32 21.3424
1179.36 27.0711
1179.39 35.5540
1179.42 49.1573
1179.46 70.7932
1179.49 107.787
1179.53 172.446
1179.56 283.891
1179.60 366.903
1179.64 305.078
1179.67 198.944
1179.70 148.741
1179.72 114.752
1179.77 73.4672
1179.81 51.3309
1179.86 38.3774
1179.91 30.2032
1179.95 24.7232
1180.04 18.0471
1180.14 14.2648
1180.23 11.8953
1180.41 9.16306
1180.60 7.66395
1180.78 6.73766
1181.15 5.66456
1181.52 5.15532
1181.70 5.12671
1181.89 5.40761
1182.07 6.46245
1182.16 7.68819
1182.25 10.0007
1182.35 14.7240
1182.39 18.9793
1182.44 25.7270
1182.48 37.0523
1182.53 57.4628
1182.55 73.9302
1182.58 97.4028
1182.60 131.339
1182.62 180.221
1182.66 302.016
1182.70 397.590
1182.74 337.172
1182.78 224.232
1182.81 151.666
1182.85 108.437
1182.88 81.4529
1182.92 63.8778
1182.99 43.4071
1183.06 32.4442
1183.13 25.8779
1183.20 21.6114
1183.34 16.5328
1183.48 13.6758
1183.62 11.9007
1183.76 10.6972
1183.90 9.83311
1184.18 8.67932
1184.46 7.95260
1184.74 7.45217
1185.02 7.08630
1185.58 6.58466
1186.14 6.25547
1187.26 5.84114
1188.39 5.58241
1189.51 5.39753
1191.75 5.12553
1193.99 4.89109
1195.11 4.76369
1196.23 4.61375
1196.79 4.52473
1197.35 4.42273
1197.92 4.30477
1198.48 4.17323
1198.76 4.10811
1199.04 4.05597
1199.32 4.04414
1199.60 4.14922
1199.74 4.30871
1199.88 4.61895
1200.02 5.22499
1200.16 6.46041
1200.30 9.21481
1200.37 11.8873
1200.44 16.4214
1200.51 24.7343
1200.54 31.6003
1200.58 41.7011
1200.61 57.1461
1200.65 81.7980
1200.68 122.783
1200.72 191.955
1200.76 322.940
1200.80 421.760
1200.84 354.530
1200.88 235.491
1200.92 162.163
1200.96 116.298
1200.99 87.3861
1201.03 68.4329
1201.10 46.2434
1201.17 34.4480
1201.24 27.2592
1201.31 22.5985
1201.46 17.1021
1201.60 14.0226
1201.74 12.1204
1201.89 10.8323
1202.03 9.92192
1202.32 8.72030
1202.61 7.97378
1202.89 7.46879
1203.18 7.10688
1203.75 6.62068
1204.33 6.31013
1204.90 6.09376
1205.47 5.93364
1206.62 5.70869
1207.77 5.55455
1210.06 5.34278
1212.36 5.18141
1213.51 5.10253
1214.65 5.01569
1215.80 4.90942
1216.38 4.84324
1216.95 4.76446
1217.24 4.71994
1217.52 4.67371
1217.81 4.63165
1218.10 4.61344
1218.24 4.63083
1218.38 4.69035
1218.53 4.84002
1218.67 5.19249
1218.81 6.08510
1218.89 7.02772
1218.96 8.71222
1219.03 12.1215
1219.06 15.1774
1219.10 19.8606
1219.14 27.9333
1219.17 42.6419
1219.19 54.6591
1219.21 71.9965
1219.23 97.4207
1219.24 132.117
1219.27 218.289
1219.30 284.149
1219.33 238.747
1219.36 157.718
1219.39 101.647
1219.42 70.5650
1219.45 51.6210
1219.48 40.2097
1219.51 32.4174
1219.54 27.2058
1219.59 20.6070
1219.65 16.6783
1219.71 14.1778
1219.83 11.2817
1219.95 9.68037
1220.06 8.70158
1220.18 8.04152
1220.30 7.57755
1220.53 6.96658
1220.77 6.58788
1221.00 6.33182
1221.24 6.14765
1221.71 5.90062
1222.18 5.74207
1222.65 5.63093
1223.12 5.54818
1224.06 5.43084
1225.00 5.34975
1226.88 5.23903
1228.76 5.16087
1230.63 5.09758
1234.39 4.98689
1238.15 4.86984
1240.03 4.79774
1241.91 4.70566
1242.85 4.64712
1243.79 4.57562
1244.73 4.48531
1245.67 4.36724
1246.14 4.29383
1246.61 4.20895
1247.08 4.11349
1247.55 4.01847
1247.78 3.98382
1248.02 3.97871
1248.25 4.04644
1248.49 4.30054
1248.61 4.58715
1248.72 5.08837
1248.84 6.01056
1248.96 7.78225
1249.08 11.6094
1249.13 15.2390
1249.19 21.1661
1249.25 31.9717
1249.28 40.5847
1249.31 53.0069
1249.34 72.3431
1249.37 101.537
1249.40 148.375
1249.43 224.159
1249.46 372.801
1249.50 486.531
1249.54 409.113
1249.57 269.680
1249.60 193.770
1249.63 143.331
1249.66 109.865
1249.69 87.0615
1249.74 59.3436
1249.80 44.1534
1249.85 34.6675
1249.91 28.5378
1250.02 21.1052
1250.13 16.9438
1250.24 14.3515
1250.35 12.6107
1250.46 11.3752
1250.69 9.75941
1250.91 8.76413
1251.13 8.09701
1251.35 7.62203
1251.80 6.99527
1252.24 6.60297
1252.68 6.33542
1253.13 6.14158
1254.02 5.87953
1254.90 5.71011
1255.79 5.59094
1256.68 5.50198
1258.46 5.37646
1260.23 5.29031
1263.78 5.17457
1267.34 5.09470
1270.89 5.03122
1277.99 4.92237
1285.10 4.80921
1288.65 4.74004
1292.20 4.65185
1293.98 4.59558
1295.75 4.52627
1297.53 4.43714
1299.31 4.31610
1300.19 4.23706
1301.08 4.13989
1301.97 4.01800
1302.86 3.86330
1303.30 3.77212
1303.75 3.67426
1304.19 3.58079
1304.63 3.53072
1304.86 3.55760
1305.08 3.67001
1305.30 3.96515
1305.52 4.68258
1305.74 6.51120
1305.85 8.44852
1305.97 11.9761
1306.02 14.8840
1306.08 19.0328
1306.13 25.4101
1306.19 35.3191
1306.24 52.2857
1306.30 82.4775
1306.33 107.446
1306.35 143.444
1306.38 196.211
1306.41 270.067
1306.46 455.101
1306.50 594.190
1306.55 496.513
1306.59 326.921
1306.63 218.353
1306.67 154.051
1306.72 113.474
1306.76 87.9661
1306.84 58.1736
1306.92 42.5692
1307.01 33.1789
1307.09 27.1345
1307.25 20.0516
1307.42 16.1154
1307.58 13.6939
1307.75 12.0703
1307.91 10.9175
1308.25 9.40330
1308.58 8.46985
1308.91 7.83929
1309.24 7.38947
1309.90 6.79054
1310.56 6.41184
1311.22 6.15089
1311.88 5.95977
1313.20 5.69682
1314.52 5.52162
1315.85 5.39332
1317.17 5.29209
1319.81 5.12987
1321.14 5.05553
1322.46 4.97698
1323.78 4.88388
1324.44 4.82607
1325.10 4.75514
1325.76 4.66484
1326.09 4.61149
1326.42 4.55793
1326.59 4.53691
1326.75 4.52981
1326.92 4.55684
1327.08 4.67131
1327.17 4.80361
1327.25 5.03929
1327.33 5.47166
1327.42 6.29823
1327.50 8.08141
1327.54 9.73755
1327.58 12.4654
1327.62 17.4467
1327.66 26.9791
1327.68 35.5229
1327.70 47.9590
1327.73 68.5440
1327.75 99.5542
1327.76 129.846
1327.77 165.595
1327.80 214.267
1327.81 206.659
1327.83 179.998
1327.86 120.642
1327.87 91.3584
1327.89 71.6823
1327.92 47.5141
1327.96 34.1004
1327.99 26.4497
1328.03 21.4549
1328.06 18.1898
1328.13 14.1633
1328.20 11.8248
1328.27 10.3536
1328.41 8.66019
1328.54 7.72713
1328.68 7.15451
1328.82 6.76690
1328.96 6.49244
1329.23 6.12776
1329.51 5.89847
1329.78 5.74115
1330.05 5.62665
1330.60 5.46901
1331.15 5.36467
1332.25 5.23023
1333.35 5.14221
1334.45 5.07566
1336.65 4.96973
1338.85 4.87191
1339.95 4.81825
1341.05 4.75574
1342.15 4.67622
1342.70 4.62562
1343.25 4.56422
1343.80 4.49023
1344.07 4.45192
1344.34 4.42455
1344.62 4.44946
1344.76 4.52674
1344.89 4.72550
1345.03 5.25271
1345.10 5.82063
1345.17 6.84464
1345.24 8.93166
1345.27 10.7736
1345.31 13.6773
1345.34 18.7159
1345.38 27.5920
1345.39 34.7573
1345.41 44.9831
1345.43 59.7943
1345.44 81.1722
1345.47 134.756
1345.50 174.463
1345.52 167.783
1345.53 146.709
1345.56 98.5131
1345.58 75.4787
1345.59 59.0427
1345.63 39.0683
1345.67 28.3525
1345.70 22.2078
1345.74 18.1858
1345.77 15.4845
1345.84 12.2162
1345.92 10.3226
1345.99 9.14567
1346.13 7.77582
1346.27 7.01911
1346.41 6.55334
1346.70 6.01272
1346.98 5.71293
1347.27 5.52285
1347.84 5.29371
1348.41 5.15719
1348.98 5.06315
1350.12 4.93320
1351.26 4.83704
1352.40 4.75316
1354.68 4.58547
1355.82 4.48907
1356.96 4.37552
1358.10 4.23524
1359.24 4.05446
1359.81 3.94337
1360.38 3.81616
1360.95 3.67536
1361.52 3.54032
1361.80 3.49662
1362.09 3.50299
1362.37 3.62903
1362.66 4.05440
1362.80 4.51907
1362.94 5.31960
1363.09 6.76781
1363.23 9.50892
1363.30 11.8533
1363.37 15.2999
1363.44 20.6369
1363.51 29.3415
1363.59 44.8208
1363.62 57.1399
1363.66 74.0897
1363.69 99.5174
1363.73 136.653
1363.76 195.551
1363.80 284.029
1363.85 479.037
1363.90 626.742
1363.95 525.946
1364.00 347.587
1364.04 254.246
1364.07 192.152
1364.11 149.607
1364.14 119.845
1364.21 82.6406
1364.28 61.3867
1364.35 48.1588
1364.42 39.3599
1364.56 28.6951
1364.70 22.6643
1364.84 18.8830
1364.98 16.3324
1365.12 14.5160
1365.40 12.1325
1365.68 10.6594
1365.96 9.66993
1366.24 8.96438
1366.80 8.03087
1367.36 7.44730
1367.92 7.04923
1368.48 6.76097
1369.60 6.37162
1370.72 6.12111
1371.84 5.94582
1372.96 5.81584
1375.21 5.63462
1377.45 5.51282
1379.69 5.42398
1381.93 5.35531
1386.41 5.25332
1390.89 5.17793
1399.85 5.06283
1408.82 4.96114
1413.30 4.90551
1417.78 4.83901
1422.26 4.74898
1424.50 4.68657
1426.74 4.60227
1427.86 4.54688
1428.98 4.47803
1430.10 4.38954
1431.22 4.27198
1431.79 4.19788
1432.35 4.11133
1432.91 4.01217
1433.47 3.90891
1433.75 3.86690
1434.03 3.84994
1434.31 3.89722
1434.59 4.11208
1434.73 4.36269
1434.87 4.81121
1435.01 5.63579
1435.15 7.23863
1435.29 10.6601
1435.36 13.8747
1435.43 19.1814
1435.50 28.5805
1435.53 36.1036
1435.57 46.8625
1435.60 62.7417
1435.64 86.9682
1435.67 125.002
1435.71 185.024
1435.75 310.912
1435.80 406.242
1435.85 342.051
1435.90 227.397
1435.94 149.160
1435.99 104.066
1436.03 76.8375
1436.08 59.5326
1436.13 47.7467
1436.17 39.7028
1436.27 29.4609
1436.36 23.3563
1436.45 19.4777
1436.64 14.8848
1436.82 12.3475
1437.01 10.7740
1437.19 9.71739
1437.37 8.96927
1437.74 7.97978
1438.11 7.36508
1438.48 6.94934
1438.85 6.65142
1439.59 6.25241
1440.33 5.99913
1441.07 5.82392
1441.81 5.69530
1443.29 5.51813
1444.77 5.40067
1446.25 5.31585
1447.73 5.25069
1450.68 5.15401
1453.64 5.08180
1459.55 4.96658
1465.47 4.85364
1468.43 4.78558
1471.38 4.69852
1472.86 4.64260
1474.34 4.57332
1475.82 4.48373
1477.30 4.36168
1478.04 4.28184
1478.78 4.18406
1479.52 4.06230
1480.26 3.91046
1480.63 3.82329
1481.00 3.73361
1481.37 3.65691
1481.73 3.64286
1481.92 3.70264
1482.10 3.86731
1482.29 4.24949
1482.47 5.11427
1482.66 7.22892
1482.75 9.42108
1482.84 13.2778
1482.89 16.4340
1482.94 20.8558
1482.98 27.3811
1483.03 37.4183
1483.07 53.6611
1483.12 81.5934
1483.17 132.892
1483.19 174.078
1483.21 230.851
1483.26 387.100
1483.30 508.625
1483.34 429.088
1483.39 283.378
1483.43 196.893
1483.46 143.182
1483.50 108.518
1483.53 85.3763
1483.61 57.5153
1483.68 42.5562
1483.75 33.3900
1483.82 27.4939
1483.97 20.4108
1484.11 16.4612
1484.26 14.0022
1484.40 12.3491
1484.55 11.1805
1484.84 9.63501
1485.13 8.68114
1485.42 8.03616
1485.71 7.57637
1486.28 6.96481
1486.86 6.57937
1487.44 6.31506
1488.02 6.12273
1489.18 5.86148
1490.34 5.69178
1491.50 5.57203
1492.65 5.48243
1494.97 5.35558
1497.29 5.26805
1501.92 5.14818
1506.55 5.05950
1511.18 4.97477
1513.50 4.92387
1514.66 4.89244
1515.82 4.85337
1516.97 4.80054
1517.55 4.76522
1518.13 4.72028
1518.71 4.66179
1519.00 4.62714
1519.29 4.59307
1519.58 4.57851
1519.73 4.60142
1519.87 4.68669
1520.01 4.95005
1520.09 5.25645
1520.16 5.83560
1520.23 7.07336
1520.27 8.20981
1520.30 10.0631
1520.34 13.2948
1520.38 19.4465
1520.39 24.6803
1520.41 32.5139
1520.43 44.5274
1520.45 62.9995
1520.46 81.4786
1520.47 103.396
1520.50 134.931
1520.53 114.358
1520.55 76.6912
1520.57 59.4232
1520.58 46.9990
1520.62 32.0796
1520.65 23.8456
1520.68 18.9231
1520.71 15.6831
1520.74 13.5629
1520.80 10.9370
1520.87 9.40379
1520.93 8.44940
1521.05 7.32834
1521.18 6.71308
1521.30 6.33162
1521.55 5.89109
1521.80 5.64727
1522.05 5.49308
1522.55 5.30812
1523.05 5.19791
1523.55 5.12159
1524.55 5.01227
1525.55 4.91970
1526.05 4.87035
1526.55 4.81429
1527.05 4.74833
1527.30 4.71325
1527.55 4.68456
1527.80 4.69185
1527.92 4.74159
1528.05 4.88078
1528.17 5.26045
1528.24 5.67899
1528.30 6.44048
1528.36 8.00980
1528.39 9.40225
1528.42 11.6076
1528.46 15.3100
1528.49 21.9971
1528.52 35.1455
1528.53 46.8149
1528.55 62.6348
1528.56 81.0222
1528.57 102.850
1528.60 134.352
1528.63 114.025
1528.65 76.5918
1528.68 52.7014
1528.70 38.2135
1528.72 29.3060
1528.75 23.7669
1528.79 17.1661
1528.84 13.6437
1528.89 11.5047
1528.94 10.1530
1529.03 8.54739
1529.13 7.64528
1529.22 7.08976
1529.41 6.44495
1529.60 6.09112
1529.79 5.87030
1530.16 5.61180
1530.54 5.46569
1530.92 5.37142
1531.68 5.25550
1532.43 5.18520
1533.19 5.13654
1534.70 5.07034
1536.21 5.02401
1537.72 4.98689
1540.75 4.92342
1543.77 4.85926
1545.28 4.82139
1546.80 4.77457
1548.31 4.71036
1549.06 4.66630
1549.82 4.60839
1550.58 4.52837
1550.95 4.47670
1551.33 4.41734
1551.71 4.36232
1551.90 4.35466
1552.09 4.39864
1552.18 4.46829
1552.28 4.60487
1552.37 4.87716
1552.47 5.42985
1552.56 6.68283
1552.61 7.89068
1552.66 9.93866
1552.70 13.7978
1552.75 21.5557
1552.77 28.8009
1552.80 39.8687
1552.82 59.0721
1552.84 90.0524
1552.86 117.127
1552.87 149.215
1552.90 195.399
1552.91 188.995
1552.93 165.486
1552.96 110.402
1552.98 82.9154
1552.99 63.8059
1553.03 41.7238
1553.07 30.0752
1553.11 23.3117
1553.14 19.0559
1553.18 16.2030
1553.25 12.7186
1553.33 10.7133
1553.40 9.47026
1553.55 8.02678
1553.70 7.23075
1553.85 6.74104
1554.14 6.17506
1554.44 5.86134
1554.74 5.66407
1555.33 5.43075
1555.92 5.29644
1556.52 5.20848
1557.70 5.09737
1558.89 5.02689
1560.08 4.97516
1562.45 4.89597
1564.83 4.82559
1566.01 4.78763
1567.20 4.74359
1568.39 4.68735
1568.98 4.65094
1569.57 4.60549
1570.17 4.54683
1570.46 4.51208
1570.76 4.47728
1571.06 4.45936
1571.21 4.47743
1571.35 4.55254
1571.50 4.79184
1571.58 5.06841
1571.65 5.59936
1571.72 6.71610
1571.76 7.75157
1571.80 9.43966
1571.84 12.3794
1571.87 17.9587
1571.89 22.8438
1571.91 29.7406
1571.93 40.8588
1571.95 56.9309
1571.96 74.1449
1571.97 93.0151
1572.00 121.163
1572.03 103.187
1572.05 69.6885
1572.08 50.8815
1572.10 38.4720
1572.12 30.2911
1572.14 24.9637
1572.18 18.1421
1572.22 14.4400
1572.26 12.1161
1572.30 10.6232
1572.39 8.80291
1572.47 7.77979
1572.55 7.13946
1572.72 6.39903
1572.88 5.99280
1573.05 5.73987
1573.38 5.44496
1573.71 5.27911
1574.05 5.17240
1574.71 5.04100
1575.37 4.96028
1576.04 4.90294
1577.37 4.82013
1580.02 4.69597
1582.68 4.57068
1584.01 4.49565
1585.33 4.40495
1586.66 4.28979
1587.99 4.13577
1588.65 4.03711
1589.32 3.91869
1589.98 3.77631
1590.65 3.61067
1590.98 3.52573
1591.31 3.45367
1591.64 3.42805
1591.97 3.54360
1592.14 3.73124
1592.31 4.10687
1592.47 4.85199
1592.64 6.38780
1592.72 7.74690
1592.80 9.84113
1592.89 13.2082
1592.97 18.9382
1593.05 29.4720
1593.10 38.3130
1593.14 51.0198
1593.18 70.9509
1593.22 102.004
1593.26 153.279
1593.30 239.092
1593.35 403.703
1593.40 529.168
1593.45 446.075
1593.50 296.374
1593.54 202.227
1593.59 143.906
1593.63 107.441
1593.68 83.6786
1593.76 56.0102
1593.85 41.3402
1593.94 32.4475
1594.03 26.7410
1594.20 19.9182
1594.38 16.1030
1594.55 13.7431
1594.73 12.1543
1594.90 11.0223
1595.25 9.52943
1595.60 8.60474
1595.95 7.97951
1596.30 7.53081
1597.00 6.93212
1597.70 6.55314
1598.41 6.29228
1599.11 6.10208
1600.51 5.84229
1601.91 5.67286
1603.31 5.55283
1604.71 5.46271
1607.51 5.33460
1610.32 5.24571
1613.12 5.17807
1615.92 5.12276
1621.53 5.02934
1624.33 4.98396
1627.13 4.93379
1629.93 4.87049
1631.33 4.82847
1632.74 4.77298
1633.44 4.73699
1634.14 4.69248
1634.84 4.63551
1635.54 4.55981
1636.24 4.45538
1636.59 4.38964
1636.94 4.31829
1637.29 4.26663
1637.47 4.28164
1637.64 4.38962
1637.73 4.52540
1637.82 4.77182
1637.90 5.23833
1637.99 6.14564
1638.08 8.12381
1638.12 9.99834
1638.17 13.0205
1638.21 18.4930
1638.23 22.8872
1638.25 29.1848
1638.28 38.4986
1638.30 52.7330
1638.32 75.1006
1638.34 108.410
1638.37 180.584
1638.40 237.218
1638.42 229.735
1638.43 201.365
1638.46 134.429
1638.49 89.8970
1638.52 63.4300
1638.55 47.4262
1638.58 37.5320
1638.60 30.6273
1638.63 25.7993
1638.69 19.7423
1638.75 16.0913
1638.81 13.7793
1638.92 11.0209
1639.04 9.49123
1639.15 8.53977
1639.27 7.89938
1639.38 7.44632
1639.61 6.84342
1639.84 6.46923
1640.07 6.21432
1640.30 6.03163
1640.76 5.78643
1641.22 5.63018
1641.67 5.52190
1642.13 5.44232
1643.05 5.33269
1643.97 5.26006
1644.89 5.20779
1645.81 5.16788
1647.64 5.10975
1649.48 5.06810
1653.15 5.00869
1656.82 4.96442
1660.50 4.92687
1667.84 4.85756
1675.18 4.78065
1678.86 4.73224
1682.53 4.66960
1684.37 4.62918
1686.20 4.57896
1688.04 4.51359
1689.87 4.42324
1690.79 4.36306
1691.71 4.28752
1692.63 4.18971
1693.55 4.05856
1694.01 3.97546
1694.46 3.87761
1694.92 3.76439
1695.38 3.64392
1695.61 3.59226
1695.84 3.56606
1696.07 3.60655
1696.30 3.82257
1696.42 4.08255
1696.53 4.55295
1696.65 5.42377
1696.76 7.10252
1696.87 10.7083
1696.93 14.1255
1696.99 19.6482
1697.05 29.5492
1697.08 37.4567
1697.10 48.2713
1697.13 64.6191
1697.16 88.3302
1697.19 126.197
1697.22 182.691
1697.26 308.402
1697.30 407.806
1697.34 344.870
1697.38 228.157
1697.43 140.615
1697.48 93.5395
1697.52 67.1357
1697.57 51.1850
1697.62 40.8793
1697.66 33.8426
1697.76 25.0982
1697.85 20.0397
1697.95 16.8234
1698.13 13.0654
1698.32 10.9953
1698.51 9.71015
1698.70 8.84490
1698.89 8.22732
1699.26 7.41118
1699.64 6.90034
1700.01 6.55245
1700.39 6.30100
1701.14 5.96253
1701.89 5.74525
1702.65 5.59361
1703.40 5.48146
1704.90 5.32478
1706.41 5.21861
1707.91 5.13962
1709.41 5.07635
1712.42 4.97239
1713.92 4.92328
1715.43 4.87010
1716.93 4.80498
1717.68 4.76327
1718.43 4.71060
1719.19 4.64004
1719.56 4.59538
1719.94 4.54473
1720.31 4.49863
1720.50 4.49284
1720.69 4.53113
1720.88 4.70646
1720.97 4.93440
1721.07 5.39944
1721.16 6.43430
1721.21 7.43488
1721.25 9.12474
1721.30 12.2003
1721.35 18.4010
1721.37 24.1173
1721.40 32.7352
1721.42 46.6471
1721.44 69.3404
1721.47 115.677
1721.50 150.722
1721.52 145.669
1721.53 127.085
1721.56 85.5410
1721.58 65.4148
1721.60 51.1729
1721.64 34.0252
1721.67 24.9025
1721.71 19.5780
1721.75 16.2160
1721.79 13.9566
1721.86 11.2169
1721.94 9.62663
1722.01 8.62402
1722.17 7.46534
1722.32 6.82424
1722.47 6.42874
1722.77 5.96922
1723.07 5.71461
1723.38 5.55389
1723.98 5.36256
1724.59 5.25183
1725.20 5.17870
1726.41 5.08563
1727.62 5.02617
1728.83 4.98258
1731.25 4.91717
1733.68 4.86232
1736.10 4.80356
1737.31 4.76559
1738.53 4.71164
1739.13 4.67263
1739.74 4.62265
1740.04 4.60202
1740.19 4.60380
1740.34 4.63354
1740.50 4.74756
1740.57 4.88885
1740.65 5.16505
1740.72 5.77138
1740.76 6.34786
1740.80 7.27506
1740.84 8.96278
1740.87 12.2706
1740.89 15.1614
1740.91 19.5943
1740.93 26.5941
1740.95 37.5666
1740.96 47.5024
1740.97 60.0929
1741.00 78.5183
1741.03 66.7740
1741.05 45.7739
1741.07 36.0207
1741.08 28.8650
1741.12 20.1109
1741.15 15.3814
1741.18 12.5949
1741.21 10.8245
1741.24 9.62990
1741.31 8.16161
1741.37 7.32036
1741.44 6.78834
1741.56 6.17241
1741.69 5.83025
1741.82 5.61904
1742.07 5.37288
1742.58 5.14897
1743.09 5.04497
1744.11 4.94268
1745.13 4.88870
1747.18 4.82462
1749.22 4.78048
1753.30 4.70692
1757.38 4.63088
1761.46 4.53473
1763.51 4.47066
1765.55 4.38639
1766.57 4.33214
1767.59 4.26563
1768.61 4.18120
1769.63 4.07015
1770.14 4.00038
1770.65 3.91873
1771.16 3.82416
1771.67 3.72200
1771.93 3.67605
1772.18 3.64814
1772.44 3.66872
1772.69 3.81957
1772.82 4.00878
1772.95 4.35298
1773.07 5.00089
1773.20 6.26206
1773.33 8.98956
1773.39 11.5598
1773.46 15.7197
1773.52 23.1575
1773.55 29.0890
1773.58 37.5368
1773.62 49.9327
1773.65 68.6915
1773.68 97.8161
1773.71 141.417
1773.76 237.226
1773.80 312.659
1773.85 265.427
1773.89 176.728
1773.92 135.356
1773.95 105.585
1774.00 69.0380
1774.06 49.2182
1774.11 37.6730
1774.17 30.1634
1774.23 25.0931
1774.34 18.8992
1774.45 15.3092
1774.56 13.0563
1774.78 10.4243
1775.00 8.96721
1775.23 8.06173
1775.45 7.45078
1775.67 7.01509
1776.12 6.43328
1776.56 6.06640
1777.01 5.81299
1777.45 5.62760
1778.35 5.37112
1779.24 5.19846
1781.02 4.96646
1782.80 4.79472
1784.58 4.62749
1785.47 4.52809
1785.92 4.46940
1786.36 4.40243
1786.81 4.32839
1787.03 4.29480
1787.26 4.27916
1787.48 4.33117
1787.59 4.43426
1787.70 4.67411
1787.81 5.27139
1787.87 5.89038
1787.92 6.96913
1787.98 9.09587
1788.01 10.9469
1788.04 13.6750
1788.06 18.2229
1788.09 26.0472
1788.12 40.4088
1788.13 51.9188
1788.15 66.5711
1788.16 86.9204
1788.17 109.423
1788.20 142.955
1788.23 121.063
1788.25 80.9827
1788.27 62.2454
1788.29 49.5353
1788.32 33.6502
1788.35 24.6538
1788.38 19.4668
1788.42 16.0443
1788.45 13.7963
1788.51 11.0046
1788.58 9.37016
1788.64 8.34947
1788.77 7.14651
1788.90 6.47857
1789.03 6.06542
1789.29 5.58182
1789.55 5.30655
1789.81 5.12746
1790.32 4.89854
1790.84 4.74626
1791.35 4.62631
1792.39 4.41526
1792.90 4.30688
1793.42 4.18838
1793.94 4.05473
1794.45 3.90513
1794.71 3.82839
1794.97 3.76121
1795.23 3.72802
1795.49 3.79896
1795.62 3.93194
1795.75 4.20406
1795.88 4.75078
1796.00 5.88389
1796.13 8.43267
1796.20 10.9356
1796.26 15.1108
1796.33 22.8588
1796.36 29.1317
1796.39 38.2776
1796.42 52.6320
1796.46 74.6576
1796.49 110.558
1796.52 169.725
1796.56 285.413
1796.60 376.617
1796.64 319.539
1796.68 212.427
1796.72 135.198
1796.77 92.6278
1796.81 67.2694
1796.85 51.9464
1796.89 41.6346
1796.94 34.6778
1797.02 25.8122
1797.11 20.6314
1797.19 17.3170
1797.36 13.4242
1797.53 11.2710
1797.70 9.93099
1797.87 9.02733
1798.04 8.38142
1798.38 7.52605
1798.72 6.98882
1799.06 6.62140
1799.40 6.35443
1800.08 5.99169
1800.76 5.75506
1801.44 5.58664
1802.12 5.45919
1803.48 5.27390
1804.84 5.13983
1807.56 4.93691
1810.28 4.75468
1811.64 4.65318
1813.00 4.53190
1814.36 4.37208
1815.04 4.26689
1815.72 4.13454
1816.40 3.96259
1816.74 3.85951
1817.08 3.75239
1817.25 3.70674
1817.42 3.68196
1817.59 3.71044
1817.76 3.87677
1817.93 4.43646
1818.01 5.09696
1818.10 6.37127
1818.18 9.05110
1818.22 11.5638
1818.27 15.5432
1818.31 22.5858
1818.33 27.9656
1818.35 35.4560
1818.37 46.1476
1818.39 61.7899
1818.41 85.1183
1818.43 119.900
1818.47 202.012
1818.50 267.338
1818.52 258.365
1818.53 226.842
1818.57 150.858
1818.60 101.576
1818.63 72.6479
1818.66 54.6987
1818.69 43.0526
1818.75 29.5287
1818.81 22.3007
1818.87 17.9173
1818.93 15.1242
1819.05 11.7928
1819.17 9.91097
1819.29 8.73884
1819.53 7.36272
1819.77 6.58109
1820.01 6.07406
1820.49 5.43783
1820.97 5.05268
1821.22 4.94831
1821.46 4.96685
1821.70 5.31400
1821.82 5.80533
1821.94 6.81927
1822.06 9.08682
1822.12 11.2390
1822.18 14.8180
1822.24 21.1866
1822.30 33.5938
1822.33 44.3590
1822.36 60.7451
1822.39 86.3762
1822.42 126.653
1822.46 213.182
1822.50 279.641
1822.54 237.012
1822.58 159.109
1822.62 105.610
1822.66 74.7057
1822.71 55.5797
1822.75 43.7289
1822.79 35.5943
1822.83 30.0374
1822.91 22.9204
1822.99 18.6417
1823.07 15.8827
1823.23 12.6321
1823.39 10.8061
1823.55 9.66899
1823.71 8.89259
1823.88 8.33790
1824.20 7.59473
1824.52 7.12278
1824.84 6.79655
1825.17 6.55714
1825.81 6.22777
1826.46 6.01002
1827.75 5.73548
1829.04 5.56509
1830.33 5.44603
1832.92 5.28387
1835.50 5.16972
1838.08 5.07202
1839.38 5.02001
1840.67 4.95520
1841.31 4.91128
1841.96 4.85343
1842.28 4.82227
1842.61 4.82080
1842.77 4.88684
1842.85 4.98089
1842.93 5.17656
1843.01 5.62769
1843.05 6.06405
1843.09 6.80404
1843.13 8.20109
1843.17 10.9814
1843.19 13.4879
1843.21 17.4467
1843.23 23.9391
1843.25 35.2192
1843.26 44.9259
1843.28 56.1843
1843.30 73.3818
1843.33 62.6159
1843.35 43.1909
1843.37 30.1354
1843.40 22.5314
1843.42 17.6998
1843.44 14.7438
1843.47 12.6698
1843.49 11.2750
1843.54 9.47814
1843.58 8.38452
1843.63 7.69203
1843.72 6.85992
1843.82 6.39217
1843.91 6.10357
1844.10 5.76837
1844.47 5.46490
1844.84 5.32591
1845.59 5.19207
1846.33 5.12383
1847.82 5.04747
1849.31 4.99967
1852.29 4.93200
1855.27 4.87818
1861.23 4.78187
1867.19 4.68262
1873.15 4.56377
1876.13 4.48947
1879.11 4.39762
1882.09 4.27617
1883.58 4.19690
1885.07 4.09709
1886.56 3.96382
1887.31 3.87711
1888.05 3.77015
1888.80 3.63701
1889.17 3.56209
1889.54 3.49349
1889.73 3.47271
1889.92 3.47838
1890.10 3.54464
1890.29 3.75856
1890.38 3.99001
1890.47 4.38383
1890.57 5.08351
1890.66 6.40326
1890.75 9.13879
1890.80 11.6865
1890.85 15.7269
1890.89 22.8832
1890.92 28.3874
1890.94 36.0975
1890.96 47.7810
1890.99 64.4957
1891.01 89.8100
1891.03 128.166
1891.07 212.921
1891.10 278.206
1891.13 234.730
1891.17 155.509
1891.19 118.972
1891.21 93.7374
1891.25 62.0759
1891.29 44.5025
1891.33 33.9656
1891.37 27.0592
1891.41 22.4990
1891.49 16.8526
1891.57 13.5675
1891.65 11.5156
1891.81 9.11149
1891.97 7.79167
1892.13 6.97209
1892.30 6.41839
1892.46 6.02271
1892.78 5.48814
1893.10 5.14293
1893.74 4.70980
1894.39 4.42819
1895.03 4.21072
1896.32 3.83931
1896.96 3.65563
1897.60 3.46405
1898.25 3.26586
1898.89 3.08586
1899.21 3.03056
1899.53 3.04209
1899.85 3.20756
1900.18 3.74525
1900.50 5.30482
1900.66 7.04376
1900.82 10.2627
1900.90 12.9538
1900.98 16.8403
1901.06 22.8058
1901.14 32.1433
1901.22 48.0070
1901.30 76.1909
1901.34 98.8185
1901.38 130.929
1901.42 177.118
1901.46 243.325
1901.53 414.399
1901.60 548.204
1901.67 464.094
1901.74 308.494
1901.79 220.760
1901.85 163.778
1901.90 125.351
1901.95 99.6900
1902.06 68.1392
1902.17 50.5642
1902.27 39.7837
1902.38 32.6726
1902.60 24.1013
1902.81 19.2633
1903.02 16.2236
1903.24 14.1649
1903.45 12.6973
1903.88 10.7450
1904.31 9.52538
1904.73 8.69243
1905.16 8.09077
1906.02 7.27394
1906.87 6.74091
1907.73 6.35658
1908.58 6.05655
1910.29 5.57684
1911.15 5.35393
1912.00 5.11464
1912.86 4.83016
1913.29 4.65939
1913.71 4.46697
1913.93 4.36686
1914.14 4.27557
1914.36 4.22038
1914.57 4.27830
1914.68 4.41253
1914.78 4.69930
1914.89 5.28436
1915.00 6.50057
1915.10 9.21529
1915.16 11.8519
1915.21 16.1665
1915.26 24.0024
1915.29 30.3070
1915.32 38.9400
1915.34 52.0680
1915.37 71.1061
1915.40 101.649
1915.42 147.170
1915.46 251.862
1915.50 334.241
1915.52 324.199
1915.54 284.767
1915.58 191.643
1915.61 138.334
1915.64 103.095
1915.67 79.8119
1915.70 64.4199
1915.76 44.9620
1915.82 34.2677
1915.88 27.5681
1915.93 23.2081
1916.05 17.9079
1916.17 14.8673
1916.29 12.9614
1916.41 11.6524
1916.53 10.7190
1916.76 9.47079
1917.00 8.68434
1917.24 8.14609
1917.47 7.75531
1917.95 7.22497
1918.42 6.88211
1918.90 6.64040
1919.37 6.45967
1920.32 6.20431
1921.27 6.02986
1923.16 5.79966
1925.06 5.64858
1926.96 5.53792
1930.75 5.37951
1934.55 5.26475
1938.34 5.17227
1945.92 5.01652
1953.51 4.86354
1957.30 4.77479
1961.10 4.66599
1964.89 4.51759
1966.79 4.41584
1968.68 4.28140
1969.63 4.19541
1970.58 4.09156
1971.53 3.96388
1972.48 3.80607
1972.95 3.71549
1973.43 3.62170
1973.90 3.53835
1974.37 3.51024
1974.61 3.55601
1974.85 3.69567
1975.09 4.02932
1975.32 4.79585
1975.56 6.65368
1975.68 8.55495
1975.80 11.8592
1975.92 18.1850
1975.97 23.5116
1976.03 31.5106
1976.09 44.3098
1976.15 65.0953
1976.21 100.991
1976.27 164.349
1976.34 277.111
1976.40 366.639
1976.47 312.229
1976.53 208.341
1976.57 157.109
1976.62 120.973
1976.70 78.0669
1976.79 55.0325
1976.87 41.7694
1976.96 33.2971
1977.04 27.6690
1977.21 20.7526
1977.38 16.7662
1977.56 14.2454
1977.90 11.3123
1978.24 9.68763
1978.58 8.67661
1978.92 7.98924
1979.26 7.49624
1979.95 6.83524
1980.63 6.41284
1981.31 6.11800
1981.99 5.89880
1983.36 5.58707
1984.73 5.36647
1987.46 5.03678
1988.82 4.88861
1990.19 4.73384
1991.55 4.55851
1992.92 4.34358
1993.60 4.21240
1994.29 4.05920
1994.97 3.87945
1995.65 3.67548
1995.99 3.57272
1996.33 3.48784
1996.68 3.46157
1997.02 3.60796
1997.19 3.83772
1997.36 4.29105
1997.53 5.17837
1997.70 6.96486
1997.79 8.54199
1997.87 10.9143
1997.96 14.6588
1998.04 20.8768
1998.13 32.0959
1998.17 41.1275
1998.21 53.7252
1998.25 72.7150
1998.30 100.867
1998.34 145.811
1998.38 214.469
1998.44 364.465
1998.50 481.566
1998.56 409.389
1998.62 273.937
1998.69 172.412
1998.75 116.852
1998.82 84.8068
1998.88 65.0668
1998.95 52.1332
1999.01 43.2098
1999.14 32.0009
1999.27 25.4066
1999.40 21.2201
1999.66 16.2877
1999.92 13.5396
2000.18 11.8307
2000.44 10.6742
2000.70 9.84521
2001.22 8.74208
2001.74 8.04864
2002.26 7.57272
2002.78 7.22750
2003.83 6.75865
2004.87 6.45444
2005.91 6.23988
2006.95 6.07934
2009.03 5.85216
2011.11 5.69532
2015.28 5.48034
2019.44 5.31909
2021.52 5.24135
2023.61 5.15550
2025.69 5.04723
2026.73 4.97550
2027.77 4.88142
2028.29 4.82104
2028.81 4.74751
2029.33 4.65535
2029.85 4.53789
2030.37 4.38966
2030.63 4.31033
2030.89 4.25088
2031.02 4.24925
2031.15 4.29640
2031.28 4.44936
2031.41 4.84812
2031.54 5.88821
2031.61 6.98806
2031.67 8.96478
2031.74 12.8135
2031.77 16.2090
2031.80 21.2439
2031.84 29.5676
2031.87 43.2011
2031.89 54.2423
2031.90 68.3586
2031.92 87.4807
2031.93 113.201
2031.97 191.637
2032.00 252.233
2032.02 245.043
2032.03 214.927
2032.07 145.330
2032.09 106.634
2032.12 81.3804
2032.14 64.1491
2032.16 52.1293
2032.21 37.1316
2032.26 28.5619
2032.31 23.2164
2032.36 19.6488
2032.45 15.3004
2032.55 12.8007
2032.65 11.2398
2032.74 10.1778
2032.84 9.41553
2033.03 8.40080
2033.22 7.76948
2033.42 7.33858
2033.61 7.03000
2033.99 6.61603
2034.38 6.35273
2034.76 6.17072
2035.15 6.03727
2035.92 5.85411
2036.69 5.73345
2037.46 5.64712
2038.23 5.58175
2039.77 5.48749
2041.31 5.42118
2044.39 5.32977
2047.47 5.26549
2050.54 5.21460
2056.70 5.13154
2062.86 5.05647
2065.94 5.01715
2069.02 4.97318
2072.10 4.91906
2073.64 4.88457
2075.18 4.84076
2076.72 4.77975
2077.49 4.73764
2078.26 4.68213
2079.03 4.60463
2079.41 4.55373
2079.80 4.49345
2080.18 4.43137
2080.38 4.41312
2080.57 4.43342
2080.76 4.58107
2080.86 4.78742
2080.95 5.22060
2081.05 6.20150
2081.10 7.15665
2081.15 8.77319
2081.19 11.7129
2081.24 17.6093
2081.27 22.8679
2081.29 31.0809
2081.31 44.3480
2081.34 66.3382
2081.37 109.875
2081.40 145.071
2081.43 123.762
2081.46 83.6441
2081.49 61.5087
2081.51 46.8615
2081.53 36.6922
2081.56 30.0414
2081.60 21.7214
2081.65 17.0753
2081.70 14.2210
2081.74 12.3363
2081.84 10.0624
2081.93 8.77794
2082.03 7.97057
2082.21 7.03242
2082.40 6.51500
2082.59 6.19173
2082.97 5.81397
2083.34 5.60170
2083.72 5.46582
2084.47 5.30078
2085.22 5.20229
2085.97 5.13493
2087.48 5.04384
2088.98 4.97925
2090.49 4.92558
2093.49 4.82568
2096.50 4.70973
2098.01 4.63426
2099.51 4.53556
2100.26 4.47215
2101.01 4.39438
2101.77 4.29585
2102.52 4.16632
2102.89 4.08525
2103.27 3.99037
2103.65 3.88077
2104.02 3.76285
2104.21 3.71026
2104.40 3.67833
2104.59 3.70198
2104.77 3.87345
2104.96 4.47368
2105.06 5.19168
2105.15 6.58519
2105.24 9.52410
2105.29 12.2389
2105.34 16.6328
2105.38 24.1872
2105.41 30.2034
2105.43 38.2208
2105.46 50.1507
2105.48 66.8288
2105.50 92.7125
2105.53 129.530
2105.56 220.817
2105.60 291.900
2105.62 283.219
2105.64 247.726
2105.68 166.165
2105.71 112.507
2105.75 79.9854
2105.78 59.9942
2105.82 47.1161
2105.89 32.2622
2105.96 24.3685
2106.03 19.6574
2106.10 16.6010
2106.24 12.9650
2106.38 10.9304
2106.52 9.65508
2106.66 8.79076
2106.79 8.17446
2107.07 7.34821
2107.35 6.82811
2107.63 6.46883
2107.91 6.20669
2108.47 5.84360
2109.03 5.59917
2109.59 5.41576
2110.15 5.26553
2111.27 5.00503
2111.83 4.87502
2112.39 4.73445
2112.95 4.58241
2113.23 4.51234
2113.50 4.47618
2113.78 4.57076
2113.92 4.76671
2114.06 5.22608
2114.20 6.36176
2114.27 7.52472
2114.34 9.56863
2114.41 13.4520
2114.45 16.7476
2114.48 21.7015
2114.52 29.4655
2114.55 42.2255
2114.59 64.1978
2114.62 101.345
2114.66 169.561
2114.70 223.987
2114.74 191.591
2114.78 128.959
2114.81 93.8465
2114.84 70.4712
2114.87 54.9445
2114.90 44.6437
2114.96 31.7429
2115.02 24.4887
2115.08 19.9495
2115.13 17.0002
2115.25 13.4241
2115.37 11.3798
2115.49 10.1026
2115.61 9.22800
2115.73 8.60609
2115.96 7.77718
2116.20 7.25700
2116.44 6.90215
2116.67 6.64521
2117.15 6.29819
2117.62 6.07403
2118.10 5.91638
2118.57 5.79868
2119.52 5.63259
2120.47 5.51871
2122.36 5.36664
2124.26 5.26339
2126.15 5.18307
2129.95 5.04963
2133.74 4.91438
2135.63 4.83169
2137.53 4.72543
2138.48 4.65722
2139.43 4.57300
2140.37 4.46494
2141.32 4.31994
2141.80 4.22718
2142.27 4.11615
2142.74 3.98338
2143.22 3.83053
2143.46 3.75340
2143.69 3.68980
2143.93 3.67180
2144.17 3.78809
2144.29 3.96841
2144.40 4.31903
2144.52 5.00789
2144.64 6.38625
2144.76 9.42613
2144.82 12.2860
2144.88 17.0049
2144.94 25.3096
2144.97 32.0268
2145.00 41.2155
2145.03 55.0552
2145.05 75.0696
2145.08 106.798
2145.11 153.837
2145.16 262.483
2145.20 347.607
2145.24 295.856
2145.29 198.694
2145.33 135.333
2145.37 96.5371
2145.41 72.5021
2145.45 57.2494
2145.53 39.0347
2145.61 29.4151
2145.69 23.5743
2145.76 19.8231
2145.92 15.3164
2146.08 12.7906
2146.24 11.2069
2146.40 10.1341
2146.56 9.36957
2146.88 8.34868
2147.19 7.70837
2147.51 7.27202
2147.83 6.95754
2148.47 6.53321
2149.10 6.26194
2149.74 6.07331
2150.37 5.93435
2151.64 5.74242
2152.91 5.61525
2154.18 5.52384
2155.45 5.45430
2158.00 5.35343
2160.54 5.28167
2165.62 5.17965
2175.78 5.02691
2178.33 4.98336
2180.87 4.92490
2182.14 4.88167
2183.41 4.81451
2184.04 4.76166
2184.68 4.68472
2185.00 4.63825
2185.31 4.62200
2185.47 4.69265
2185.55 4.80331
2185.63 5.04116
2185.71 5.60068
2185.75 6.15522
2185.79 7.07428
2185.83 8.79616
2185.87 12.1653
2185.89 15.2416
2185.91 20.0690
2185.93 27.9044
2185.95 40.5830
2185.96 51.6728
2185.97 65.8180
2186.00 86.9991
2186.03 74.5980
2186.05 51.3830
2186.08 33.7782
2186.11 24.2574
2186.14 18.6065
2186.17 15.2651
2186.19 13.0030
2186.22 11.4997
2186.28 9.57458
2186.34 8.44976
2186.39 7.72892
2186.51 6.87903
2186.62 6.40589
2186.74 6.10952
2186.96 5.76372
2187.42 5.44789
2187.88 5.30075
2188.79 5.15701
2189.70 5.08177
2191.52 4.99121
2193.34 4.92246
2195.17 4.84946
2196.08 4.80435
2196.99 4.74734
2197.90 4.66903
2198.36 4.61695
2198.81 4.55294
2199.27 4.47789
2199.50 4.44339
2199.73 4.43018
2199.95 4.50036
2200.07 4.62998
2200.18 4.92984
2200.30 5.65927
2200.35 6.40272
2200.41 7.70635
2200.47 10.1792
2200.52 15.4274
2200.55 20.4764
2200.58 28.4907
2200.61 42.1866
2200.64 66.9921
2200.67 110.544
2200.70 146.434
2200.73 124.658
2200.76 84.3982
2200.80 53.2963
2200.84 36.4795
2200.87 27.0921
2200.91 21.5587
2200.95 17.8700
2200.98 15.3562
2201.06 12.2674
2201.13 10.4507
2201.20 9.30842
2201.35 7.96422
2201.50 7.21358
2201.64 6.74804
2201.94 6.20448
2202.23 5.90132
2202.52 5.71029
2203.11 5.48238
2203.70 5.34998
2204.28 5.26242
2205.45 5.15000
2206.63 5.07646
2207.80 5.02036
2210.15 4.92777
2212.49 4.83332
2213.66 4.77568
2214.84 4.70260
2216.01 4.60073
2216.60 4.53146
2217.18 4.44335
2217.77 4.33209
2218.06 4.27203
2218.35 4.22559
2218.65 4.25361
2218.79 4.36156
2218.94 4.64582
2219.09 5.40020
2219.16 6.19754
2219.23 7.63427
2219.31 10.4949
2219.34 13.0006
2219.38 16.7438
2219.42 22.9443
2219.45 33.2132
2219.49 52.3075
2219.51 67.0230
2219.53 87.0024
2219.56 146.448
2219.60 194.453
2219.64 165.857
2219.67 111.167
2219.71 77.0087
2219.74 55.8707
2219.77 42.6509
2219.81 34.2403
2219.87 24.0654
2219.94 18.6733
2220.00 15.3788
2220.07 13.2646
2220.20 10.7309
2220.33 9.29643
2220.46 8.40315
2220.59 7.79307
2220.72 7.35922
2220.98 6.77965
2221.24 6.41759
2221.50 6.17059
2221.76 5.99183
2222.29 5.75042
2222.81 5.59538
2223.33 5.48681
2223.85 5.40611
2224.90 5.29284
2225.94 5.21569
2228.03 5.11268
2230.12 5.04174
2232.21 4.98503
2236.39 4.88562
2240.57 4.77779
2242.66 4.70984
2244.75 4.62188
2245.79 4.56545
2246.83 4.49613
2247.88 4.40770
2248.92 4.29025
2249.45 4.21563
2249.97 4.12718
2250.49 4.02254
2251.01 3.90419
2251.54 3.80057
2251.80 3.79494
2252.06 3.90225
2252.32 4.35126
2252.45 4.92006
2252.58 6.04485
2252.71 8.49361
2252.78 10.7776
2252.84 14.5170
2252.91 21.1682
2252.97 33.6187
2253.00 44.3132
2253.04 59.6748
2253.07 83.6613
2253.10 118.876
2253.15 202.264
2253.20 267.942
2253.25 228.174
2253.30 153.349
2253.35 101.072
2253.40 70.6148
2253.45 52.4708
2253.50 41.0398
2253.55 33.4307
2253.60 28.1202
2253.70 21.4235
2253.80 17.4159
2253.90 14.8536
2254.10 11.7959
2254.30 10.0877
2254.49 9.01705
2254.69 8.29110
2254.89 7.76996
2255.29 7.07505
2255.69 6.63743
2256.09 6.33660
2256.49 6.11690
2257.28 5.81544
2258.08 5.61553
2258.87 5.46906
2259.67 5.35278
2261.26 5.16182
2262.06 5.07037
2262.86 4.96991
2263.65 4.84672
2264.05 4.77013
2264.45 4.67930
2264.85 4.57697
2265.05 4.53204
2265.24 4.51834
2265.44 4.62110
2265.54 4.80295
2265.64 5.21096
2265.74 6.19617
2265.79 7.18975
2265.84 8.86980
2265.89 12.0575
2265.94 18.6742
2265.97 24.7600
2265.99 34.5360
2266.02 50.8743
2266.04 77.2854
2266.06 100.779
2266.07 129.038
2266.10 170.881
2266.12 166.215
2266.13 146.360
2266.16 98.7872
2266.18 77.1768
2266.20 61.3989
2266.23 41.6690
2266.27 30.7531
2266.30 24.2120
2266.34 20.0046
2266.38 17.1380
2266.45 13.5780
2266.52 11.5155
2266.59 10.2002
2266.74 8.66254
2266.88 7.80090
2267.02 7.26466
2267.31 6.63523
2267.60 6.28257
2267.88 6.05792
2268.46 5.78762
2269.03 5.62905
2269.61 5.52358
2270.75 5.38834
2271.90 5.30187
2273.05 5.23936
2275.35 5.14971
2277.64 5.08317
2279.94 5.02731
2284.53 4.92566
2289.13 4.81297
2291.43 4.74108
2293.72 4.64683
2294.87 4.58548
2296.02 4.50909
2297.17 4.40986
2298.32 4.27458
2298.89 4.18620
2299.46 4.07837
2300.04 3.94492
2300.61 3.78044
2301.19 3.59453
2301.47 3.51947
2301.76 3.51968
2301.90 3.59685
2302.05 3.78965
2302.19 4.22022
2302.33 5.15917
2302.48 7.36837
2302.55 9.56137
2302.62 13.2524
2302.69 20.1157
2302.73 25.7735
2302.77 34.0560
2302.80 46.6104
2302.84 66.3728
2302.87 98.5711
2302.91 149.719
2302.95 255.319
2303.00 341.155
2303.05 291.435
2303.09 194.730
2303.12 147.681
2303.15 114.352
2303.21 74.6728
2303.27 53.0653
2303.33 40.6034
2303.39 32.5574
2303.45 27.2166
2303.57 20.6125
2303.69 16.7725
2303.81 14.3341
2304.04 11.4867
2304.28 9.89995
2304.52 8.91117
2304.76 8.23732
2304.99 7.75483
2305.47 7.10949
2305.94 6.70075
2306.42 6.41955
2306.89 6.21487
2307.84 5.93567
2308.79 5.75413
2309.74 5.62607
2310.69 5.53047
2312.59 5.39560
2314.49 5.30346
2318.29 5.18083
2322.09 5.09747
2325.89 5.03211
2333.48 4.92185
2341.08 4.80919
2344.88 4.74124
2348.68 4.65564
2352.48 4.53560
2354.38 4.45142
2356.28 4.33813
2357.23 4.26449
2358.18 4.17415
2359.13 4.06077
2360.08 3.91613
2360.55 3.82961
2361.03 3.73460
2361.50 3.63831
2361.98 3.56864
2362.21 3.56975
2362.45 3.63228
2362.69 3.82857
2362.93 4.33107
2363.16 5.63678
2363.28 7.01284
2363.40 9.45223
2363.52 14.2140
2363.58 18.2819
2363.64 24.4608
2363.70 34.4801
2363.76 51.0162
2363.82 80.1617
2363.87 132.930
2363.94 225.723
2364.00 300.756
2364.06 256.885
2364.13 171.819
2364.18 122.336
2364.23 90.7000
2364.28 69.6108
2364.33 55.6766
2364.43 38.6842
2364.53 29.3593
2364.63 23.5907
2364.73 19.7937
2364.93 15.2378
2365.13 12.6489
2365.34 11.0270
2365.54 9.92504
2365.74 9.13412
2366.14 8.08213
2366.54 7.42345
2366.95 6.97307
2367.35 6.64796
2368.15 6.20827
2368.96 5.92492
2369.76 5.72542
2370.57 5.57581
2372.18 5.36133
2373.79 5.20804
2377.01 4.97606
2378.62 4.87053
2380.23 4.75928
2381.84 4.63129
2383.45 4.47024
2384.26 4.36867
2385.06 4.24576
2385.87 4.09257
2386.67 3.89700
2387.08 3.77937
2387.48 3.64929
2387.88 3.51417
2388.28 3.40795
2388.48 3.39756
2388.69 3.46247
2388.89 3.69180
2389.09 4.30396
2389.29 5.92659
2389.39 7.65080
2389.49 10.7136
2389.54 13.2165
2389.59 16.7150
2389.64 21.8380
2389.69 29.6148
2389.74 42.2559
2389.79 63.0223
2389.84 99.4863
2389.89 165.166
2389.95 281.837
2390.00 376.742
2390.05 322.600
2390.11 216.072
2390.15 155.840
2390.19 115.943
2390.23 89.5425
2390.28 71.5693
2390.36 49.6917
2390.44 37.5876
2390.53 30.0335
2390.61 25.0890
2390.78 19.0540
2390.95 15.6096
2391.11 13.4495
2391.28 11.9798
2391.45 10.9238
2391.78 9.51789
2392.12 8.63813
2392.45 8.03843
2392.78 7.60513
2393.45 7.02220
2394.12 6.64955
2394.79 6.39081
2395.46 6.20061
2396.80 5.93783
2398.13 5.76373
2399.47 5.63830
2400.81 5.54262
2403.48 5.40306
2406.16 5.30239
2411.51 5.15395
2416.86 5.02840
2419.53 4.96156
2422.21 4.88289
2424.88 4.77797
2426.22 4.70624
2427.56 4.61092
2428.23 4.54942
2428.89 4.47439
2429.56 4.38091
2430.23 4.26320
2430.90 4.11979
2431.23 4.04874
2431.57 4.00847
2431.90 4.10146
2432.07 4.30338
2432.24 4.78897
2432.40 5.99505
2432.49 7.24439
2432.57 9.41581
2432.66 13.5911
2432.70 17.1398
2432.74 22.3212
2432.78 30.5925
2432.82 44.1592
2432.86 67.4534
2432.91 106.974
2432.95 181.561
2433.00 240.290
2433.05 205.059
2433.10 138.327
2433.15 87.9243
2433.20 60.4861
2433.25 44.4176
2433.31 34.7366
2433.36 28.2786
2433.41 23.9113
2433.52 18.3647
2433.62 15.1197
2433.73 13.0386
2433.93 10.5921
2434.14 9.22203
2434.35 8.36467
2434.56 7.78356
2434.77 7.36807
2435.19 6.81195
2435.61 6.46143
2436.03 6.22009
2436.45 6.04468
2437.29 5.80557
2438.13 5.64963
2438.97 5.53898
2439.81 5.45568
2441.48 5.33605
2443.16 5.25143
2446.52 5.12973
2449.87 5.03022
2451.55 4.97870
2453.23 4.91927
2454.91 4.84145
2455.75 4.78886
2456.58 4.71930
2457.42 4.61996
2457.84 4.55172
2458.26 4.46538
2458.68 4.35828
2458.89 4.30295
2459.10 4.26628
2459.31 4.31565
2459.42 4.44371
2459.52 4.75828
2459.63 5.55929
2459.68 6.39982
2459.73 7.85631
2459.78 10.6861
2459.84 16.5675
2459.86 22.0422
2459.89 30.9324
2459.91 46.0040
2459.93 57.2785
2459.94 72.6815
2459.96 95.7462
2459.97 122.469
2460.00 162.189
2460.02 158.231
2460.03 139.954
2460.06 94.5275
2460.09 62.6150
2460.12 44.3854
2460.16 33.2761
2460.19 26.5470
2460.22 21.9415
2460.25 18.8383
2460.31 14.8318
2460.38 12.4680
2460.44 10.9439
2460.56 9.14780
2460.69 8.13379
2460.82 7.49791
2461.07 6.75841
2461.32 6.34449
2461.57 6.08388
2462.07 5.77424
2462.57 5.59637
2463.08 5.48069
2464.08 5.33775
2465.09 5.25083
2466.09 5.19090
2468.10 5.11002
2470.11 5.05435
2472.13 5.01085
2476.15 4.94099
2484.19 4.82253
2492.23 4.69618
2496.25 4.62029
2500.28 4.52896
2504.30 4.41330
2508.32 4.25804
2510.33 4.15734
2512.34 4.03411
2514.35 3.88032
2516.36 3.68642
2517.37 3.57260
2518.37 3.45102
2519.38 3.33501
2520.38 3.27140
2520.89 3.30099
2521.39 3.43005
2521.89 3.76763
2522.39 4.57220
2522.90 6.56224
2523.15 8.59350
2523.40 12.1475
2523.65 18.8805
2523.78 24.5546
2523.90 32.9379
2524.03 46.0221
2524.15 67.0009
2524.28 102.643
2524.40 163.205
2524.55 278.221
2524.70 371.619
2524.85 318.391
2525.00 213.433
2525.12 149.914
2525.25 109.313
2525.37 83.2555
2525.50 66.0399
2525.75 45.3715
2525.99 34.1128
2526.24 27.2447
2526.49 22.7552
2526.99 17.3533
2527.49 14.2962
2527.99 12.3743
2528.49 11.0656
2528.99 10.1276
2529.98 8.87783
2530.98 8.09176
2531.98 7.55371
2532.97 7.16280
2534.97 6.63151
2536.96 6.28432
2538.96 6.03492
2540.95 5.84186
2544.94 5.53986
2546.93 5.40340
2548.93 5.25856
2550.92 5.08297
2551.92 4.97034
2552.92 4.82660
2553.42 4.73672
2553.91 4.62998
2554.41 4.50088
2554.91 4.34604
2555.41 4.17598
2555.66 4.11072
2555.91 4.11723
2556.16 4.37218
2556.28 4.76371
2556.41 5.59663
2556.53 7.50298
2556.59 9.32727
2556.66 12.3591
2556.72 17.8269
2556.78 28.1673
2556.81 36.9425
2556.84 49.9939
2556.87 69.8092
2556.91 99.9212
2556.95 171.373
2557.00 229.188
2557.05 197.650
2557.10 134.652
2557.13 104.060
2557.15 82.6010
2557.21 55.7811
2557.27 40.9249
2557.33 31.9990
2557.39 26.2383
2557.44 22.2993
2557.56 17.3820
2557.68 14.5128
2557.79 12.6709
2558.02 10.4889
2558.26 9.26428
2558.49 8.49072
2558.72 7.96153
2558.95 7.57815
2559.42 7.06121
2559.88 6.72892
2560.34 6.49671
2560.81 6.32445
2561.74 6.08317
2562.67 5.91904
2564.52 5.69803
2566.38 5.53781
2568.23 5.38716
2569.16 5.29779
2570.09 5.17813
2570.55 5.09653
2571.02 5.00164
2571.25 4.97563
2571.37 4.99607
2571.48 5.08605
2571.60 5.36857
2571.66 5.69117
2571.71 6.29766
2571.77 7.53107
2571.80 8.63495
2571.83 10.3700
2571.86 13.2407
2571.89 18.2977
2571.92 27.8474
2571.93 36.0134
2571.95 46.7881
2571.96 60.9602
2571.97 76.8018
2572.00 101.296
2572.03 87.3736
2572.05 59.9051
2572.07 46.2163
2572.09 37.0191
2572.12 25.4890
2572.16 19.3116
2572.19 15.7651
2572.23 13.4331
2572.26 11.8598
2572.33 9.94279
2572.40 8.81952
2572.47 8.11407
2572.61 7.27660
2572.89 6.51406
2573.17 6.16609
2573.72 5.83504
2574.28 5.66982
2575.39 5.48460
2576.50 5.35806
2577.61 5.23611
2578.17 5.16541
2578.72 5.08008
2579.28 4.96978
2579.55 4.90186
2579.83 4.82724
2580.11 4.76374
2580.25 4.76141
2580.39 4.82807
2580.53 5.10104
2580.60 5.44376
2580.66 6.10878
2580.73 7.54348
2580.77 8.87633
2580.80 10.9592
2580.84 14.6137
2580.87 21.0971
2580.89 26.7145
2580.91 34.3736
2580.92 45.4865
2580.94 62.3705
2580.96 80.9416
2580.97 104.342
2581.00 138.219
2581.03 119.438
2581.06 81.3027
2581.08 62.9342
2581.10 50.1998
2581.13 34.0940
2581.17 25.3739
2581.21 20.2185
2581.24 16.9298
2581.28 14.7006
2581.35 11.9703
2581.43 10.3652
2581.50 9.34253
2581.65 8.14583
2581.80 7.47334
2581.94 7.05311
2582.24 6.55702
2582.53 6.27674
2582.83 6.09671
2583.42 5.87779
2584.01 5.74691
2584.60 5.65789
2585.78 5.53974
2586.96 5.45939
2588.14 5.39659
2590.49 5.29167
2592.85 5.18647
2594.03 5.12379
2595.21 5.04533
2596.39 4.93638
2596.98 4.86149
2597.57 4.76418
2598.16 4.63378
2598.45 4.55448
2598.75 4.47321
2599.04 4.42703
2599.19 4.46271
2599.34 4.62144
2599.49 5.12706
2599.56 5.70693
2599.63 6.77838
2599.71 8.97383
2599.74 10.9309
2599.78 13.8881
2599.82 18.8411
2599.85 27.4422
2599.89 43.3336
2599.91 55.7131
2599.93 72.8692
2599.96 123.564
2600.00 164.266
2600.04 142.484
2600.07 96.6744
2600.11 64.0189
2600.15 44.9479
2600.19 33.8154
2600.23 26.8983
2600.27 22.3353
2600.31 19.1692
2600.38 15.2035
2600.46 12.8283
2600.54 11.3136
2600.69 9.49874
2600.85 8.47487
2601.00 7.83476
2601.31 7.08354
2601.63 6.66090
2601.94 6.39312
2602.56 6.07221
2603.18 5.88631
2603.80 5.76394
2605.04 5.60971
2606.28 5.51259
2607.52 5.44234
2610.01 5.33734
2612.49 5.24552
2613.73 5.19504
2614.97 5.13431
2616.22 5.05181
2616.84 4.99515
2617.46 4.92047
2618.08 4.81630
2618.39 4.74825
2618.70 4.66915
2619.01 4.59172
2619.16 4.57472
2619.32 4.61617
2619.47 4.84096
2619.55 5.14208
2619.63 5.74643
2619.71 7.08571
2619.75 8.35505
2619.78 10.3786
2619.82 13.9918
2619.86 20.8410
2619.88 26.7930
2619.90 35.1551
2619.92 47.6454
2619.94 67.2701
2619.96 88.1718
2619.97 112.924
2620.00 149.984
2620.02 146.366
2620.03 129.423
2620.06 87.9275
2620.09 58.1025
2620.12 41.3860
2620.15 31.4589
2620.19 25.2122
2620.22 20.9442
2620.25 18.0721
2620.31 14.4121
2620.37 12.2122
2620.44 10.8144
2620.56 9.14859
2620.68 8.20650
2620.81 7.61497
2621.06 6.92614
2621.31 6.54003
2621.56 6.29672
2622.06 6.00740
2622.55 5.84117
2623.05 5.73312
2624.05 5.59993
2625.05 5.51942
2626.05 5.46439
2628.04 5.39146
2630.04 5.34292
2632.03 5.30651
2636.02 5.25195
2640.01 5.20949
2644.00 5.17274
2651.98 5.10483
2659.96 5.03111
2663.95 4.98569
2667.94 4.92766
2669.93 4.89049
2671.93 4.84444
2673.92 4.78460
2675.92 4.70187
2676.91 4.64659
2677.91 4.57704
2678.91 4.48639
2679.91 4.36373
2680.90 4.19063
2681.40 4.07835
2681.90 3.95089
2682.40 3.83836
2682.65 3.83106
2682.90 3.94341
2683.15 4.41812
2683.27 5.01475
2683.40 6.18358
2683.52 8.69135
2683.58 10.9923
2683.65 14.6963
2683.71 21.1328
2683.77 32.7524
2683.80 42.2138
2683.83 55.7863
2683.86 75.5406
2683.89 104.215
2683.95 177.575
2684.00 238.011
2684.05 205.061
2684.11 138.544
2684.17 88.5923
2684.22 61.2073
2684.28 45.1371
2684.34 35.4019
2684.40 28.9006
2684.46 24.4829
2684.57 18.8947
2684.69 15.5761
2684.81 13.4559
2685.04 10.9278
2685.27 9.51151
2685.51 8.62056
2685.74 8.01422
2685.97 7.57748
2686.44 6.99310
2686.90 6.62374
2687.37 6.36968
2687.84 6.18452
2688.77 5.93262
2689.70 5.76930
2690.63 5.65424
2691.57 5.56835
2693.43 5.44719
2695.30 5.36392
2697.16 5.30109
2699.02 5.24998
2702.75 5.16371
2706.48 5.07418
2708.35 5.01362
2709.28 4.97304
2710.21 4.91927
2711.15 4.84146
2711.61 4.78705
2712.08 4.71592
2712.54 4.62171
2713.01 4.51299
2713.24 4.49759
2713.36 4.54481
2713.48 4.70113
2713.59 5.15843
2713.65 5.66027
2713.71 6.58286
2713.77 8.45882
2713.80 10.0866
2713.83 12.6013
2713.85 16.6715
2713.88 23.6339
2713.90 29.1921
2713.91 36.2641
2713.93 46.6823
2713.94 60.2858
2713.96 78.7219
2713.97 101.322
2714.00 133.935
2714.03 115.963
2714.06 78.7133
2714.08 56.7338
2714.11 42.2142
2714.13 32.9225
2714.16 26.7588
2714.21 19.4458
2714.26 15.5174
2714.31 13.0749
2714.36 11.4750
2714.46 9.56834
2714.56 8.47948
2714.66 7.80002
2714.85 7.00398
2715.05 6.55849
2715.25 6.27818
2715.65 5.94856
2716.05 5.76127
2716.44 5.64117
2717.24 5.49524
2718.03 5.40891
2718.83 5.35113
2720.42 5.27686
2722.01 5.22922
2723.60 5.19462
2726.77 5.14449
2729.95 5.10664
2733.13 5.07433
2739.49 5.01468
2745.85 4.94889
2749.03 4.90766
2752.21 4.85434
2753.80 4.81987
2755.38 4.77694
2756.97 4.72077
2758.56 4.64265
2760.15 4.52387
2760.95 4.43708
2761.74 4.31890
2762.54 4.15028
2762.93 4.03939
2763.33 3.91027
2763.73 3.78691
2763.93 3.76496
2764.13 3.84700
2764.33 4.25334
2764.42 4.78029
2764.52 5.84075
2764.62 8.16927
2764.67 10.3642
2764.72 13.8730
2764.77 20.0750
2764.80 24.9354
2764.82 31.4163
2764.85 41.0220
2764.87 55.1099
2764.90 76.1487
2764.92 106.777
2764.96 181.134
2765.00 243.111
2765.02 237.109
2765.04 208.873
2765.08 141.319
2765.12 97.1991
2765.15 70.3280
2765.19 53.5098
2765.22 42.5253
2765.30 29.6752
2765.37 22.7487
2765.44 18.5738
2765.51 15.8453
2765.66 12.5743
2765.80 10.7294
2765.94 9.56686
2766.09 8.77610
2766.23 8.20752
2766.52 7.45056
2766.81 6.97348
2767.10 6.64720
2767.38 6.41074
2767.96 6.09189
2768.54 5.88722
2769.11 5.74474
2769.69 5.63974
2770.84 5.49474
2771.99 5.39883
2773.15 5.32998
2774.30 5.27760
2776.60 5.20167
2778.91 5.14750
2783.51 5.06950
2792.73 4.94515
2795.04 4.90630
2797.34 4.85081
2798.49 4.80751
2799.64 4.73749
2800.22 4.68118
2800.80 4.59846
2801.08 4.54926
2801.37 4.53628
2801.52 4.61966
2801.66 5.00975
2801.73 5.61225
2801.77 6.19458
2801.80 7.16823
2801.84 8.90283
2801.88 12.2651
2801.89 15.1570
2801.91 19.5149
2801.93 26.2421
2801.95 37.0238
2801.96 48.1251
2801.97 60.9590
2802.00 80.1756
2802.03 69.7438
2802.05 48.0671
2802.08 33.4980
2802.10 24.9079
2802.13 19.4703
2802.15 16.1300
2802.21 12.2082
2802.26 10.1636
2802.31 8.91452
2802.36 8.11762
2802.46 7.15358
2802.66 6.26846
2802.86 5.86754
2803.27 5.50069
2803.67 5.33183
2804.48 5.17083
2805.29 5.09126
2806.91 5.00696
2808.52 4.95742
2811.76 4.88851
2815.00 4.82811
2818.23 4.75935
2819.85 4.71604
2821.47 4.66073
2823.08 4.58267
2823.89 4.52793
2824.70 4.45434
2825.51 4.34829
2825.92 4.27529
2826.32 4.18301
2826.73 4.06911
2826.93 4.01099
2827.13 3.97342
2827.33 4.02895
2827.43 4.16658
2827.53 4.50469
2827.63 5.34857
2827.69 6.22396
2827.74 7.72222
2827.79 10.5889
2827.84 16.4004
2827.86 21.9440
2827.89 30.4762
2827.91 44.5235
2827.94 68.4256
2827.95 89.7270
2827.97 116.020
2828.00 154.302
2828.03 133.636
2828.06 90.5668
2828.08 70.4702
2828.10 56.1520
2828.14 37.9128
2828.18 27.9484
2828.22 22.1424
2828.26 18.3061
2828.30 15.7015
2828.37 12.5051
2828.45 10.6248
2828.53 9.43830
2828.68 8.02778
2828.84 7.23993
2828.99 6.74416
2829.30 6.16325
2829.61 5.83469
2829.92 5.62460
2830.54 5.37099
2831.16 5.22103
2831.78 5.12012
2833.02 4.98691
2834.26 4.89591
2835.50 4.82286
2837.97 4.69185
2839.21 4.62256
2840.45 4.54379
2841.69 4.44848
2842.93 4.32557
2844.17 4.15644
2844.79 4.04609
2845.41 3.91640
2846.03 3.78437
2846.34 3.74742
2846.65 3.79456
2846.96 4.11355
2847.11 4.55379
2847.27 5.45803
2847.42 7.47733
2847.50 9.42332
2847.58 12.6119
2847.65 18.3287
2847.73 29.1765
2847.77 38.5556
2847.81 52.1950
2847.85 73.5640
2847.89 105.354
2847.94 179.139
2848.00 237.905
2848.06 204.181
2848.12 138.348
2848.16 98.9652
2848.21 73.7675
2848.26 56.9219
2848.30 45.8018
2848.39 32.2131
2848.49 24.6872
2848.58 20.0796
2848.67 17.0397
2848.86 13.3679
2849.05 11.2862
2849.23 9.97175
2849.42 9.07722
2849.60 8.43409
2849.98 7.57827
2850.35 7.03915
2850.72 6.67032
2851.09 6.40270
2851.84 6.04048
2852.58 5.80595
2853.32 5.64055
2854.07 5.51663
2855.55 5.33937
2857.04 5.21415
2860.02 5.03162
2862.99 4.87623
2864.48 4.79262
2865.97 4.69436
2867.45 4.56568
2868.20 4.48058
2868.94 4.37236
2869.69 4.22924
2870.06 4.14170
2870.43 4.04858
2870.80 3.98236
2870.99 4.00014
2871.17 4.13018
2871.36 4.58086
2871.45 5.11409
2871.55 6.13659
2871.64 8.25452
2871.69 10.2011
2871.73 13.2267
2871.78 18.4102
2871.82 27.4817
2871.85 34.6933
2871.87 44.8276
2871.89 59.2322
2871.92 79.8276
2871.96 134.637
2872.00 179.731
2872.04 154.637
2872.08 104.795
2872.12 75.2805
2872.15 55.7303
2872.19 43.1192
2872.22 34.9015
2872.29 24.8638
2872.36 19.3282
2872.43 15.9467
2872.50 13.7182
2872.64 11.0276
2872.77 9.50134
2872.91 8.53619
2873.05 7.87793
2873.19 7.40332
2873.47 6.76668
2873.74 6.36353
2874.02 6.08420
2874.29 5.87823
2874.85 5.59032
2875.40 5.39294
2876.50 5.11437
2877.61 4.88440
2878.16 4.76314
2878.71 4.62535
2879.27 4.46059
2879.54 4.36917
2879.82 4.28459
2880.09 4.26075
2880.23 4.33178
2880.37 4.56544
2880.51 5.23004
2880.58 5.95326
2880.65 7.26530
2880.72 9.82109
2880.78 15.3566
2880.82 20.7192
2880.85 29.3333
2880.89 44.7203
2880.92 71.6963
2880.96 121.052
2881.00 162.714
2881.04 140.659
2881.08 96.1035
2881.11 70.2360
2881.14 52.8673
2881.17 41.4471
2881.20 33.7104
2881.26 24.3332
2881.33 19.1114
2881.39 15.9003
2881.45 13.7737
2881.57 11.1930
2881.70 9.72123
2881.82 8.78706
2882.07 7.68676
2882.32 7.06875
2882.57 6.67600
2883.06 6.20732
2883.56 5.93530
2884.05 5.75628
2885.04 5.53082
2886.04 5.38957
2887.03 5.28902
2889.01 5.14644
2890.99 5.04041
2892.97 4.94973
2896.94 4.77639
2898.92 4.68076
2900.90 4.56990
2902.89 4.43350
2904.87 4.25503
2905.86 4.14155
2906.85 4.00551
2907.84 3.84073
2908.83 3.64396
2909.83 3.43634
2910.32 3.36857
2910.82 3.41357
2911.31 3.82907
2911.56 4.42025
2911.81 5.64642
2912.06 8.37372
2912.18 10.9618
2912.30 15.2160
2912.43 22.6252
2912.55 36.5284
2912.61 48.1133
2912.68 65.0598
2912.74 90.2803
2912.80 127.040
2912.90 219.239
2913.00 295.237
2913.10 254.982
2913.20 172.832
2913.32 109.218
2913.43 74.3359
2913.55 54.4823
2913.66 42.4268
2913.78 34.4732
2913.89 28.9935
2914.12 22.1276
2914.35 18.0764
2914.58 15.4777
2915.04 12.3835
2915.50 10.6454
2915.96 9.54844
2916.41 8.79943
2916.87 8.25919
2917.79 7.53245
2918.71 7.06955
2919.63 6.74891
2920.54 6.51411
2922.38 6.19204
2924.21 5.98045
2926.05 5.82954
2927.88 5.71543
2931.55 5.55137
2935.22 5.43534
2942.56 5.26958
2949.90 5.13733
2953.57 5.07147
2957.24 4.99887
2960.91 4.91014
2962.75 4.85378
2964.58 4.78234
2966.42 4.68316
2967.34 4.61458
2968.25 4.52353
2969.17 4.39361
2969.63 4.30491
2970.09 4.19313
2970.55 4.05494
2970.78 3.98311
2971.01 3.93378
2971.24 3.98848
2971.35 4.13988
2971.47 4.51286
2971.58 5.45279
2971.64 6.40288
2971.69 8.04544
2971.75 11.1487
2971.81 17.3469
2971.84 22.9957
2971.87 31.4773
2971.90 45.5732
2971.92 67.9424
2971.96 115.871
2972.00 155.187
2972.04 135.171
2972.08 92.1863
2972.12 59.9751
2972.16 42.0499
2972.20 31.4465
2972.25 25.0575
2972.29 20.7572
2972.33 17.8500
2972.42 14.1267
2972.50 11.9321
2972.59 10.5147
2972.76 8.82769
2972.93 7.87765
2973.10 7.27675
2973.44 6.56749
2973.78 6.16579
2974.12 5.90761
2974.80 5.59313
2975.48 5.40510
2976.16 5.27629
2977.52 5.10133
2978.88 4.97570
2980.24 4.86914
2982.96 4.66213
2984.32 4.54488
2985.68 4.40691
2987.04 4.23590
2988.40 4.01333
2989.08 3.87456
2989.76 3.71260
2990.44 3.52654
2991.12 3.32931
2991.46 3.24433
2991.80 3.19840
2992.14 3.25395
2992.48 3.57283
2992.82 4.63562
2992.99 5.87388
2993.16 8.22223
2993.24 10.1717
2993.33 13.0204
2993.41 17.3172
2993.50 24.0595
2993.58 35.1717
2993.67 54.6074
2993.75 90.8816
2993.79 120.756
2993.84 161.347
2993.92 277.739
2994.00 374.173
2994.08 322.375
2994.16 217.051
2994.22 162.434
2994.28 125.005
2994.33 98.9940
2994.39 80.5774
2994.50 57.0685
2994.61 43.5582
2994.73 34.9617
2994.84 29.2290
2995.06 22.1417
2995.29 18.0611
2995.51 15.4622
2995.74 13.6846
2995.96 12.4079
2996.41 10.6976
2996.86 9.62268
2997.31 8.88716
2997.76 8.35653
2998.66 7.64246
2999.56 7.18606
3000.46 6.86946
3001.36 6.63678
3003.16 6.31638
3004.95 6.10453
3006.75 5.95183
3008.55 5.83434
3012.15 5.65629
3015.74 5.50498
3017.54 5.41908
3018.44 5.36618
3019.34 5.29968
3020.24 5.20796
3021.14 5.06563
3021.59 4.96156
3022.04 4.84512
3022.26 4.83197
3022.37 4.88608
3022.49 5.05814
3022.60 5.54938
3022.66 6.07870
3022.71 7.03528
3022.77 8.88893
3022.82 12.8707
3022.85 16.6250
3022.88 22.7770
3022.91 33.3014
3022.94 51.6383
3022.97 86.9411
3023.00 115.332
3023.03 99.9806
3023.07 69.2130
3023.09 51.5846
3023.11 40.0929
3023.14 32.0269
3023.16 26.6836
3023.21 19.9186
3023.26 16.0824
3023.31 13.6962
3023.36 12.1037
3023.46 10.1723
3023.55 9.05064
3023.65 8.34324
3023.85 7.50308
3024.04 7.03145
3024.24 6.73264
3024.63 6.37814
3025.02 6.17529
3025.41 6.04437
3026.19 5.88381
3026.97 5.78755
3027.75 5.72234
3029.31 5.63703
3030.87 5.58134
3032.43 5.54057
3035.55 5.48195
3038.67 5.43954
3041.79 5.40601
3048.03 5.35407
3060.52 5.28060
3073.00 5.22611
3097.97 5.13410
3104.22 5.10773
3110.46 5.07249
3113.58 5.04591
3116.70 5.00213
3118.26 4.96409
3119.82 4.89716
3120.60 4.83877
3121.38 4.74309
3121.77 4.67229
3122.16 4.59692
3122.36 4.59920
3122.55 4.79403
3122.65 5.18718
3122.70 5.60650
3122.75 6.33730
3122.80 7.76090
3122.84 10.7836
3122.87 13.6763
3122.89 18.1789
3122.92 25.6993
3122.94 38.6490
3122.96 50.1193
3122.97 64.2573
3123.00 85.0386
3123.03 74.4445
3123.06 51.4742
3123.08 38.2474
3123.11 29.2896
3123.13 23.4425
3123.15 19.5040
3123.20 14.7570
3123.25 12.1690
3123.30 10.5410
3123.35 9.46621
3123.44 8.17541
3123.63 6.96495
3123.82 6.41266
3124.20 5.90831
3124.59 5.67737
3125.35 5.46200
3126.11 5.36005
3127.64 5.26082
3129.17 5.21100
3132.22 5.15810
3135.28 5.12757
3141.39 5.08715
3147.50 5.05441
3153.61 5.01968
3156.66 4.99860
3159.72 4.97196
3162.77 4.93414
3164.30 4.90702
3165.83 4.86941
3167.36 4.81194
3168.12 4.76938
3168.88 4.71023
3169.65 4.62216
3170.41 4.48150
3170.79 4.38331
3171.18 4.30081
3171.37 4.35118
3171.46 4.47464
3171.56 4.77331
3171.65 5.52459
3171.70 6.29470
3171.75 7.60307
3171.80 10.0885
3171.84 15.0574
3171.87 19.6301
3171.89 26.8630
3171.92 38.7028
3171.94 58.0826
3171.95 75.8833
3171.97 97.0235
3172.00 130.369
3172.02 127.052
3172.03 112.519
3172.06 77.3021
3172.09 56.2381
3172.11 42.8167
3172.14 33.6203
3172.16 27.6426
3172.21 20.2181
3172.26 16.1502
3172.31 13.5867
3172.35 11.8921
3172.45 9.85567
3172.55 8.68308
3172.65 7.94780
3172.84 7.07936
3173.04 6.59468
3173.23 6.28908
3173.62 5.92950
3174.01 5.72550
3174.40 5.59489
3175.18 5.43775
3175.96 5.34619
3176.74 5.28609
3178.30 5.21102
3179.86 5.16509
3181.42 5.13326
3184.53 5.09012
3187.65 5.06008
3190.77 5.03610
3197.00 4.99538
3203.24 4.95538
3209.47 4.90656
3212.59 4.87266
3215.71 4.82144
3217.27 4.78015
3218.83 4.71136
3219.61 4.65348
3220.39 4.56053
3220.78 4.49228
3221.17 4.41960
3221.36 4.42067
3221.56 4.60549
3221.65 4.98421
3221.70 5.39229
3221.75 6.11088
3221.80 7.53137
3221.85 10.5233
3221.87 13.4868
3221.90 18.1975
3221.92 26.2807
3221.93 32.3847
3221.95 40.4250
3221.96 52.6549
3221.97 67.3780
3222.00 88.6758
3222.01 86.6045
3222.03 76.5442
3222.06 53.1007
3222.08 40.2150
3222.09 31.7643
3222.11 25.6530
3222.13 21.5857
3222.17 16.3253
3222.21 13.3013
3222.25 11.4053
3222.29 10.1343
3222.37 8.59094
3222.52 7.11826
3222.68 6.44889
3222.99 5.83651
3223.30 5.55804
3223.92 5.29796
3224.54 5.17439
3225.78 5.05096
3227.03 4.98480
3229.51 4.90291
3232.00 4.83843
3234.48 4.76788
3235.73 4.72349
3236.97 4.66644
3238.21 4.58542
3238.83 4.52874
3239.45 4.45333
3240.07 4.34764
3240.70 4.19771
3241.01 4.11722
3241.16 4.09730
3241.32 4.13324
3241.47 4.34766
3241.55 4.63706
3241.63 5.21897
3241.71 6.50655
3241.74 7.72271
3241.78 9.65304
3241.82 13.0761
3241.86 19.4936
3241.88 25.0061
3241.90 32.6654
3241.92 43.9511
3241.94 60.7631
3241.95 79.7205
3241.97 102.821
3242.00 136.454
3242.03 118.535
3242.06 80.5609
3242.08 63.0660
3242.10 50.4223
3242.14 34.2805
3242.18 25.4445
3242.22 20.2897
3242.26 16.8808
3242.30 14.5648
3242.37 11.7206
3242.45 10.0462
3242.53 8.98882
3242.68 7.73093
3242.84 7.02764
3242.99 6.58471
3243.30 6.06388
3243.61 5.76995
3243.92 5.58159
3244.54 5.35338
3245.16 5.21759
3245.78 5.12550
3247.02 5.00211
3249.50 4.84359
3251.98 4.70717
3253.22 4.63058
3254.46 4.54011
3255.69 4.42630
3256.93 4.27350
3257.55 4.17423
3258.17 4.05301
3258.79 3.90201
3259.41 3.71380
3260.03 3.49226
3260.34 3.39172
3260.65 3.35727
3260.96 3.57430
3261.12 3.96162
3261.27 4.83755
3261.43 6.90328
3261.50 8.96067
3261.58 12.4054
3261.66 18.7180
3261.70 23.8394
3261.74 30.9882
3261.77 41.8086
3261.81 57.8053
3261.85 83.3531
3261.89 122.176
3261.95 210.597
3262.00 282.508
3262.06 244.030
3262.11 166.023
3262.15 122.743
3262.19 93.8218
3262.23 73.6229
3262.27 59.9013
3262.35 42.5449
3262.44 32.6231
3262.52 26.4220
3262.60 22.2719
3262.76 17.2132
3262.92 14.2865
3263.08 12.4248
3263.24 11.1518
3263.41 10.2384
3263.73 9.01126
3264.05 8.23931
3264.38 7.71112
3264.70 7.32849
3265.35 6.81262
3265.99 6.48253
3266.64 6.25354
3267.29 6.08563
3268.58 5.85491
3269.87 5.70372
3271.17 5.59642
3272.46 5.51591
3275.05 5.40205
3277.63 5.32424
3280.22 5.26656
3282.80 5.22127
3287.98 5.15234
3293.15 5.09932
3303.50 5.01221
3313.84 4.92489
3319.02 4.87193
3324.19 4.80406
3326.78 4.76034
3329.36 4.70592
3331.95 4.63477
3334.54 4.53563
3335.83 4.46887
3337.12 4.38420
3338.42 4.27264
3339.71 4.11854
3340.36 4.01716
3341.00 3.89252
3341.65 3.73714
3342.30 3.54377
3342.94 3.31843
3343.27 3.21931
3343.59 3.19326
3343.91 3.44033
3344.07 3.86378
3344.24 4.80116
3344.40 7.00103
3344.48 9.16152
3344.56 12.7510
3344.64 19.2588
3344.68 24.5668
3344.72 31.9642
3344.76 43.1053
3344.80 59.5211
3344.84 84.7640
3344.88 123.669
3344.94 213.778
3345.00 287.451
3345.06 248.251
3345.12 168.654
3345.16 128.781
3345.20 100.352
3345.27 66.1968
3345.35 47.5605
3345.43 36.7118
3345.51 29.7016
3345.58 25.0086
3345.74 19.1480
3345.89 15.7495
3346.05 13.5751
3346.36 11.0112
3346.67 9.56864
3346.98 8.66092
3347.29 8.03831
3347.60 7.58916
3348.22 6.98383
3348.83 6.59653
3349.45 6.32757
3350.07 6.12957
3351.31 5.85601
3352.55 5.67333
3353.79 5.53955
3355.02 5.43396
3357.50 5.26367
3359.98 5.09712
3361.21 4.98961
3361.83 4.91993
3362.45 4.83109
3363.07 4.71146
3363.69 4.54918
3364.00 4.46949
3364.16 4.45710
3364.31 4.51295
3364.46 4.77577
3364.54 5.11419
3364.62 5.77570
3364.70 7.19605
3364.74 8.50371
3364.77 10.5315
3364.81 14.0187
3364.85 20.0655
3364.87 25.1362
3364.89 31.9203
3364.91 41.4945
3364.93 55.1950
3364.96 92.7953
3365.00 124.665
3365.04 108.453
3365.07 74.7185
3365.11 48.8220
3365.15 34.2432
3365.19 25.9349
3365.24 20.8518
3365.28 17.5314
3365.32 15.2419
3365.40 12.3868
3365.48 10.6833
3365.56 9.59679
3365.72 8.29334
3365.89 7.55870
3366.05 7.09364
3366.38 6.54423
3366.70 6.23294
3367.03 6.03305
3367.68 5.79062
3368.33 5.64741
3368.98 5.55130
3370.29 5.42672
3371.59 5.34537
3372.90 5.28445
3375.50 5.18909
3378.11 5.10091
3379.42 5.05054
3380.72 4.98834
3382.02 4.90173
3382.68 4.84105
3383.33 4.75952
3383.98 4.64300
3384.63 4.46845
3384.96 4.36103
3385.12 4.31822
3385.28 4.31876
3385.45 4.47061
3385.53 4.70954
3385.61 5.21835
3385.69 6.39007
3385.73 7.52321
3385.77 9.35340
3385.81 12.6495
3385.85 18.7336
3385.88 24.1174
3385.90 31.7035
3385.92 43.0358
3385.94 60.7947
3385.95 80.0316
3385.97 102.975
3386.00 138.063
3386.02 135.367
3386.03 120.252
3386.06 82.4302
3386.08 64.6083
3386.10 51.5072
3386.14 35.2519
3386.18 26.3240
3386.22 20.9903
3386.26 17.5604
3386.30 15.2206
3386.38 12.3051
3386.46 10.6060
3386.54 9.51554
3386.70 8.22352
3386.86 7.49804
3387.02 7.03970
3387.34 6.50059
3387.66 6.19492
3387.98 5.99950
3388.62 5.76474
3389.26 5.62796
3389.90 5.53812
3391.18 5.42564
3392.46 5.35667
3393.74 5.30891
3396.30 5.24481
3398.85 5.20159
3401.41 5.16892
3406.53 5.11972
3411.64 5.08141
3416.76 5.04836
3426.99 4.98782
3437.22 4.92367
3442.34 4.88534
3447.45 4.83783
3452.57 4.77201
3455.12 4.72581
3457.68 4.66264
3460.24 4.56723
3461.52 4.49687
3462.80 4.39874
3464.08 4.25085
3464.72 4.14476
3465.35 4.00442
3465.99 3.81592
3466.31 3.70348
3466.63 3.59448
3466.95 3.55627
3467.11 3.64188
3467.27 3.93569
3467.43 4.79605
3467.51 5.74483
3467.59 7.48157
3467.67 10.8964
3467.71 13.8574
3467.75 18.3726
3467.79 25.5499
3467.83 37.5180
3467.87 58.4574
3467.91 95.3084
3467.96 163.613
3468.00 219.784
3468.04 190.829
3468.09 129.454
3468.13 86.6279
3468.18 61.1271
3468.22 45.8627
3468.27 36.3801
3468.31 29.8731
3468.36 25.3193
3468.45 19.5589
3468.54 16.0878
3468.63 13.8587
3468.80 11.1782
3468.98 9.66745
3469.16 8.71361
3469.34 8.06295
3469.52 7.59355
3469.88 6.96561
3470.24 6.56727
3470.59 6.29318
3470.95 6.09392
3471.67 5.82237
3472.38 5.64637
3473.10 5.52270
3473.81 5.43079
3475.25 5.30185
3476.68 5.21451
3478.11 5.15006
3479.54 5.09944
3482.40 5.02182
3485.26 4.96095
3490.99 4.85642
3496.71 4.74469
3499.58 4.67436
3502.44 4.58293
3503.87 4.52374
3505.30 4.45022
3506.73 4.35482
3508.16 4.22398
3508.88 4.13774
3509.60 4.03083
3510.31 3.89515
3511.03 3.71964
3511.74 3.49395
3512.10 3.36897
3512.46 3.26663
3512.82 3.29873
3513.00 3.48564
3513.17 3.99497
3513.35 5.33464
3513.44 6.75070
3513.53 9.23017
3513.62 13.9903
3513.67 18.0112
3513.71 23.8432
3513.76 33.0185
3513.80 47.3586
3513.85 71.7067
3513.89 112.413
3513.95 193.610
3514.00 260.792
3514.06 226.181
3514.11 153.216
3514.15 116.737
3514.18 90.5961
3514.22 72.2731
3514.26 59.2161
3514.33 42.5487
3514.41 32.9045
3514.48 26.6884
3514.55 22.4914
3514.70 17.3380
3514.85 14.3353
3515.00 12.4297
3515.14 11.1139
3515.29 10.1698
3515.59 8.90356
3515.88 8.10416
3516.18 7.55742
3516.47 7.16262
3517.06 6.62887
3517.65 6.28676
3518.24 6.04870
3518.83 5.87339
3520.01 5.63019
3521.19 5.46784
3522.37 5.34952
3523.55 5.25778
3525.91 5.11934
3528.26 5.01265
3532.98 4.83199
3537.70 4.63857
3540.06 4.51587
3542.42 4.35620
3543.60 4.25364
3544.78 4.12790
3545.96 3.96841
3547.14 3.75898
3547.73 3.62793
3548.32 3.47473
3548.91 3.29798
3549.50 3.10806
3550.09 2.96869
3550.38 2.99925
3550.67 3.25010
3550.97 4.12920
3551.12 5.17046
3551.26 7.13803
3551.34 8.78255
3551.41 11.1867
3551.49 14.8111
3551.56 20.3928
3551.63 29.6537
3551.71 45.4533
3551.78 74.8792
3551.85 130.003
3551.93 224.555
3552.00 302.013
3552.07 261.048
3552.15 177.281
3552.22 116.155
3552.30 81.1682
3552.38 60.3342
3552.45 47.1950
3552.53 38.3359
3552.61 32.2301
3552.76 24.4335
3552.91 19.7669
3553.06 16.7579
3553.37 13.1469
3553.67 11.1054
3553.98 9.80970
3554.28 8.91918
3554.59 8.27211
3555.20 7.38564
3555.81 6.79979
3556.42 6.37101
3557.03 6.02975
3558.25 5.45932
3558.86 5.18016
3559.46 4.87327
3560.07 4.50969
3560.38 4.30209
3560.68 4.09274
3560.99 3.96252
3561.14 4.02265
3561.29 4.33772
3561.45 5.34738
3561.52 6.47398
3561.60 8.52983
3561.68 12.5115
3561.71 15.8971
3561.75 20.9521
3561.79 28.7585
3561.83 41.2709
3561.87 62.0388
3561.90 97.8864
3561.95 170.363
3562.00 232.656
3562.05 204.614
3562.10 140.645
3562.14 97.9209
3562.19 71.7309
3562.23 54.9271
3562.27 44.1747
3562.36 31.3678
3562.45 24.4723
3562.54 20.2239
3562.63 17.4262
3562.81 14.0496
3562.98 12.1031
3563.16 10.8653
3563.34 10.0107
3563.52 9.38768
3563.87 8.54073
3564.23 7.99425
3564.58 7.61199
3564.93 7.32959
3565.64 6.93596
3566.35 6.67337
3567.77 6.33865
3569.19 6.12972
3570.61 5.98395
3573.45 5.78934
3576.29 5.66177
3579.12 5.56960
3584.80 5.44163
3590.47 5.35353
3596.15 5.28635
3607.50 5.18263
3618.85 5.09281
3624.53 5.04514
3630.20 4.98941
3635.88 4.91530
3638.72 4.86417
3641.55 4.79464
3642.97 4.74835
3644.39 4.68968
3645.81 4.61204
3647.23 4.50326
3648.65 4.33804
3649.36 4.21837
3650.07 4.05809
3650.78 3.83747
3651.13 3.70031
3651.48 3.55592
3651.84 3.46288
3652.02 3.50792
3652.19 3.74809
3652.37 4.53607
3652.46 5.44216
3652.55 7.11217
3652.64 10.4838
3652.68 13.4023
3652.73 17.8674
3652.77 25.1905
3652.81 37.2327
3652.86 58.3857
3652.90 97.4905
3652.95 167.328
3653.00 227.727
3653.03 223.016
3653.05 197.745
3653.10 135.305
3653.15 88.7336
3653.20 62.0018
3653.25 46.2942
3653.30 36.6293
3653.36 30.0722
3653.41 25.5804
3653.51 19.7890
3653.61 16.3445
3653.72 14.1071
3653.92 11.4303
3654.13 9.91120
3654.34 8.95452
3654.54 8.29972
3654.75 7.82591
3655.16 7.18850
3655.57 6.78356
3655.99 6.50337
3656.40 6.29915
3657.22 6.02055
3658.05 5.83949
3658.87 5.71205
3659.70 5.61725
3661.35 5.48435
3663.00 5.39455
3664.65 5.32858
3666.29 5.27713
3669.59 5.19927
3672.89 5.13946
3679.49 5.03998
3686.09 4.93660
3689.39 4.87156
3692.69 4.78588
3694.34 4.72959
3695.99 4.65869
3697.64 4.56511
3699.28 4.43423
3700.11 4.34639
3700.93 4.23579
3701.76 4.09244
3702.58 3.90101
3703.41 3.63929
3703.82 3.47815
3704.23 3.31188
3704.65 3.21637
3704.85 3.28642
3705.06 3.60238
3705.26 4.59071
3705.37 5.70499
3705.47 7.76215
3705.57 11.8212
3705.63 15.3802
3705.68 20.6874
3705.73 29.2507
3705.78 43.1380
3705.83 67.6358
3705.88 109.977
3705.94 190.391
3706.00 258.597
3706.06 225.553
3706.12 153.955
3706.16 117.844
3706.20 92.6271
3706.27 61.3844
3706.35 44.5063
3706.43 34.5209
3706.50 28.1364
3706.58 23.7954
3706.73 18.3986
3706.89 15.2563
3707.04 13.2388
3707.35 10.8445
3707.66 9.49643
3707.97 8.64263
3708.27 8.05751
3708.58 7.63445
3709.20 7.06242
3709.81 6.69630
3710.43 6.44245
3711.04 6.25651
3712.28 6.00150
3713.51 5.83498
3714.74 5.71719
3715.97 5.62927
3718.43 5.50579
3720.90 5.42226
3723.36 5.36111
3725.82 5.31373
3730.75 5.24334
3735.67 5.19144
3745.53 5.11344
3755.38 5.04809
3760.30 5.01491
3765.23 4.97801
3770.16 4.93226
3772.62 4.90257
3775.08 4.86391
3777.55 4.80792
3778.78 4.76745
3780.01 4.71131
3781.24 4.62593
3781.86 4.56330
3782.47 4.47739
3783.09 4.35261
3783.70 4.16523
3784.01 4.05137
3784.32 4.01472
3784.47 4.19119
3784.55 4.45705
3784.63 5.02077
3784.70 6.27865
3784.74 7.49025
3784.78 9.42099
3784.82 12.8452
3784.86 19.0075
3784.88 24.0293
3784.90 31.2281
3784.91 41.6922
3784.93 57.6378
3784.95 75.4968
3784.97 98.2375
3785.00 132.459
3785.02 129.937
3785.03 115.989
3785.07 79.7809
3785.09 59.0440
3785.12 45.4497
3785.14 35.9718
3785.17 29.7077
3785.22 21.8121
3785.27 17.4137
3785.32 14.6135
3785.37 12.7770
3785.47 10.4985
3785.57 9.18632
3785.67 8.34826
3785.88 7.35631
3786.08 6.79562
3786.28 6.44186
3786.68 6.02173
3787.09 5.78173
3787.49 5.62749
3788.30 5.44016
3789.11 5.32984
3789.92 5.25653
3791.54 5.16343
3793.15 5.10470
3794.77 5.06255
3798.01 5.00181
3804.48 4.91391
3810.95 4.83088
3817.42 4.72689
3820.65 4.65608
3823.89 4.56059
3825.50 4.49774
3827.12 4.41924
3828.74 4.31745
3830.36 4.17973
3831.17 4.09083
3831.97 3.98351
3832.78 3.85322
3833.59 3.69837
3834.40 3.53801
3834.80 3.48983
3835.21 3.53644
3835.61 3.88888
3835.82 4.37584
3836.02 5.37614
3836.22 7.55959
3836.32 9.60334
3836.42 12.9202
3836.52 18.6001
3836.62 29.0092
3836.67 37.5892
3836.72 49.6453
3836.78 67.5185
3836.83 92.8908
3836.91 159.820
3837.00 215.197
3837.09 186.899
3837.18 127.753
3837.26 86.8687
3837.35 62.2034
3837.43 47.1133
3837.52 37.4154
3837.60 30.8604
3837.69 26.2293
3837.86 20.2638
3838.03 16.6837
3838.20 14.3464
3838.53 11.5467
3838.87 9.95509
3839.21 8.94933
3839.55 8.25898
3839.89 7.76101
3840.57 7.09098
3841.25 6.66327
3841.93 6.36674
3842.61 6.14860
3843.97 5.84681
3845.32 5.64394
3846.68 5.49337
3848.04 5.37197
3850.76 5.16617
3852.11 5.06276
3853.47 4.94393
3854.83 4.78878
3855.51 4.68506
3856.19 4.55120
3856.87 4.37129
3857.55 4.13832
3857.89 4.04593
3858.06 4.05912
3858.23 4.20265
3858.40 4.71618
3858.48 5.32009
3858.57 6.45890
3858.65 8.74625
3858.69 10.7806
3858.74 13.8274
3858.78 18.8096
3858.82 26.9374
3858.86 41.0580
3858.90 66.1700
3858.95 113.479
3859.00 154.131
3859.05 135.180
3859.10 93.2090
3859.15 62.1392
3859.20 44.2016
3859.25 33.5926
3859.30 27.0341
3859.35 22.5647
3859.40 19.4938
3859.50 15.5179
3859.60 13.1238
3859.70 11.5808
3859.91 9.72509
3860.11 8.66539
3860.31 7.99459
3860.72 7.19652
3861.12 6.74314
3861.53 6.45198
3862.34 6.09985
3863.15 5.89352
3863.96 5.75677
3865.58 5.58386
3867.20 5.47619
3868.82 5.40055
3872.06 5.29701
3875.30 5.22522
3878.53 5.16921
3885.01 5.07899
3891.49 4.99696
3894.73 4.95280
3897.97 4.90168
3901.21 4.83564
3902.83 4.79160
3904.45 4.73351
3906.07 4.64895
3906.88 4.58828
3907.69 4.50537
3908.50 4.38375
3909.31 4.18955
3909.72 4.05093
3910.12 3.91708
3910.32 3.94784
3910.43 4.07263
3910.53 4.39904
3910.63 5.23301
3910.68 6.10092
3910.73 7.57904
3910.78 10.3716
3910.83 15.8963
3910.86 21.0214
3910.88 28.6865
3910.91 40.8503
3910.93 60.8668
3910.97 103.379
3911.00 140.218
3911.02 137.358
3911.04 122.154
3911.07 84.2101
3911.09 65.8971
3911.11 52.8754
3911.16 36.1902
3911.20 26.9816
3911.24 21.5623
3911.28 17.9682
3911.33 15.5136
3911.41 12.4771
3911.50 10.6786
3911.58 9.53450
3911.75 8.17038
3911.92 7.39593
3912.09 6.90775
3912.43 6.32773
3912.78 5.99765
3913.12 5.78625
3913.80 5.52986
3914.48 5.37847
3915.16 5.27722
3916.53 5.14586
3917.89 5.05911
3919.26 4.99250
3921.99 4.88159
3924.72 4.76728
3926.08 4.69699
3927.45 4.60719
3928.81 4.48025
3929.49 4.39215
3930.18 4.27671
3930.86 4.12086
3931.54 3.92527
3931.88 3.86168
3932.05 3.89324
3932.22 4.05828
3932.39 4.59564
3932.48 5.20561
3932.56 6.33762
3932.65 8.61955
3932.69 10.6184
3932.73 13.5982
3932.78 18.4499
3932.82 26.3333
3932.86 40.4144
3932.90 65.2068
3932.95 111.174
3933.00 150.540
3933.05 131.319
3933.10 90.2568
3933.13 68.6017
3933.16 53.1892
3933.20 42.5738
3933.23 35.1154
3933.30 25.7308
3933.37 20.3139
3933.44 16.9047
3933.50 14.6109
3933.64 11.7859
3933.78 10.1536
3933.91 9.10956
3934.18 7.87304
3934.46 7.17666
3934.73 6.73459
3935.27 6.20916
3935.82 5.90859
3936.36 5.71371
3937.45 5.47420
3938.53 5.32954
3939.62 5.23011
3941.80 5.09569
3943.97 5.00109
3946.15 4.92358
3950.50 4.78267
3954.85 4.62437
3957.02 4.52401
3959.20 4.39544
3961.38 4.21535
3962.46 4.09098
3963.55 3.92697
3964.64 3.69615
3965.18 3.54074
3965.73 3.34710
3966.27 3.11073
3966.54 2.98897
3966.81 2.90413
3967.09 2.98767
3967.22 3.22632
3967.36 3.81879
3967.49 5.28445
3967.56 6.76175
3967.63 9.29184
3967.70 13.8943
3967.73 17.6245
3967.77 22.9834
3967.80 30.8973
3967.83 42.9220
3967.87 61.6314
3967.90 90.6194
3967.95 156.202
3968.00 212.994
3968.03 209.134
3968.05 185.333
3968.10 126.759
3968.13 95.6177
3968.17 74.2223
3968.20 59.2880
3968.24 48.6748
3968.30 35.1530
3968.37 27.2498
3968.44 22.2337
3968.51 18.8385
3968.64 14.6316
3968.78 12.1856
3968.92 10.6134
3969.19 8.73864
3969.46 7.67127
3969.73 6.98408
3970.28 6.14393
3970.82 5.63452
3971.36 5.27537
3972.45 4.75053
3973.54 4.31945
3974.08 4.12231
3974.63 3.96561
3975.17 3.96908
3975.44 4.15780
3975.72 4.68617
3975.99 6.06168
3976.12 7.47767
3976.26 9.93060
3976.40 14.4375
3976.53 23.4243
3976.60 31.3055
3976.67 43.3489
3976.74 62.2073
3976.80 91.8448
3976.90 158.675
3977.00 215.791
3977.10 189.095
3977.20 129.917
3977.31 82.0559
3977.43 56.3412
3977.55 41.7949
3977.66 32.9249
3977.78 27.1367
3977.89 23.1440
3978.13 18.1102
3978.36 15.1301
3978.59 13.2096
3979.05 10.9095
3979.52 9.59951
3979.98 8.76504
3980.45 8.18748
3980.91 7.76637
3981.84 7.19163
3982.77 6.81732
3983.70 6.55292
3984.63 6.35530
3986.49 6.07588
3988.34 5.88411
3990.20 5.74007
3992.06 5.62394
3995.77 5.43125
3997.63 5.33851
3999.49 5.23560
4001.35 5.10442
4002.28 5.01670
4003.20 4.90105
4004.13 4.73536
4004.60 4.62095
4005.06 4.47483
4005.53 4.28952
4005.76 4.18899
4005.99 4.10936
4006.22 4.14423
4006.34 4.30246
4006.45 4.72041
4006.57 5.79113
4006.63 6.89083
4006.69 8.79852
4006.74 12.3166
4006.77 15.1994
4006.80 19.3788
4006.83 25.6170
4006.86 35.2186
4006.89 50.3950
4006.92 74.9339
4006.96 128.366
4007.00 174.502
4007.02 171.246
4007.04 152.461
4007.08 104.962
4007.11 81.2943
4007.13 64.4831
4007.19 43.4574
4007.24 32.0764
4007.29 25.4352
4007.35 21.0872
4007.40 18.1784
4007.50 14.5096
4007.61 12.3507
4007.71 10.9771
4007.92 9.34156
4008.13 8.41401
4008.34 7.82809
4008.77 7.13119
4009.19 6.73455
4009.61 6.47918
4010.45 6.16949
4011.29 5.98696
4012.13 5.86552
4013.82 5.71135
4015.50 5.61477
4017.18 5.54669
4020.55 5.45321
4023.92 5.38871
4027.28 5.33922
4034.02 5.26384
4040.75 5.20481
4047.48 5.15376
4060.95 5.05930
4074.42 4.95513
4081.15 4.88961
4087.88 4.80458
4091.25 4.74953
4094.62 4.68088
4097.99 4.59112
4101.35 4.46623
4103.04 4.38235
4104.72 4.27619
4106.40 4.13674
4108.09 3.94532
4108.93 3.82021
4109.77 3.66747
4110.61 3.47906
4111.45 3.24884
4112.29 2.99251
4112.72 2.89252
4113.14 2.89937
4113.56 3.27281
4113.77 3.84638
4113.98 5.06269
4114.08 6.15225
4114.19 7.79879
4114.29 10.3840
4114.40 14.6112
4114.50 21.9000
4114.61 35.3457
4114.66 46.4769
4114.71 62.1861
4114.77 85.5524
4114.82 118.907
4114.91 207.118
4115.00 282.413
4115.09 246.288
4115.18 167.796
4115.24 130.042
4115.30 103.018
4115.41 69.2185
4115.52 50.4745
4115.63 39.1927
4115.74 31.8425
4115.86 26.8568
4116.08 20.6080
4116.31 16.9299
4116.53 14.5703
4116.98 11.7537
4117.43 10.1639
4117.88 9.15534
4118.33 8.46326
4118.77 7.96177
4119.67 7.28294
4120.57 6.84664
4121.47 6.54236
4122.36 6.31763
4124.16 6.00461
4125.96 5.79321
4127.75 5.63589
4129.55 5.50902
4133.14 5.29450
4134.93 5.18707
4136.73 5.06335
4138.52 4.89964
4139.42 4.78767
4140.32 4.63863
4141.22 4.42494
4141.66 4.27896
4142.11 4.09623
4142.56 3.87597
4142.79 3.76838
4143.01 3.71012
4143.24 3.85138
4143.35 4.14474
4143.46 4.82611
4143.57 6.43660
4143.63 8.01112
4143.68 10.6396
4143.74 15.2696
4143.77 18.9146
4143.80 24.0183
4143.82 31.3233
4143.85 42.0066
4143.88 57.8852
4143.91 81.6596
4143.95 142.208
4144.00 193.401
4144.05 170.440
4144.09 117.140
4144.12 89.9062
4144.16 70.6295
4144.22 47.2675
4144.28 34.5688
4144.34 27.2217
4144.41 22.4607
4144.47 19.2800
4144.59 15.3127
4144.72 12.9774
4144.84 11.4759
4145.09 9.69402
4145.34 8.68113
4145.59 8.03891
4145.84 7.59627
4146.09 7.27362
4146.59 6.83507
4147.08 6.55224
4147.58 6.35385
4148.08 6.20719
4149.08 6.00329
4150.08 5.86723
4151.07 5.76897
4152.07 5.69394
4154.06 5.58516
4156.06 5.50825
4160.05 5.40212
4164.03 5.32788
4168.02 5.26951
4176.00 5.17448
4183.98 5.08664
4187.96 5.03859
4191.95 4.98220
4195.94 4.90823
4197.93 4.85832
4199.93 4.79199
4201.92 4.69501
4202.92 4.62540
4203.92 4.53056
4204.91 4.39258
4205.41 4.29743
4205.91 4.17758
4206.41 4.03194
4206.91 3.91911
4207.16 4.00721
4207.28 4.19854
4207.41 4.64506
4207.53 5.72387
4207.59 6.78284
4207.65 8.56642
4207.72 11.8159
4207.78 18.0026
4207.81 23.2660
4207.84 31.0979
4207.87 42.9837
4207.90 61.3232
4207.95 105.234
4208.00 142.166
4208.05 124.784
4208.10 85.8538
4208.15 58.4875
4208.19 42.2989
4208.24 32.2982
4208.29 26.0532
4208.34 21.7638
4208.39 18.8053
4208.48 14.9576
4208.58 12.6518
4208.68 11.1465
4208.87 9.34381
4209.07 8.31357
4209.26 7.65926
4209.65 6.88673
4210.03 6.44819
4210.42 6.16823
4211.20 5.83045
4211.97 5.63323
4212.75 5.50248
4214.30 5.33564
4215.85 5.22824
4217.40 5.14788
4220.50 5.01883
4223.60 4.89069
4225.15 4.81300
4226.69 4.71393
4228.24 4.57318
4229.02 4.47443
4229.79 4.34324
4230.57 4.16151
4231.34 3.91354
4231.73 3.79746
4231.93 3.78748
4232.12 3.89163
4232.31 4.33073
4232.41 4.87128
4232.51 5.89919
4232.60 8.01824
4232.65 9.92349
4232.70 12.8124
4232.75 17.5719
4232.80 25.4561
4232.85 39.3751
4232.89 64.9524
4232.95 112.154
4233.00 152.513
4233.05 134.291
4233.11 92.6245
4233.15 67.0789
4233.20 50.2840
4233.24 39.3865
4233.29 32.2070
4233.37 23.4148
4233.46 18.5204
4233.55 15.4762
4233.64 13.4795
4233.82 11.0407
4234.00 9.63150
4234.18 8.73618
4234.36 8.11678
4234.53 7.66970
4234.89 7.06569
4235.25 6.67981
4235.96 6.21764
4236.68 5.94982
4237.39 5.77449
4238.82 5.55628
4240.24 5.42240
4241.67 5.32903
4244.53 5.19997
4247.38 5.10630
4250.23 5.02700
4255.94 4.87473
4258.80 4.78918
4261.65 4.68806
4264.51 4.56046
4267.36 4.38733
4268.79 4.27300
4270.22 4.13042
4271.64 3.94709
4273.07 3.70376
4273.79 3.55127
4274.50 3.37396
4275.21 3.17292
4275.93 2.96775
4276.64 2.85626
4277.00 2.95098
4277.35 3.35369
4277.71 4.59102
4277.89 5.97437
4278.07 8.48652
4278.25 13.4015
4278.34 17.5808
4278.42 23.8473
4278.51 33.5800
4278.60 49.2982
4278.69 75.6386
4278.78 120.379
4278.89 210.191
4279.00 287.336
4279.11 251.721
4279.22 172.310
4279.30 130.536
4279.37 101.132
4279.45 80.6274
4279.52 66.0707
4279.68 47.5460
4279.83 36.7843
4279.98 29.9021
4280.13 25.2459
4280.43 19.4929
4280.74 16.1367
4281.04 13.9885
4281.35 12.5035
4281.65 11.4295
4282.26 9.98403
4282.86 9.06539
4283.47 8.43375
4284.08 7.97499
4285.29 7.35317
4286.50 6.95326
4287.72 6.67428
4288.93 6.46877
4291.36 6.18516
4293.78 5.99796
4296.21 5.86414
4298.64 5.76291
4303.49 5.61768
4308.35 5.51565
4313.20 5.43702
4318.06 5.37163
4327.76 5.25724
4332.62 5.19868
4337.47 5.13072
4342.33 5.03980
4344.76 4.97641
4347.18 4.88939
4349.61 4.75709
4350.82 4.65900
4352.04 4.52201
4353.25 4.31622
4353.86 4.16990
4354.46 3.97897
4355.07 3.73006
4355.37 3.58886
4355.68 3.46628
4355.98 3.47221
4356.13 3.64199
4356.28 4.12125
4356.44 5.39691
4356.51 6.72561
4356.59 9.00600
4356.66 13.2684
4356.70 16.7647
4356.74 21.8313
4356.78 29.3826
4356.82 40.9723
4356.85 59.2087
4356.89 87.9320
4356.95 152.408
4357.00 209.321
4357.03 206.036
4357.06 183.538
4357.11 126.657
4357.16 88.6501
4357.21 65.2188
4357.26 50.3476
4357.31 40.5223
4357.41 28.7889
4357.50 22.4461
4357.60 18.5385
4357.70 15.9856
4357.90 12.8688
4358.09 11.0850
4358.29 9.94716
4358.49 9.16521
4358.68 8.60043
4359.08 7.83611
4359.47 7.34857
4359.87 7.01189
4360.26 6.76649
4361.05 6.43163
4361.83 6.21482
4362.62 6.06274
4363.41 5.95001
4364.98 5.79345
4366.56 5.68929
4368.13 5.61438
4369.71 5.55749
4372.86 5.47551
4376.01 5.41801
4382.31 5.33914
4388.60 5.28385
4394.90 5.23981
4407.50 5.16583
4420.10 5.09393
4426.40 5.05328
4432.70 5.00486
4438.99 4.94084
4442.14 4.89761
4445.29 4.84019
4448.44 4.75598
4450.02 4.69502
4451.59 4.61077
4453.17 4.48411
4453.95 4.39275
4454.74 4.26975
4455.53 4.09775
4456.32 3.86380
4456.71 3.75781
4456.91 3.75391
4457.10 3.86427
4457.30 4.30681
4457.40 4.84800
4457.50 5.87385
4457.60 7.98368
4457.65 9.83178
4457.69 12.6775
4457.74 17.2376
4457.79 24.8912
4457.84 38.3544
4457.89 62.9785
4457.95 108.179
4458.00 147.704
4458.06 129.683
4458.11 89.7125
4458.15 68.7240
4458.19 53.7328
4458.22 43.2914
4458.26 35.8873
4458.34 26.4761
4458.41 20.9862
4458.49 17.5049
4458.57 15.1491
4458.72 12.2442
4458.87 10.5412
4459.02 9.45350
4459.17 8.69817
4459.32 8.15315
4459.63 7.41524
4459.93 6.94719
4460.54 6.38952
4461.14 6.06988
4461.75 5.86340
4462.96 5.61084
4464.17 5.46017
4465.39 5.35819
4467.81 5.22389
4470.24 5.13306
4472.66 5.06150
4477.51 4.93795
4482.36 4.80723
4484.79 4.72772
4487.21 4.62899
4489.64 4.49563
4490.85 4.40621
4492.06 4.29060
4493.28 4.13026
4493.88 4.02232
4494.49 3.88505
4495.10 3.70658
4495.70 3.49546
4496.01 3.43938
4496.16 3.48806
4496.31 3.69202
4496.46 4.32134
4496.54 5.02668
4496.61 6.30324
4496.69 8.84430
4496.73 11.0481
4496.76 14.4052
4496.80 19.7301
4496.84 28.5772
4496.88 43.9716
4496.91 70.8532
4496.96 120.849
4497.00 163.478
4497.04 141.890
4497.09 97.0569
4497.13 66.1745
4497.17 47.3985
4497.21 35.9816
4497.25 28.6771
4497.30 23.7554
4497.34 20.2862
4497.42 15.8267
4497.51 13.1545
4497.59 11.4109
4497.76 9.32515
4497.92 8.13142
4498.09 7.37523
4498.43 6.46993
4498.76 5.94641
4499.10 5.60261
4499.77 5.16180
4500.44 4.86966
4501.11 4.64071
4502.45 4.23994
4503.79 3.80881
4504.46 3.55532
4505.13 3.27489
4505.80 3.01589
4506.14 2.96715
4506.47 3.11711
4506.81 3.85351
4506.97 4.78927
4507.14 6.59846
4507.23 8.11833
4507.31 10.3369
4507.39 13.6599
4507.48 18.7242
4507.56 26.9449
4507.64 40.7768
4507.73 65.1369
4507.81 108.265
4507.91 190.708
4508.00 261.735
4508.10 230.582
4508.19 159.232
4508.30 102.925
4508.40 71.3390
4508.51 53.0615
4508.62 41.7420
4508.72 34.2738
4508.83 29.0806
4509.04 22.5027
4509.26 18.5686
4509.47 16.0082
4509.90 12.9361
4510.33 11.1806
4510.75 10.0622
4511.18 9.28894
4511.61 8.72673
4512.46 7.96347
4513.32 7.47118
4514.17 7.12750
4515.03 6.87406
4516.74 6.52374
4518.45 6.29235
4520.16 6.12717
4521.87 6.00268
4525.29 5.82539
4528.71 5.70293
4532.13 5.61077
4535.54 5.53645
4549.22 5.29088
4552.64 5.20869
4554.35 5.15326
4556.06 5.07894
4557.77 4.96876
4558.63 4.88903
4559.48 4.78045
4560.33 4.62390
4561.19 4.39034
4561.62 4.25002
4562.04 4.20782
4562.26 4.42661
4562.37 4.75148
4562.47 5.42339
4562.58 6.90786
4562.63 8.30843
4562.69 10.5208
4562.74 14.3292
4562.79 21.0196
4562.85 33.7276
4562.87 44.4119
4562.90 58.8506
4562.95 101.042
4563.00 137.596
4563.05 121.272
4563.10 84.1406
4563.15 60.2021
4563.19 45.2348
4563.24 35.4063
4563.28 29.0083
4563.37 21.2634
4563.46 16.9964
4563.55 14.3819
4563.64 12.6505
4563.81 10.5523
4563.99 9.34028
4564.17 8.57008
4564.52 7.65225
4564.88 7.13228
4565.23 6.80020
4565.94 6.40276
4566.65 6.17367
4567.36 6.02502
4568.78 5.84264
4570.21 5.73400
4571.63 5.66115
4574.47 5.56776
4577.31 5.50869
4580.15 5.46669
4585.83 5.40848
4591.51 5.36784
4597.19 5.33634
4608.55 5.28779
4631.28 5.21584
4654.00 5.15392
4676.72 5.08688
4688.09 5.04591
4699.45 4.99442
4710.81 4.92305
4716.49 4.87377
4722.17 4.80825
4727.85 4.71408
4730.69 4.64798
4733.53 4.55948
4736.37 4.43131
4737.79 4.34083
4739.21 4.21918
4740.64 4.04315
4741.35 3.92062
4742.06 3.76087
4742.77 3.54778
4743.48 3.28532
4743.83 3.20528
4744.01 3.25324
4744.19 3.48309
4744.36 4.21337
4744.45 5.03842
4744.54 6.53771
4744.63 9.51156
4744.67 12.1148
4744.72 15.9712
4744.76 22.1831
4744.81 32.1599
4744.85 49.1510
4744.90 79.1152
4744.95 136.931
4745.00 185.756
4745.05 162.544
4745.10 111.201
4745.16 72.3415
4745.22 50.5773
4745.28 37.6867
4745.33 29.8232
4745.39 24.5374
4745.45 20.9266
4745.56 16.2961
4745.68 13.5502
4745.79 11.7678
4746.02 9.63977
4746.25 8.42536
4746.48 7.65178
4746.71 7.11849
4746.94 6.73058
4747.40 6.19852
4747.86 5.85005
4748.78 5.40774
4749.70 5.12167
4750.62 4.90309
4752.46 4.53284
4753.38 4.34507
4754.29 4.13675
4755.21 3.89248
4756.13 3.59433
4757.05 3.23139
4757.51 3.04066
4757.97 2.89851
4758.43 2.98906
4758.66 3.30932
4758.89 4.11598
4759.00 4.88912
4759.12 6.11607
4759.23 8.11139
4759.35 11.4402
4759.46 17.3889
4759.52 22.1400
4759.58 28.6912
4759.64 38.2493
4759.69 51.9931
4759.75 72.3439
4759.81 102.422
4759.90 181.088
4760.00 249.418
4760.10 220.349
4760.19 152.526
4760.29 102.313
4760.39 72.9074
4760.49 55.0039
4760.59 43.7191
4760.69 36.0506
4760.79 30.6992
4760.99 23.7922
4761.19 19.6102
4761.39 16.8802
4761.78 13.5671
4762.18 11.6663
4762.58 10.4537
4762.97 9.61667
4763.37 9.00666
4764.17 8.17938
4764.96 7.64747
4765.76 7.27647
4766.55 7.00361
4768.14 6.62808
4769.73 6.38142
4771.32 6.20645
4772.91 6.07549
4776.08 5.89158
4779.26 5.76765
4782.44 5.67771
4785.62 5.60893
4791.97 5.50923
4798.33 5.43876
4811.04 5.33990
4823.75 5.26375
4830.11 5.22616
4836.46 5.18378
4842.82 5.12863
4845.99 5.09079
4849.17 5.03922
4852.35 4.96092
4853.94 4.90262
4855.53 4.82041
4857.12 4.69465
4857.91 4.60286
4858.71 4.47885
4859.50 4.30538
4860.29 4.07260
4860.69 3.97404
4861.09 4.10936
4861.29 4.59268
4861.39 5.16243
4861.49 6.23471
4861.59 8.40466
4861.64 10.3029
4861.68 13.1323
4861.73 17.6917
4861.78 25.0430
4861.83 37.9136
4861.88 60.3819
4861.94 103.724
4862.00 142.027
4862.06 125.057
4862.12 86.8887
4862.19 56.4534
4862.25 39.7457
4862.32 30.0149
4862.39 24.1149
4862.46 20.1798
4862.52 17.4928
4862.66 14.0780
4862.79 12.0360
4862.93 10.7108
4863.20 9.12716
4863.47 8.22389
4863.73 7.65085
4864.27 6.96973
4864.81 6.58178
4865.35 6.33342
4866.43 6.03418
4867.50 5.86068
4868.58 5.74754
4870.74 5.60822
4872.89 5.52505
4875.04 5.46924
4879.35 5.39775
4883.66 5.35262
4887.97 5.32053
4896.59 5.27582
4905.21 5.24405
4913.82 5.21871
4931.06 5.17721
4965.53 5.10403
4982.77 5.06388
5000.00 5.01535
5009.83 4.98096
5019.65 4.93849
5029.48 4.88314
5039.30 4.80576
5044.21 4.75332
5049.13 4.68618
5054.04 4.59646
5058.95 4.46973
5061.41 4.38423
5063.86 4.27627
5066.32 4.13594
5068.78 3.94768
5070.00 3.82859
5071.23 3.68902
5072.46 3.52847
5073.69 3.35884
5074.92 3.24714
5075.53 3.29335
5076.14 3.55478
5076.76 4.40064
5077.07 5.35519
5077.37 7.10233
5077.68 10.4885
5077.83 13.3754
5077.99 17.6478
5078.14 24.2647
5078.29 34.7386
5078.45 52.0891
5078.60 80.7292
5078.80 141.197
5079.00 194.116
5079.20 171.577
5079.40 118.733
5079.55 89.5261
5079.69 69.3647
5079.83 55.4515
5079.98 45.6543
5080.27 33.2834
5080.55 26.1057
5080.84 21.5654
5081.13 18.4960
5081.71 14.6921
5082.28 12.4773
5082.86 11.0515
5083.43 10.0667
5084.01 9.35035
5085.16 8.38415
5086.31 7.76819
5087.47 7.34317
5088.62 7.03313
5090.92 6.61213
5093.23 6.34035
5095.53 6.15045
5097.84 6.01019
5102.44 5.81640
5107.05 5.68823
5111.66 5.59642
5116.27 5.52686
5125.49 5.42661
5134.70 5.35549
5153.14 5.25273
5171.57 5.16761
5180.79 5.12299
5190.01 5.07120
5199.22 5.00335
5203.83 4.95735
5208.44 4.89574
5213.05 4.80416
5215.35 4.73693
5217.66 4.64261
5219.96 4.49756
5221.12 4.39008
5222.27 4.24073
5223.42 4.01968
5224.00 3.86571
5224.57 3.66997
5225.15 3.43033
5225.72 3.23609
5226.01 3.36034
5226.16 3.64666
5226.30 4.32450
5226.44 5.93760
5226.52 7.51454
5226.59 10.1394
5226.66 14.7356
5226.73 23.3324
5226.77 30.4351
5226.80 40.7206
5226.84 55.8302
5226.88 78.6531
5226.94 137.612
5227.00 189.118
5227.06 167.101
5227.12 115.534
5227.17 85.0654
5227.22 64.5934
5227.27 50.9298
5227.32 41.7169
5227.42 30.2039
5227.51 23.6626
5227.61 19.5775
5227.71 16.8383
5227.90 13.4673
5228.10 11.5150
5228.29 10.2614
5228.48 9.39650
5228.68 8.76751
5229.07 7.91768
5229.45 7.37629
5229.84 7.00203
5230.23 6.72845
5231.01 6.35544
5231.78 6.11364
5232.56 5.94367
5233.34 5.81728
5234.89 5.64056
5236.44 5.52134
5237.99 5.43386
5239.55 5.36559
5242.65 5.26169
5245.76 5.18077
5251.97 5.04111
5255.07 4.96875
5258.18 4.88627
5261.28 4.78452
5264.39 4.64768
5265.94 4.55707
5267.49 4.44290
5269.05 4.29326
5270.60 4.08755
5271.38 3.95253
5272.15 3.78715
5272.93 3.58158
5273.70 3.32621
5274.48 3.02929
5274.87 2.89736
5275.26 2.85504
5275.65 3.13775
5275.84 3.62417
5276.03 4.68762
5276.13 5.63544
5276.23 7.07646
5276.32 9.32372
5276.42 12.9507
5276.52 19.0709
5276.62 29.9834
5276.66 38.7219
5276.71 50.6610
5276.76 67.8140
5276.81 91.3402
5276.91 162.058
5277.00 223.978
5277.10 198.173
5277.19 137.338
5277.26 102.782
5277.33 79.0127
5277.40 62.7817
5277.48 51.4452
5277.62 37.2445
5277.76 29.1069
5277.90 23.9348
5278.04 20.4466
5278.33 16.1412
5278.61 13.6245
5278.89 12.0084
5279.18 10.8900
5279.46 10.0749
5280.03 8.97182
5280.59 8.26603
5281.16 7.77782
5281.73 7.42140
5282.86 6.93505
5283.99 6.61981
5285.13 6.39854
5286.26 6.23436
5288.53 6.00592
5290.79 5.85323
5293.06 5.74262
5295.33 5.65770
5299.86 5.53249
5304.39 5.44012
5313.46 5.29556
5322.53 5.15534
5327.06 5.07006
5331.59 4.95950
5333.86 4.88772
5336.13 4.79815
5338.39 4.68162
5340.66 4.52220
5341.79 4.41785
5342.93 4.29011
5344.06 4.13137
5345.19 3.93398
5346.33 3.70375
5347.46 3.56442
5348.03 3.77585
5348.31 4.14467
5348.59 4.95453
5348.88 6.78912
5349.02 8.52277
5349.16 11.3061
5349.30 16.0479
5349.44 24.4653
5349.58 40.5910
5349.65 53.8676
5349.72 72.2078
5349.86 126.425
5350.00 174.356
5350.14 154.801
5350.28 107.699
5350.37 82.0007
5350.47 64.1320
5350.57 51.6780
5350.67 42.8375
5350.86 31.5779
5351.05 24.9882
5351.25 20.7775
5351.44 17.9358
5351.83 14.3976
5352.22 12.3236
5352.61 10.9882
5353.00 10.0615
5353.38 9.38790
5354.16 8.47690
5354.94 7.89428
5355.72 7.49158
5356.49 7.19741
5358.05 6.79741
5359.60 6.53854
5361.15 6.35737
5362.71 6.22348
5365.82 6.03825
5368.92 5.91578
5372.03 5.82837
5375.14 5.76256
5381.35 5.66930
5387.57 5.60569
5393.78 5.55900
5400.00 5.52292
5400.00 6.48884
6000.00 6.42774
7000.00 6.34867
8000.00 6.28955
10000.0 6.20918
12500.0 6.15055
15000.0 6.11775
17000.0 6.10267
20000.0 6.09163
25000.0 6.09119
30000.0 6.10237
37400.0 6.12831
37410.0 6.12819
40000.0 6.18507
50000.0 6.23084
60000.0 6.25651
70000.0 6.27623
80000.0 6.29176
90000.0 6.17682
99999.9 6.07504
100000 6.07506
200000 6.07700
300000 6.25033
400000 6.41898
500000 6.54202
511800 6.55660
511835 6.55660
577900 6.63918
600000 6.66738
700000 6.77993
800000 6.90996
900000 6.92677
954900 6.93604
954900 6.93604
1.03300E+06 6.94902
1.04400E+06 6.94096
1.04404E+06 6.94089
1.14900E+06 6.79511
1.15400E+06 6.78967
1.15425E+06 6.78921
1.20000E+06 6.73470
1.30000E+06 6.59059
1.40000E+06 6.47185
1.50000E+06 6.35295
2.00000E+06 5.80199
2.50000E+06 5.27099
3.00000E+06 4.85898
3.09600E+06 4.79954
3.58200E+06 4.54683
4.00000E+06 4.40399
4.50000E+06 4.29473
5.00000E+06 4.23004
5.50000E+06 4.20499
5.82500E+06 4.20899
6.00000E+06 4.21099
6.45500E+06 4.23956
7.00000E+06 4.29361
7.50000E+06 4.35602
8.00000E+06 4.42396
8.50000E+06 4.49296
8.79000E+06 4.52999
9.00000E+06 4.55685
9.31600E+06 4.59315
9.31628E+06 4.59318
9.50000E+06 4.61403
1.00000E+07 4.66098
1.03800E+07 4.69012
1.05000E+07 4.69751
1.10000E+07 4.72493
1.15000E+07 4.73999
1.20000E+07 4.74597
1.25000E+07 4.74142
1.30000E+07 4.72999
1.35000E+07 4.71105
1.40000E+07 4.68604
1.45000E+07 4.65595
1.50000E+07 4.62105
1.55000E+07 4.58399
1.60000E+07 4.54505
1.63900E+07 4.51376
1.65000E+07 4.50503
1.70000E+07 4.46399
1.75000E+07 4.42402
1.80000E+07 4.38601
1.85000E+07 4.34902
1.90000E+07 4.31398
1.95200E+07 4.28185
2.00000E+07 4.25403