Ba-134(n,tot) ENDF/B-VII.1
Energy(eV) XS(b)
1.00000E-05 80.8370
1.25000E-05 72.8522
1.50000E-05 66.9581
2.00000E-05 58.6846
2.75000E-05 50.8124
3.50000E-05 45.6315
4.25000E-05 41.8914
5.00000E-05 39.0281
6.25000E-05 35.4572
7.50000E-05 32.8212
0.000100000 29.1212
0.000125000 26.5962
0.000150000 24.7323
0.000200000 22.1160
0.000275000 19.6266
0.000350000 17.9883
0.000425000 16.8055
0.000500000 15.9001
0.000625000 14.7709
0.000750000 13.9373
0.00100000 12.7672
0.00125000 11.9688
0.00150000 11.3793
0.00200000 10.5520
0.00275000 9.76475
0.00350000 9.24665
0.00425000 8.87263
0.00500000 8.58628
0.00625000 8.22917
0.00750000 7.96556
0.0100000 7.59551
0.0125000 7.34297
0.0150000 7.15654
0.0200000 6.89482
0.0253000 6.70718
0.0314750 6.55153
0.0376500 6.43592
0.0500000 6.27269
0.0625000 6.15955
0.0750000 6.07597
0.100000 5.95852
0.125000 5.87823
0.150000 5.81884
0.200000 5.73522
0.275000 5.65515
0.350000 5.60200
0.500000 5.53328
0.750000 5.46673
1.00000 5.42525
1.50000 5.37239
2.00000 5.33726
2.75000 5.29891
3.50000 5.26907
5.00000 5.22125
7.50000 5.15667
10.0000 5.09988
15.0000 4.99505
20.0000 4.89425
27.5000 4.74280
35.0000 4.58512
50.0000 4.22479
62.5000 3.82821
68.7500 3.56501
75.0000 3.22540
81.2500 2.76137
84.3750 2.45993
87.5000 2.10099
90.6250 1.70423
92.1875 1.53305
93.7500 1.46711
94.5313 1.53211
94.9219 1.61005
95.3125 1.73229
95.5078 1.81467
95.7031 1.91440
95.8984 2.03443
96.0938 2.17828
96.2891 2.35022
96.4844 2.55534
96.6797 2.79988
96.8750 3.09145
97.0703 3.43944
97.2656 3.85544
97.6563 4.95341
98.0469 6.55488
98.4375 8.94162
98.8281 12.6068
99.2188 18.4687
99.6094 28.3829
99.8047 35.9945
100.000 46.5238
100.211 63.0101
100.422 88.3490
100.633 129.707
100.844 202.952
100.949 262.391
101.054 349.187
101.160 482.585
101.265 700.759
101.371 1090.46
101.424 1408.08
101.476 1873.62
101.529 2586.87
101.582 3736.26
101.634 5683.66
101.687 9052.99
101.744 14643.5
101.800 18515.9
101.857 14984.8
101.914 9467.72
101.962 6338.97
102.010 4405.20
102.058 3197.11
102.106 2412.45
102.201 1506.83
102.297 1030.78
102.393 751.874
102.489 574.880
102.680 371.356
102.872 262.786
103.064 197.867
103.255 155.805
103.447 126.903
103.830 90.5875
104.213 69.3206
104.596 55.6738
104.979 46.3311
105.746 34.5880
106.512 27.6609
107.278 23.1696
108.044 20.0564
109.577 16.0724
111.110 13.6624
112.642 12.0625
114.175 10.9289
117.240 9.43625
120.305 8.50057
123.370 7.85950
126.436 7.39219
132.566 6.75367
138.696 6.33408
144.827 6.03387
150.957 5.80594
163.218 5.47680
175.479 5.24446
200.000 4.92409
231.890 4.64595
263.781 4.44318
295.671 4.28179
311.616 4.21184
315.602 4.19568
319.589 4.18103
321.582 4.17548
322.579 4.17405
323.575 4.17482
324.572 4.18110
325.070 4.18937
325.568 4.20610
325.817 4.22089
326.066 4.24397
326.316 4.28239
326.565 4.35252
326.689 4.41135
326.814 4.50049
326.939 4.64471
327.063 4.90007
327.125 5.10903
327.188 5.41872
327.250 5.90554
327.312 6.73258
327.374 8.31148
327.406 9.70046
327.437 11.8937
327.468 15.6604
327.499 22.7896
327.515 28.9492
327.530 38.2862
327.546 53.1269
327.561 76.5760
327.581 119.954
327.600 148.840
327.619 119.960
327.639 76.5841
327.662 45.3199
327.684 29.4926
327.707 20.9986
327.730 16.0589
327.753 12.9638
327.775 10.9268
327.821 8.49792
327.866 7.16485
327.912 6.36100
328.002 5.48123
328.093 5.03615
328.184 4.78075
328.275 4.62077
328.366 4.51407
328.548 4.38465
328.729 4.31213
328.911 4.26729
329.093 4.23754
329.456 4.20147
329.820 4.18097
330.547 4.15891
331.273 4.14707
332.000 4.13930
333.454 4.12872
336.362 4.11393
339.269 4.10157
345.085 4.07880
350.900 4.05708
356.715 4.03611
362.530 4.01625
365.438 4.00748
366.892 4.00394
368.345 4.00177
369.799 4.00304
370.526 4.00690
371.253 4.01607
371.616 4.02471
371.980 4.03861
372.343 4.06228
372.707 4.10629
372.889 4.14366
373.070 4.20077
373.252 4.29410
373.434 4.46174
373.525 4.60068
373.615 4.80912
373.706 5.14227
373.797 5.72218
373.888 6.87062
373.933 7.91821
373.979 9.64843
374.024 12.8086
374.047 15.4488
374.070 19.4295
374.092 25.7823
374.115 36.6496
374.138 56.7420
374.161 95.7608
374.180 150.934
374.200 187.449
374.220 150.642
374.240 95.7681
374.255 66.7575
374.270 48.3276
374.285 36.4662
374.300 28.5928
374.331 19.3036
374.361 14.3660
374.392 11.4473
374.422 9.60034
374.483 7.48065
374.544 6.36297
374.605 5.70390
374.666 5.28340
374.727 4.99896
374.849 4.65004
374.970 4.45231
375.092 4.32950
375.214 4.24804
375.457 4.14979
375.701 4.09494
375.945 4.06105
376.188 4.03853
376.675 4.01107
377.162 3.99524
378.137 3.97765
379.111 3.96763
380.085 3.96061
382.033 3.95022
385.930 3.93409
389.827 3.91966
397.621 3.89197
405.415 3.86450
421.003 3.80814
436.591 3.74664
452.178 3.67261
459.972 3.62561
467.766 3.56512
475.560 3.47800
479.457 3.41498
483.354 3.32705
485.303 3.26771
487.251 3.19213
489.200 3.09202
491.148 2.95272
492.122 2.86049
493.096 2.74644
494.071 2.60324
495.045 2.42325
495.532 2.31958
496.019 2.21296
496.506 2.12305
496.993 2.11439
497.237 2.19820
497.480 2.42272
497.724 2.94604
497.846 3.42511
497.907 3.75393
497.968 4.16370
498.028 4.67959
498.089 5.33358
498.150 6.17108
498.211 7.25662
498.272 8.68415
498.333 10.5942
498.394 13.2037
498.455 16.8535
498.516 22.1383
498.576 30.0876
498.637 42.6661
498.698 63.9502
498.729 80.4514
498.759 103.435
498.790 136.802
498.820 186.992
498.851 266.995
498.881 401.637
498.911 644.125
498.942 1097.40
498.971 1804.77
499.000 2315.35
499.029 1900.23
499.058 1219.88
499.088 766.739
499.117 510.524
499.147 360.615
499.176 268.268
499.206 207.647
499.235 166.163
499.294 114.540
499.353 84.8072
499.412 66.1416
499.529 44.7214
499.647 33.2582
499.765 26.3403
499.882 21.8057
500.000 18.6487
500.153 15.7834
500.305 13.7697
500.610 11.1634
500.916 9.57349
501.221 8.51578
501.831 7.21129
502.441 6.44719
503.051 5.94918
503.662 5.60047
504.882 5.14611
506.103 4.86389
507.323 4.67180
509.764 4.42683
512.206 4.27659
514.647 4.17441
517.088 4.09989
519.529 4.04274
524.411 3.95982
529.293 3.90141
539.058 3.82153
548.822 3.76645
558.586 3.72394
578.115 3.65819
617.173 3.56044
656.230 3.48125
734.345 3.34354
773.403 3.27825
792.931 3.24599
797.814 3.23844
802.696 3.23231
805.137 3.23125
807.578 3.23601
808.799 3.24639
809.409 3.25781
810.019 3.27954
810.629 3.32708
810.934 3.37473
811.240 3.46143
811.392 3.53414
811.545 3.64448
811.697 3.82355
811.850 4.14237
811.926 4.40477
812.002 4.79597
812.079 5.41602
812.155 6.48255
812.231 8.55711
812.269 10.4189
812.308 13.4245
812.346 18.7496
812.365 23.0716
812.384 29.3528
812.403 39.0091
812.422 54.4840
812.441 80.9033
812.460 126.556
812.480 200.522
812.500 249.815
812.520 200.526
812.540 126.562
812.559 80.3704
812.579 54.0754
812.598 38.6382
812.617 29.0772
812.636 22.8339
812.655 18.5653
812.694 13.3056
812.732 10.3243
812.771 8.48881
812.847 6.44031
812.924 5.38506
813.001 4.77341
813.078 4.38693
813.155 4.12796
813.309 3.81270
813.462 3.63554
813.616 3.52616
813.770 3.45390
814.077 3.36726
814.384 3.31917
814.999 3.27010
815.614 3.24651
816.229 3.23309
817.458 3.21856
819.918 3.20529
822.377 3.19777
827.295 3.18667
832.213 3.17691
842.050 3.15803
851.887 3.13888
871.560 3.09814
891.234 3.05181
910.907 2.99461
920.744 2.95817
930.580 2.91169
940.417 2.84579
945.336 2.79880
950.254 2.73377
952.713 2.69008
955.172 2.63444
957.631 2.56053
960.091 2.45672
961.320 2.38707
962.550 2.29947
963.779 2.18637
965.009 2.03651
965.624 1.94346
966.238 1.83700
966.853 1.72094
967.468 1.61684
967.775 1.59231
968.083 1.62210
968.390 1.77946
968.698 2.25563
968.851 2.76211
968.928 3.13938
969.005 3.63921
969.082 4.31121
969.159 5.22622
969.236 6.49958
969.312 8.30983
969.389 10.9692
969.466 15.0181
969.543 21.5153
969.581 26.2791
969.620 32.6283
969.658 41.3241
969.697 53.5188
969.735 71.2651
969.774 98.2078
969.812 141.281
969.850 214.523
969.889 347.637
969.927 599.148
969.964 990.907
970.000 1279.13
970.037 1057.51
970.073 682.968
970.102 473.209
970.132 339.235
970.161 252.680
970.190 195.291
970.249 127.137
970.307 90.2983
970.365 68.1705
970.424 53.8777
970.541 37.0306
970.658 27.7883
970.775 22.1220
970.891 18.3674
971.008 15.7328
971.242 12.3350
971.476 10.2767
971.710 8.91625
971.944 7.95938
972.411 6.71561
972.879 5.95116
973.346 5.43796
973.814 5.07142
974.749 4.58505
975.684 4.27835
976.620 4.06779
977.555 3.91441
979.425 3.70582
981.296 3.57027
983.166 3.47470
985.037 3.40335
988.777 3.30294
992.518 3.23452
996.259 3.18386
1000.00 3.14405
1006.81 3.08816
1013.62 3.04472
1027.24 2.97604
1040.86 2.91810
1054.48 2.86346
1068.10 2.80819
1081.72 2.74957
1088.53 2.71834
1095.34 2.68585
1098.75 2.66969
1102.15 2.65559
1103.85 2.65200
1105.56 2.65889
1106.41 2.67685
1106.83 2.69714
1107.26 2.73597
1107.68 2.82124
1107.90 2.90651
1108.11 3.05997
1108.22 3.18899
1108.32 3.38171
1108.43 3.69468
1108.54 4.23976
1108.59 4.69109
1108.64 5.34394
1108.70 6.35833
1108.75 8.05685
1108.80 11.2146
1108.83 13.9762
1108.85 18.0723
1108.88 25.0799
1108.91 37.1328
1108.92 47.6984
1108.93 61.9033
1108.95 82.5794
1108.96 112.536
1108.98 177.597
1109.00 220.606
1109.02 177.603
1109.04 112.544
1109.05 80.7036
1109.07 59.3681
1109.10 35.9194
1109.12 23.7855
1109.15 17.3161
1109.18 13.2613
1109.21 10.7377
1109.26 7.77294
1109.31 6.14857
1109.37 5.19677
1109.42 4.57252
1109.48 4.15534
1109.59 3.63109
1109.70 3.33546
1109.81 3.15089
1109.91 3.02793
1110.13 2.87869
1110.35 2.79549
1110.79 2.70949
1111.23 2.66751
1111.66 2.64322
1112.54 2.61613
1114.28 2.58944
1116.03 2.57265
1119.52 2.54532
1123.02 2.51935
1130.01 2.46495
1137.00 2.40442
1150.97 2.25588
1164.95 2.04990
1171.94 1.91231
1178.93 1.73940
1185.92 1.51554
1192.91 1.21644
1196.40 1.02819
1199.89 0.808964
1203.39 0.560910
1206.88 0.313290
1208.63 0.224600
1209.51 0.205537
1210.38 0.216721
1211.25 0.275443
1211.69 0.330720
1212.13 0.409250
1212.56 0.517743
1213.00 0.664375
1213.44 0.860162
1213.87 1.11918
1214.31 1.46262
1214.75 1.91758
1215.18 2.52287
1215.62 3.33187
1216.06 4.42954
1216.49 5.93675
1216.93 8.04371
1217.37 11.0487
1217.80 15.4808
1218.24 22.2516
1218.68 33.1072
1219.11 51.6112
1219.55 86.2213
1219.77 115.536
1219.99 159.509
1220.21 229.387
1220.42 345.820
1220.64 552.410
1220.86 930.902
1221.08 1551.72
1221.30 2017.68
1221.52 1673.07
1221.74 1082.47
1221.97 676.512
1222.20 449.148
1222.43 317.802
1222.66 237.302
1222.89 184.484
1223.12 148.238
1223.58 103.184
1224.04 77.1188
1224.50 60.6767
1225.42 41.6437
1226.34 31.3319
1227.25 25.0340
1228.17 20.8588
1229.09 17.9239
1230.93 14.1120
1232.77 11.7804
1234.61 10.2239
1236.44 9.11911
1240.12 7.66362
1243.79 6.75478
1247.47 6.13603
1251.14 5.68861
1258.49 5.08569
1265.84 4.69831
1273.20 4.42787
1280.55 4.22786
1295.25 3.95001
1309.95 3.76405
1324.65 3.62882
1339.35 3.52442
1368.75 3.36928
1398.16 3.25371
1412.86 3.20424
1427.56 3.15832
1442.26 3.11553
1449.61 3.09854
1451.45 3.09779
1453.28 3.10541
1454.20 3.12063
1455.12 3.16813
1455.58 3.23555
1455.81 3.30271
1456.04 3.42352
1456.27 3.67697
1456.39 3.92252
1456.50 4.35039
1456.56 4.70421
1456.62 5.21677
1456.67 6.03147
1456.73 7.38091
1456.79 9.96365
1456.82 12.2082
1456.85 15.5723
1456.87 21.3769
1456.90 31.5601
1456.92 40.5978
1456.93 53.0179
1456.95 71.4933
1456.96 99.4241
1456.98 158.357
1457.00 195.598
1457.02 158.332
1457.04 99.3928
1457.06 71.4634
1457.07 51.9338
1457.09 39.1557
1457.10 31.0488
1457.13 20.8436
1457.16 15.2603
1457.19 11.9156
1457.22 9.76704
1457.27 7.27840
1457.33 5.95222
1457.39 5.16488
1457.45 4.66018
1457.51 4.31763
1457.62 3.89605
1457.74 3.65640
1457.97 3.40824
1458.20 3.28885
1458.43 3.22225
1458.90 3.15409
1459.83 3.10265
1460.75 3.08266
1462.61 3.06482
1464.47 3.05506
1471.90 3.02925
1486.75 2.98418
1501.61 2.93788
1509.03 2.91483
1512.75 2.90890
1513.68 2.91277
1514.61 2.92960
1515.07 2.95555
1515.53 3.03027
1515.77 3.13200
1515.88 3.23094
1516.00 3.40578
1516.11 3.75893
1516.17 4.08862
1516.23 4.64651
1516.29 5.70073
1516.32 6.61755
1516.35 8.05566
1516.37 10.4828
1516.40 14.9947
1516.42 18.9578
1516.43 24.4876
1516.45 33.6300
1516.46 47.4021
1516.48 74.5213
1516.50 92.0006
1516.52 74.5240
1516.54 47.4055
1516.56 30.7722
1516.58 21.0603
1516.60 15.4393
1516.61 12.1408
1516.63 9.86182
1516.65 8.31698
1516.69 6.46693
1516.73 5.39482
1516.76 4.75208
1516.84 4.03142
1516.91 3.65506
1516.99 3.43943
1517.14 3.20984
1517.43 3.03409
1517.73 2.96866
1518.33 2.91893
1518.92 2.89969
1520.12 2.88284
1521.31 2.87393
1526.08 2.85097
1535.62 2.80914
1545.16 2.76206
1554.70 2.70612
1564.24 2.63638
1573.78 2.54413
1578.55 2.48484
1583.32 2.41301
1585.71 2.37198
1588.09 2.33049
1589.28 2.31481
1590.48 2.31934
1591.07 2.35113
1591.37 2.39019
1591.67 2.46736
1591.97 2.63861
1592.12 2.80975
1592.26 3.11756
1592.34 3.37390
1592.41 3.75162
1592.49 4.35924
1592.56 5.39196
1592.64 7.42567
1592.67 9.22277
1592.71 12.1174
1592.75 17.3824
1592.79 27.6225
1592.81 37.1743
1592.82 51.6613
1592.84 77.4992
1592.86 121.822
1592.88 192.143
1592.90 241.256
1592.92 192.140
1592.94 121.817
1592.96 70.7883
1592.99 44.3459
1593.01 30.1786
1593.03 21.9521
1593.05 16.8219
1593.08 13.4312
1593.12 9.45611
1593.17 7.21949
1593.21 5.87049
1593.31 4.40822
1593.40 3.65954
1593.49 3.23360
1593.67 2.78494
1593.85 2.56329
1594.04 2.43690
1594.40 2.30226
1594.77 2.23145
1595.13 2.18645
1595.86 2.12689
1597.32 2.04339
1598.79 1.96685
1601.71 1.79236
1604.63 1.56053
1606.09 1.41175
1607.55 1.23377
1609.02 1.02175
1610.48 0.782313
1611.21 0.666782
1611.94 0.582305
1612.67 0.592634
1613.03 0.679459
1613.40 0.874133
1613.77 1.26048
1613.95 1.57092
1614.13 1.99750
1614.31 2.59345
1614.50 3.42521
1614.68 4.61678
1614.86 6.33992
1615.04 8.92904
1615.23 12.9437
1615.41 19.4725
1615.59 30.7132
1615.68 39.6408
1615.77 52.1041
1615.87 70.2642
1615.96 97.8252
1616.05 142.388
1616.14 217.144
1616.23 351.759
1616.32 602.863
1616.41 1010.88
1616.50 1316.32
1616.59 1095.28
1616.68 714.163
1616.76 467.283
1616.85 320.900
1616.93 232.509
1617.02 176.929
1617.10 139.286
1617.19 113.018
1617.36 79.8946
1617.53 60.3192
1617.70 47.8715
1618.04 33.2680
1618.37 25.2729
1618.71 20.3566
1619.05 17.0816
1619.39 14.7692
1620.07 11.7580
1620.75 9.90916
1621.43 8.67163
1622.10 7.79103
1623.46 6.62930
1624.82 5.90233
1626.17 5.40684
1627.53 5.04833
1630.24 4.56511
1632.95 4.25470
1635.66 4.03825
1638.37 3.87845
1643.80 3.65715
1649.22 3.50992
1654.65 3.40371
1660.07 3.32255
1670.92 3.20419
1681.76 3.11934
1687.19 3.08479
1692.61 3.05503
1695.32 3.04313
1698.04 3.03741
1699.39 3.04247
1700.75 3.06970
1701.43 3.11341
1701.77 3.15850
1702.10 3.24169
1702.44 3.41908
1702.61 3.59435
1702.78 3.90632
1702.87 4.16545
1702.95 4.55371
1703.04 5.17310
1703.12 6.23310
1703.21 8.33663
1703.25 10.2178
1703.29 13.2838
1703.33 18.9372
1703.35 23.5066
1703.38 30.2765
1703.40 40.8271
1703.42 58.2874
1703.44 89.0985
1703.46 148.004
1703.48 235.833
1703.50 293.292
1703.52 235.856
1703.54 148.033
1703.56 87.1998
1703.59 56.2097
1703.61 39.0137
1703.63 28.7746
1703.65 22.0367
1703.67 17.7557
1703.72 12.5757
1703.76 9.64636
1703.81 7.90622
1703.90 5.98114
1703.98 4.98997
1704.07 4.42522
1704.16 4.06632
1704.25 3.82899
1704.43 3.53794
1704.60 3.37586
1704.96 3.20948
1705.31 3.12949
1705.67 3.08477
1706.38 3.03801
1707.79 2.99983
1709.21 2.98211
1712.05 2.96118
1714.88 2.94575
1726.22 2.89477
1748.90 2.80182
1771.57 2.70451
1794.25 2.58808
1816.93 2.42681
1828.27 2.31208
1839.61 2.15346
1845.28 2.04721
1850.95 1.91275
1856.62 1.73627
1862.29 1.49414
1865.12 1.33638
1867.96 1.14464
1870.79 0.910485
1873.63 0.631275
1875.04 0.482615
1876.46 0.348136
1877.17 0.299282
1877.88 0.277377
1878.59 0.303560
1879.30 0.415306
1879.65 0.523496
1880.00 0.683172
1880.36 0.914960
1880.71 1.24606
1881.07 1.72083
1881.42 2.40107
1881.78 3.38905
1882.13 4.84969
1882.49 7.07193
1882.84 10.5514
1883.19 16.2722
1883.55 26.2969
1883.73 34.2898
1883.90 45.5841
1884.08 62.1812
1884.26 87.6193
1884.43 128.668
1884.61 199.129
1884.79 328.464
1884.96 575.631
1885.13 965.837
1885.30 1264.49
1885.47 1057.52
1885.64 690.212
1885.75 508.695
1885.86 383.131
1885.98 296.723
1886.09 236.546
1886.32 160.633
1886.55 117.144
1886.77 89.9607
1887.00 71.9783
1887.45 50.2094
1887.91 37.9121
1888.36 30.2468
1888.82 25.0835
1889.27 21.4277
1890.18 16.6472
1891.09 13.7113
1892.00 11.7501
1892.91 10.3602
1894.73 8.53351
1896.54 7.39916
1898.36 6.63071
1900.18 6.07837
1903.81 5.33929
1907.45 4.86916
1911.08 4.54407
1914.72 4.30582
1921.99 3.97938
1929.26 3.76532
1936.53 3.61316
1943.80 3.49868
1958.34 3.33589
1972.88 3.22347
1980.15 3.17871
1987.42 3.13951
1994.69 3.10591
1998.33 3.09617
1999.24 3.09896
2000.15 3.11402
2000.60 3.13817
2001.05 3.20832
2001.28 3.30418
2001.51 3.56250
2001.62 3.89811
2001.68 4.21260
2001.74 4.73450
2001.79 5.73717
2001.82 6.63095
2001.85 7.98858
2001.88 10.3760
2001.91 14.6832
2001.92 18.3001
2001.93 23.6885
2001.95 31.9459
2001.96 44.9777
2001.98 69.9140
2002.00 86.8981
2002.02 69.9191
2002.04 44.9839
2002.06 29.8667
2002.07 20.7212
2002.09 15.3514
2002.11 12.0282
2002.13 9.86036
2002.15 8.37961
2002.18 6.59432
2002.22 5.54960
2002.25 4.92068
2002.32 4.20447
2002.39 3.83108
2002.47 3.61762
2002.61 3.39166
2002.89 3.21774
2003.18 3.15296
2003.75 3.10367
2004.32 3.08451
2006.60 3.05878
2011.15 3.03703
2020.27 3.00344
2029.39 2.97351
2038.50 2.94598
2056.73 2.89632
2065.85 2.87399
2070.41 2.86495
2072.68 2.86719
2073.82 2.89380
2074.11 2.92231
2074.39 3.00081
2074.54 3.10478
2074.68 3.37184
2074.75 3.69945
2074.82 4.46536
2074.86 5.31423
2074.89 6.95296
2074.91 8.47474
2074.93 10.9345
2074.95 15.1259
2074.96 22.1113
2074.98 33.5143
2075.00 41.3237
2075.02 33.5062
2075.04 22.1011
2075.05 15.4250
2075.07 11.2863
2075.09 8.79664
2075.10 7.30302
2075.14 5.54833
2075.17 4.64650
2075.24 3.79569
2075.30 3.43407
2075.44 3.13412
2075.57 3.01704
2075.84 2.92704
2076.10 2.89343
2077.16 2.85786
2079.29 2.84437
2083.55 2.83254
2092.05 2.81316
2109.07 2.77693
2143.10 2.70908
2177.13 2.64441
2194.15 2.61311
2202.65 2.60024
2204.78 2.59954
2206.91 2.60498
2207.97 2.61613
2209.03 2.65121
2209.57 2.70128
2210.10 2.84183
2210.36 3.03264
2210.50 3.21860
2210.63 3.54857
2210.76 4.22016
2210.83 4.85866
2210.90 5.93333
2210.96 8.02883
2211.00 9.85569
2211.03 12.7602
2211.06 17.7583
2211.09 27.3303
2211.11 35.9611
2211.13 48.4740
2211.14 69.7877
2211.16 102.688
2211.18 162.359
2211.20 202.648
2211.22 162.372
2211.24 102.704
2211.26 65.2269
2211.28 43.1393
2211.30 30.4607
2211.32 22.7421
2211.34 17.7666
2211.36 14.3981
2211.40 10.2896
2211.44 7.98905
2211.48 6.57809
2211.56 5.01396
2211.64 4.21410
2211.72 3.75162
2211.88 3.26762
2212.04 3.02997
2212.20 2.89737
2212.52 2.76089
2213.16 2.65940
2213.79 2.62228
2215.07 2.59376
2216.35 2.58207
2221.46 2.56327
2231.67 2.54131
2252.10 2.50068
2272.53 2.45934
2282.75 2.43859
2287.86 2.43002
2290.41 2.43350
2291.69 2.46549
2292.01 2.49959
2292.32 2.59390
2292.48 2.71951
2292.64 3.04541
2292.72 3.45373
2292.80 4.43238
2292.84 5.52867
2292.88 7.79001
2292.90 9.91817
2292.92 13.4805
2292.94 19.8579
2292.96 31.3840
2292.98 48.4420
2293.00 60.3005
2293.02 48.4501
2293.04 31.3940
2293.06 19.0380
2293.08 12.8199
2293.10 9.41218
2293.12 7.40080
2293.17 5.25222
2293.21 4.25095
2293.29 3.35288
2293.38 2.98149
2293.55 2.68542
2293.72 2.57238
2294.06 2.48660
2294.40 2.45485
2295.76 2.42085
2298.47 2.40688
2303.91 2.39285
2314.78 2.36787
2336.52 2.31643
2380.00 2.20136
2423.48 2.06218
2445.22 1.97945
2456.09 1.93428
2461.53 1.91289
2464.25 1.91168
2464.93 1.92005
2465.60 1.94912
2465.94 1.99155
2466.28 2.11011
2466.45 2.26891
2466.62 2.68719
2466.71 3.21297
2466.75 3.69996
2466.79 4.48507
2466.84 5.94958
2466.88 8.94212
2466.90 11.7826
2466.92 16.5838
2466.94 25.3089
2466.96 41.9754
2466.98 65.9486
2467.00 82.0394
2467.02 65.9571
2467.04 41.9860
2467.06 24.7648
2467.08 16.0078
2467.10 11.2917
2467.13 8.54251
2467.17 5.68405
2467.21 4.32454
2467.26 3.56607
2467.30 3.11961
2467.39 2.62977
2467.57 2.23743
2467.74 2.08846
2468.10 1.97459
2468.45 1.93194
2469.16 1.89845
2469.86 1.88430
2472.69 1.85996
2478.34 1.82880
2489.64 1.76725
2512.24 1.62605
2534.85 1.45013
2557.45 1.22253
2580.05 0.915536
2591.36 0.720034
2602.66 0.491381
2613.96 0.240246
2619.61 0.125331
2622.44 0.0806246
2625.26 0.0531436
2628.09 0.0545719
2629.50 0.0717499
2630.91 0.104269
2632.32 0.156784
2633.74 0.235410
2635.15 0.348407
2636.56 0.506910
2637.98 0.726731
2639.39 1.02974
2640.80 1.44749
2642.21 2.02582
2643.63 2.83536
2645.04 3.98350
2646.45 5.64945
2647.16 6.77472
2647.51 7.48449
2647.69 8.04209
2647.78 8.74756
2647.82 9.78289
2647.84 10.9536
2647.86 13.2512
2647.88 16.4577
2647.90 18.4721
2647.92 16.5291
2647.94 13.4026
2647.96 11.4161
2647.98 10.3497
2648.01 9.42217
2648.09 8.98179
2648.24 9.07962
2648.55 9.76072
2649.16 11.5115
2650.38 16.3558
2651.59 23.9385
2652.81 36.4617
2654.03 58.7183
2654.64 76.5994
2655.25 102.225
2655.86 140.310
2656.47 198.742
2657.08 291.526
2657.69 439.404
2658.50 739.163
2659.30 970.079
2660.11 813.995
2660.91 533.127
2661.66 353.024
2662.41 244.867
2663.16 178.808
2663.92 136.504
2665.42 88.0880
2666.92 62.6210
2668.42 47.5632
2669.92 37.8782
2672.93 26.4830
2675.93 20.1934
2678.94 16.3007
2681.94 13.6909
2684.94 11.8368
2690.95 9.40108
2696.96 7.88671
2702.97 6.85860
2708.98 6.11529
2721.00 5.10613
2733.01 4.43999
2745.03 3.95032
2757.05 3.55643
2781.08 2.88306
2793.10 2.53992
2805.11 2.14397
2811.12 1.90852
2817.13 1.63386
2823.14 1.30465
2829.15 0.904379
2832.15 0.676278
2835.16 0.439130
2838.16 0.225139
2839.66 0.153855
2841.16 0.140298
2841.91 0.170710
2842.67 0.239468
2843.42 0.362307
2844.17 0.562205
2844.92 0.873445
2845.67 1.34846
2846.42 2.06985
2847.17 3.17233
2847.92 4.88517
2848.67 7.61929
2849.42 12.1600
2850.18 20.1359
2850.55 26.4391
2850.93 35.3022
2851.30 48.2148
2851.68 67.6126
2852.05 98.1964
2852.43 148.577
2852.80 236.263
2853.18 391.634
2853.59 668.176
2854.00 887.854
2854.41 753.889
2854.82 499.720
2855.22 328.878
2855.62 227.568
2856.02 166.395
2856.42 127.503
2856.82 101.460
2857.22 83.2126
2858.02 59.9748
2858.82 46.1881
2859.62 37.2995
2861.22 26.7680
2862.82 20.9025
2864.42 17.2385
2866.02 14.7622
2867.61 12.9903
2870.81 10.6428
2874.01 9.16958
2877.21 8.16409
2880.41 7.43573
2886.80 6.45187
2893.20 5.81727
2899.60 5.37222
2905.99 5.04125
2918.78 4.57773
2931.58 4.26417
2937.97 4.14135
2944.37 4.03491
2950.76 3.94427
2953.96 3.91625
2954.76 3.92144
2955.56 3.95497
2955.96 4.00985
2956.36 4.16989
2956.56 4.38758
2956.76 4.96847
2956.86 5.70813
2956.91 6.39040
2956.96 7.52949
2957.01 9.63729
2957.04 11.4299
2957.06 14.1772
2957.09 18.6615
2957.11 26.5844
2957.14 41.9464
2957.15 54.3708
2957.16 72.8652
2957.18 113.636
2957.20 141.717
2957.22 113.647
2957.24 72.7048
2957.26 43.7334
2957.28 28.8749
2957.31 20.7046
2957.33 15.8716
2957.35 12.8173
2957.37 10.7786
2957.42 8.32636
2957.46 6.97119
2957.50 6.14706
2957.59 5.24021
2957.68 4.77929
2957.77 4.51356
2957.94 4.23445
2958.30 4.02068
2958.65 3.93974
2959.35 3.87486
2960.06 3.84625
2962.87 3.79360
2968.51 3.72695
2974.14 3.66914
2979.78 3.61604
3002.31 3.43617
3047.38 3.17041
3069.92 3.06448
3092.45 2.96992
3103.72 2.92666
3114.99 2.88788
3120.62 2.87277
3126.25 2.86808
3129.07 2.87905
3131.89 2.92614
3133.30 2.99747
3134.00 3.06934
3134.70 3.19988
3135.41 3.47410
3135.76 3.74130
3136.11 4.21638
3136.29 4.60692
3136.46 5.18943
3136.64 6.11440
3136.82 7.71478
3136.99 10.8521
3137.08 13.6936
3137.17 18.3517
3137.26 26.7474
3137.30 33.7021
3137.34 44.0870
3137.39 60.4490
3137.43 87.9480
3137.48 137.543
3137.52 232.529
3137.56 370.340
3137.60 460.412
3137.64 369.026
3137.68 230.602
3137.73 136.051
3137.77 86.6768
3137.81 58.9019
3137.86 42.8669
3137.90 32.5122
3137.95 25.7669
3138.04 17.6277
3138.12 13.0797
3138.21 10.3246
3138.39 7.31947
3138.57 5.79127
3138.75 4.92038
3138.92 4.37547
3139.10 4.01243
3139.45 3.57364
3139.81 3.33040
3140.52 3.08340
3141.23 2.96698
3141.94 2.90272
3143.35 2.83695
3146.19 2.78484
3149.03 2.76092
3154.70 2.73175
3160.37 2.70898
3183.06 2.62883
3194.41 2.59314
3200.08 2.57826
3205.76 2.56842
3211.43 2.57138
3214.27 2.58481
3217.10 2.61789
3218.52 2.64932
3219.94 2.69995
3221.36 2.78609
3222.78 2.94588
3223.48 3.08106
3224.19 3.28719
3224.90 3.62314
3225.61 4.22469
3225.97 4.72259
3226.32 5.46613
3226.68 6.65569
3227.03 8.71955
3227.38 12.8089
3227.56 16.5309
3227.74 22.6747
3227.92 33.9461
3228.01 43.4090
3228.09 57.5263
3228.18 80.3522
3228.27 119.041
3228.36 191.701
3228.45 331.999
3228.52 531.711
3228.60 662.574
3228.68 527.948
3228.75 330.785
3228.80 241.482
3228.85 180.902
3228.95 108.843
3229.04 71.7195
3229.14 50.7117
3229.24 37.8405
3229.34 29.4413
3229.53 19.6012
3229.72 14.2485
3229.92 11.0571
3230.30 7.58344
3230.69 5.84313
3231.08 4.85032
3231.46 4.23140
3231.85 3.81984
3232.63 3.32318
3233.40 3.04672
3234.17 2.87659
3234.95 2.76413
3236.50 2.62826
3238.04 2.55125
3239.59 2.50229
3241.14 2.46846
3244.24 2.42519
3247.33 2.40551
3248.88 2.41289
3250.43 2.46731
3251.21 2.56096
3251.59 2.66040
3251.98 2.84713
3252.37 3.25040
3252.56 3.64994
3252.75 4.35866
3252.85 4.94212
3252.95 5.80679
3253.04 7.16248
3253.14 9.42353
3253.24 13.7012
3253.29 17.4327
3253.33 23.0994
3253.38 32.6950
3253.43 49.6515
3253.48 83.3270
3253.50 112.633
3253.53 157.254
3253.56 251.781
3253.60 315.112
3253.64 254.289
3253.67 160.183
3253.71 95.8617
3253.75 61.3378
3253.79 42.2749
3253.83 30.9647
3253.87 23.7984
3253.91 19.0035
3253.99 13.2686
3254.07 10.0335
3254.15 8.05859
3254.31 5.88238
3254.47 4.75790
3254.63 4.10775
3254.95 3.41543
3255.27 3.07044
3255.58 2.87340
3256.22 2.66464
3257.50 2.49860
3258.77 2.43043
3261.32 2.36807
3263.87 2.33502
3268.97 2.29185
3274.06 2.25786
3284.26 2.19573
3294.45 2.13294
3314.85 1.99157
3335.24 1.81107
3345.43 1.69621
3355.63 1.55568
3365.82 1.37728
3376.02 1.14071
3381.12 0.990651
3386.21 0.812166
3391.31 0.600167
3396.41 0.358360
3398.96 0.237908
3401.51 0.141207
3402.78 0.116052
3404.06 0.121721
3405.33 0.179702
3406.60 0.327562
3407.24 0.454945
3407.88 0.634167
3408.52 0.884093
3409.15 1.23151
3409.79 1.71651
3410.43 2.39650
3411.06 3.36300
3411.70 4.76132
3412.34 6.83732
3412.98 10.0083
3413.61 15.0634
3414.25 23.5782
3414.89 39.0225
3415.21 51.6650
3415.52 70.0129
3415.84 97.7781
3416.16 141.165
3416.48 211.847
3416.80 327.481
3417.20 554.949
3417.60 733.585
3418.00 619.979
3418.40 408.844
3418.66 307.570
3418.92 236.017
3419.44 149.494
3419.95 103.395
3420.47 76.5113
3420.99 59.4905
3421.50 48.0694
3422.54 34.0651
3423.57 26.0666
3424.60 21.0185
3426.67 15.1522
3428.73 11.9315
3430.80 9.93299
3432.87 8.58635
3434.93 7.62364
3439.06 6.34740
3443.20 5.54432
3447.33 4.99405
3451.46 4.59360
3459.72 4.04849
3467.99 3.69241
3476.25 3.43884
3484.52 3.24682
3501.05 2.96907
3517.57 2.77036
3550.63 2.48301
3583.69 2.25979
3616.74 2.05835
3649.80 1.85781
3666.33 1.75388
3674.59 1.70320
3678.73 1.68978
3679.76 1.69744
3680.79 1.73165
3681.31 1.78478
3681.83 1.93784
3682.08 2.14759
3682.34 2.71179
3682.47 3.44135
3682.54 4.13059
3682.60 5.28149
3682.67 7.50066
3682.70 9.41075
3682.73 12.4087
3682.76 17.6837
3682.79 27.3162
3682.81 35.4764
3682.83 47.7346
3682.84 66.7083
3682.86 96.1947
3682.88 152.858
3682.90 190.606
3682.92 152.862
3682.94 96.2001
3682.96 58.5889
3682.99 38.7727
3683.01 27.3190
3683.03 20.2985
3683.05 15.7468
3683.07 12.6507
3683.11 8.85452
3683.15 6.71714
3683.20 5.40105
3683.28 3.93632
3683.36 3.17769
3683.45 2.74420
3683.62 2.28670
3683.95 1.93590
3684.29 1.80553
3684.96 1.70652
3685.64 1.66801
3686.99 1.63408
3688.33 1.61595
3693.73 1.56926
3704.51 1.48792
3726.07 1.31571
3747.64 1.12155
3769.20 0.898788
3790.76 0.642290
3812.33 0.358972
3823.11 0.225217
3828.50 0.171866
3833.89 0.140641
3836.59 0.140288
3839.28 0.157687
3841.98 0.204885
3844.67 0.308281
3846.02 0.399603
3847.37 0.539752
3848.72 0.767235
3850.06 1.17055
3850.74 1.50197
3851.41 1.99704
3852.09 2.78681
3852.76 4.16671
3853.43 6.92252
3853.77 9.47263
3854.11 13.7537
3854.45 21.7537
3854.61 28.6578
3854.78 39.2992
3854.95 57.0731
3855.12 89.0911
3855.20 115.346
3855.29 153.575
3855.37 210.485
3855.46 295.115
3855.58 473.349
3855.70 591.126
3855.82 472.022
3855.95 295.425
3856.03 213.291
3856.11 157.800
3856.27 93.1222
3856.43 60.3256
3856.59 42.0433
3856.75 30.8340
3856.91 23.5945
3857.23 15.0844
3857.55 10.5057
3857.87 7.77428
3858.51 4.83284
3859.16 3.38154
3859.80 2.57422
3861.08 1.78984
3862.37 1.48173
3863.65 1.38388
3866.22 1.50070
3868.79 1.88521
3871.36 2.52049
3873.93 3.47166
3876.49 4.87178
3879.06 6.95659
3881.63 10.1379
3884.20 15.1821
3886.77 23.5960
3889.34 38.6524
3890.62 50.7830
3891.90 68.2182
3893.19 94.0903
3894.47 133.801
3895.76 196.578
3897.04 296.447
3898.77 503.818
3900.50 667.533
3902.23 565.144
3903.96 373.280
3906.00 225.277
3908.05 146.840
3910.09 103.291
3912.13 77.1790
3914.18 60.3756
3916.22 48.9415
3920.31 34.7612
3924.40 26.5689
3928.48 21.3610
3930.53 19.4328
3932.57 17.8280
3933.59 17.1340
3934.61 16.5320
3935.12 16.2992
3935.63 16.2162
3935.89 16.3617
3936.02 16.5722
3936.15 16.9947
3936.27 17.9245
3936.34 18.8223
3936.40 20.3324
3936.46 23.2401
3936.50 25.7719
3936.53 29.7366
3936.56 36.3993
3936.59 48.6806
3936.61 58.9337
3936.62 74.1138
3936.64 97.1754
3936.66 131.711
3936.68 202.002
3936.70 248.333
3936.72 201.981
3936.74 131.668
3936.76 97.1155
3936.78 74.0365
3936.79 58.8391
3936.81 49.1050
3936.84 36.5299
3936.87 29.8762
3936.90 25.7555
3936.93 23.1891
3937.00 20.1818
3937.06 18.5331
3937.12 17.5432
3937.25 16.4565
3937.37 15.8792
3937.50 15.5270
3937.75 15.1010
3938.25 14.6321
3938.75 14.3150
3939.76 13.8055
3940.76 13.3630
3942.77 12.5794
3944.77 11.8927
3952.80 9.79274
3960.83 8.35664
3968.85 7.31196
3984.91 5.88423
3992.93 5.36929
3996.95 5.15090
3998.95 5.07571
3999.46 5.08161
3999.96 5.14433
4000.21 5.25093
4000.46 5.55966
4000.59 5.97232
4000.71 7.01938
4000.77 8.29062
4000.84 11.1162
4000.87 14.1732
4000.90 19.7858
4000.91 24.7587
4000.93 31.8016
4000.95 43.5418
4000.96 60.9323
4000.98 94.4802
4001.00 117.017
4001.02 94.5089
4001.04 60.9667
4001.06 42.6655
4001.07 30.7081
4001.09 23.3376
4001.11 18.8370
4001.14 13.4586
4001.17 10.6484
4001.24 7.98537
4001.30 6.81573
4001.44 5.83693
4001.57 5.45166
4001.83 5.14544
4002.10 5.02361
4002.63 4.91695
4003.16 4.86219
4005.28 4.73292
4009.51 4.53466
4017.99 4.18439
4034.94 3.57664
4051.88 3.02564
4068.83 2.46623
4085.78 1.82198
4094.25 1.43389
4102.73 0.979027
4106.96 0.724815
4111.20 0.461414
4115.44 0.219001
4117.56 0.130925
4119.67 0.0965715
4120.73 0.113949
4121.79 0.166842
4122.85 0.269681
4123.91 0.443430
4124.97 0.719489
4126.03 1.14456
4127.09 1.79253
4128.15 2.78224
4129.21 4.31495
4130.27 6.73935
4131.33 10.7127
4132.38 17.5533
4133.44 30.1645
4133.97 40.5635
4134.50 55.7249
4135.03 78.6638
4135.56 114.496
4136.09 172.518
4136.62 266.931
4137.31 460.481
4138.00 619.060
4138.69 532.302
4139.38 356.897
4139.96 249.962
4140.55 181.344
4141.13 137.181
4141.71 107.785
4142.88 72.6559
4144.04 53.4047
4145.21 41.6693
4146.37 33.9549
4148.70 24.6456
4151.04 19.3657
4153.37 16.0250
4155.70 13.7446
4158.03 12.0987
4162.69 9.89424
4167.35 8.49033
4172.01 7.51748
4176.68 6.80118
4186.00 5.80651
4195.32 5.13397
4213.97 4.23010
4232.62 3.56507
4241.94 3.24994
4251.27 2.90873
4260.59 2.49157
4265.25 2.22416
4269.91 1.88467
4272.24 1.67386
4274.57 1.42455
4276.91 1.12644
4279.24 0.774068
4281.57 0.404367
4282.73 0.281999
4283.32 0.278406
4283.61 0.303675
4283.90 0.355309
4284.48 0.578303
4284.77 0.780628
4285.06 1.07396
4285.36 1.49782
4285.65 2.10505
4285.94 2.98225
4286.23 4.26457
4286.52 6.18220
4286.81 9.10529
4287.10 13.7329
4287.39 21.4083
4287.69 35.0113
4287.83 45.8141
4287.98 60.9774
4288.12 83.1330
4288.27 115.916
4288.41 166.165
4288.56 242.220
4288.78 419.440
4289.00 564.568
4289.22 484.882
4289.44 325.004
4289.65 220.357
4289.85 156.157
4290.05 116.323
4290.26 90.4732
4290.67 60.4176
4291.07 44.3316
4291.48 34.6340
4291.89 28.3065
4292.70 20.7345
4293.52 16.4569
4294.33 13.7612
4295.15 11.9238
4295.96 10.5993
4297.60 8.82791
4299.23 7.70472
4300.86 6.93001
4302.49 6.36388
4305.75 5.58858
4309.01 5.07899
4312.27 4.71432
4315.53 4.43716
4322.05 4.03539
4328.58 3.74886
4341.62 3.34271
4354.67 3.04387
4367.71 2.79542
4393.80 2.36220
4419.89 1.94831
4445.98 1.51002
4472.07 1.01771
4485.11 0.747972
4491.64 0.612405
4494.90 0.559445
4495.71 0.559693
4496.53 0.592079
4496.94 0.651567
4497.34 0.829726
4497.55 1.07448
4497.75 1.72830
4497.85 2.55931
4497.90 3.32399
4497.96 4.59708
4498.01 6.94231
4498.03 8.97495
4498.06 11.9550
4498.08 16.9873
4498.11 25.4462
4498.13 41.3881
4498.15 55.2157
4498.16 73.7457
4498.18 117.374
4498.20 147.021
4498.22 117.369
4498.24 73.7382
4498.26 47.1360
4498.28 31.1649
4498.30 21.8043
4498.32 16.0187
4498.36 9.67341
4498.40 6.50694
4498.44 4.71890
4498.48 3.61593
4498.56 2.39686
4498.72 1.39335
4498.88 1.00232
4499.20 0.699774
4499.51 0.584045
4500.15 0.489997
4500.79 0.447661
4503.33 0.365761
4508.42 0.255565
4513.52 0.160787
4518.61 0.0837912
4521.15 0.0551593
4523.70 0.0356605
4526.24 0.0279001
4528.79 0.0352316
4531.34 0.0620156
4533.88 0.113918
4536.43 0.198479
4538.97 0.325614
4541.52 0.508875
4544.06 0.766583
4546.61 1.12418
4549.15 1.61724
4551.70 2.29758
4554.25 3.23999
4556.79 4.55861
4559.34 6.42785
4561.88 9.13019
4564.43 13.1313
4566.97 19.2508
4569.52 28.9873
4572.06 45.3008
4574.61 74.3810
4577.16 130.040
4578.43 176.230
4579.70 241.489
4582.05 420.296
4584.40 569.176
4586.75 491.307
4589.10 330.358
4591.03 234.349
4592.95 171.821
4594.88 131.055
4596.81 103.615
4600.66 70.5248
4604.51 52.1785
4608.37 40.9179
4612.22 33.4691
4619.93 24.4286
4627.63 19.2644
4635.34 15.9776
4643.05 13.7210
4650.75 12.0824
4666.16 9.86498
4681.58 8.42584
4696.99 7.40010
4712.40 6.61171
4743.23 5.38890
4758.64 4.83929
4774.05 4.25707
4789.47 3.55348
4797.17 3.10479
4804.88 2.53874
4808.73 2.19064
4812.59 1.78428
4816.44 1.30928
4820.29 0.772763
4822.22 0.503771
4824.15 0.278151
4825.11 0.207373
4826.07 0.191800
4827.04 0.268208
4828.00 0.499037
4828.48 0.704073
4828.96 0.994699
4829.44 1.39938
4829.93 1.95636
4830.41 2.72389
4830.89 3.77923
4831.37 5.24573
4831.85 7.29675
4832.33 10.2211
4832.82 14.4678
4833.30 20.7966
4833.78 30.5220
4834.26 46.1903
4834.50 57.6737
4834.74 72.8836
4834.98 93.8370
4835.10 107.578
4835.22 124.470
4835.34 146.758
4835.46 179.076
4835.52 203.271
4835.58 239.008
4835.64 298.687
4835.67 345.406
4835.70 409.934
4835.75 552.064
4835.80 650.880
4835.82 640.320
4835.86 550.601
4835.90 455.502
4835.93 402.868
4835.96 370.716
4836.02 340.877
4836.09 335.781
4836.15 342.236
4836.27 371.397
4836.40 409.473
4836.90 534.276
4837.44 468.606
4837.98 320.556
4838.40 235.383
4838.81 177.617
4839.22 138.651
4839.64 111.699
4840.47 78.2840
4841.29 59.2290
4842.12 47.3056
4842.95 39.3019
4844.61 29.4444
4846.26 23.7322
4847.92 20.0627
4849.57 17.5293
4851.23 15.6852
4854.54 13.1941
4857.85 11.5967
4861.17 10.4873
4864.48 9.67203
4871.10 8.55044
4877.72 7.81079
4890.97 6.88065
4904.22 6.30462
4917.47 5.90137
4930.71 5.59636
4937.34 5.47068
4940.65 5.42225
4942.30 5.43666
4942.72 5.47303
4943.13 5.58555
4943.34 5.74154
4943.55 6.16078
4943.65 6.70013
4943.75 8.01819
4943.81 9.56155
4943.86 12.8140
4943.88 16.0818
4943.91 21.8858
4943.93 33.2339
4943.95 42.9524
4943.96 56.5199
4943.98 87.5875
4944.00 107.776
4944.02 87.5890
4944.04 56.5212
4944.06 41.2082
4944.07 31.4669
4944.08 24.9423
4944.10 20.4691
4944.13 15.0215
4944.15 12.0139
4944.21 8.99674
4944.27 7.65171
4944.38 6.49290
4944.49 6.02694
4944.72 5.66098
4944.94 5.52143
4945.40 5.41257
4945.85 5.36851
4947.65 5.30298
4951.27 5.23750
4958.50 5.13092
4965.72 5.04187
4967.53 5.02819
4969.34 5.03315
4970.24 5.06092
4971.14 5.16006
4971.60 5.30604
4972.05 5.71645
4972.27 6.26772
4972.39 6.79790
4972.50 7.72352
4972.61 9.55719
4972.67 11.2516
4972.73 14.0024
4972.78 19.1094
4972.81 23.3140
4972.84 29.6301
4972.87 39.6578
4972.89 56.6834
4972.92 87.8187
4972.95 147.697
4972.98 233.247
4973.00 290.669
4973.03 233.488
4973.05 147.999
4973.08 91.1860
4973.10 60.2633
4973.13 42.2488
4973.16 31.8734
4973.18 25.0029
4973.21 20.5643
4973.26 15.1489
4973.31 12.0688
4973.37 10.1926
4973.47 8.13851
4973.58 7.08046
4973.68 6.47522
4973.89 5.83704
4974.31 5.34697
4974.73 5.16335
4975.58 5.02114
4976.42 4.96341
4978.10 4.90864
4979.79 4.87660
4986.53 4.78881
4993.26 4.71490
5000.00 4.64582
5019.87 4.45899
5039.73 4.28899
5079.46 3.97490
5119.19 3.66493
5158.92 3.32104
5178.79 3.11932
5198.65 2.88254
5218.52 2.59092
5238.38 2.21061
5248.31 1.96966
5258.25 1.68042
5268.18 1.32830
5278.11 0.900938
5283.08 0.662305
5288.04 0.423333
5293.01 0.228806
5295.49 0.182987
5296.73 0.185395
5297.98 0.212904
5299.22 0.274604
5300.46 0.383027
5301.70 0.555794
5302.94 0.817812
5304.18 1.20609
5305.43 1.77434
5306.67 2.60642
5307.91 3.83105
5309.15 5.66180
5310.39 8.45348
5311.63 12.8469
5312.87 20.0315
5314.12 32.4324
5315.36 55.2741
5315.98 73.9635
5316.60 100.817
5317.22 139.922
5317.84 196.584
5318.92 345.478
5320.00 472.509
5321.08 412.746
5322.16 280.830
5323.33 181.343
5324.51 124.612
5325.68 91.3310
5326.85 70.5768
5328.03 56.8106
5329.20 47.2232
5331.55 35.0156
5333.90 27.7590
5336.24 23.0429
5340.94 17.3946
5345.63 14.2033
5350.32 12.2286
5352.67 11.5700
5353.84 11.3416
5355.02 11.2281
5356.19 11.3543
5356.78 11.6202
5357.36 12.1975
5357.95 13.5037
5358.24 14.7784
5358.54 16.9812
5358.83 21.2280
5358.98 24.9624
5359.12 30.8181
5359.27 40.8464
5359.42 59.5407
5359.49 75.6828
5359.56 99.7374
5359.64 137.121
5359.71 195.508
5359.81 307.159
5359.90 381.499
5360.00 306.501
5360.09 194.667
5360.19 120.485
5360.29 80.2501
5360.39 57.6147
5360.49 44.1209
5360.59 35.3927
5360.69 29.5696
5360.89 22.4495
5361.09 18.4533
5361.29 16.0130
5361.68 13.2861
5362.08 11.8608
5362.48 11.0135
5363.28 10.0634
5364.08 9.53845
5364.87 9.19205
5366.47 8.72659
5368.06 8.39059
5369.65 8.11049
5372.84 7.61826
5376.03 7.13363
5379.22 6.54197
5380.81 6.11800
5381.61 5.83210
5382.40 5.45676
5383.20 4.92894
5383.60 4.57361
5384.00 4.13493
5384.40 3.61557
5384.60 3.36820
5384.79 3.23714
5384.99 3.55000
5385.09 4.18630
5385.19 5.60311
5385.29 8.83466
5385.34 11.8609
5385.39 16.5748
5385.44 24.5129
5385.49 38.2800
5385.52 48.8798
5385.54 63.3133
5385.57 83.0662
5385.59 109.314
5385.65 196.465
5385.70 277.269
5385.73 276.476
5385.76 249.227
5385.81 175.083
5385.85 133.243
5385.89 103.540
5385.93 82.9875
5385.97 68.7904
5386.05 50.4503
5386.13 39.7059
5386.21 32.8518
5386.28 28.1831
5386.44 22.3424
5386.60 18.9016
5386.76 16.6641
5387.07 13.9608
5387.39 12.3981
5387.71 11.3902
5388.02 10.6850
5388.34 10.1636
5388.97 9.44083
5389.60 8.96151
5390.87 8.35342
5392.13 7.97321
5393.40 7.70469
5395.93 7.33424
5400.99 6.87706
5406.05 6.57379
5411.11 6.34394
5416.17 6.16459
5418.70 6.09811
5421.23 6.07255
5422.49 6.10998
5423.76 6.28479
5424.39 6.55423
5424.71 6.82478
5425.02 7.31018
5425.34 8.29975
5425.50 9.22631
5425.66 10.7936
5425.81 13.7448
5425.89 16.2975
5425.97 20.2755
5426.05 26.9200
5426.13 39.0654
5426.17 49.2744
5426.21 63.8943
5426.25 86.4696
5426.29 119.582
5426.34 188.171
5426.40 234.180
5426.46 188.840
5426.51 120.418
5426.57 73.1024
5426.64 48.1283
5426.70 34.3676
5426.76 26.2172
5426.82 21.0611
5426.88 17.6162
5427.01 13.4670
5427.13 11.1692
5427.26 9.76849
5427.50 8.22570
5427.75 7.43246
5428.00 6.97324
5428.49 6.48287
5429.48 6.09285
5430.47 5.93328
5432.46 5.78519
5434.44 5.70337
5438.40 5.59173
5442.36 5.50397
5450.28 5.35692
5458.20 5.23181
5474.05 5.02352
5489.89 4.85389
5521.58 4.58826
5553.27 4.38398
5616.65 4.07424
5680.03 3.83143
5743.41 3.61654
5806.79 3.40520
5870.17 3.17183
5886.01 3.10544
5901.86 3.03387
5917.70 2.95713
5925.63 2.92495
5929.59 2.94670
5930.58 2.98654
5931.57 3.10865
5932.06 3.28036
5932.56 3.75655
5932.81 4.39322
5932.93 5.00534
5933.05 6.06357
5933.18 8.17560
5933.24 10.1101
5933.30 13.3162
5933.36 19.1839
5933.39 24.1179
5933.42 31.5922
5933.46 43.5960
5933.49 64.3086
5933.52 103.055
5933.55 176.303
5933.57 282.282
5933.60 349.814
5933.63 282.330
5933.65 176.365
5933.68 112.195
5933.70 74.2000
5933.73 52.1711
5933.76 38.6614
5933.78 29.9059
5933.81 23.9544
5933.86 16.6651
5933.91 12.5667
5933.96 10.0461
5934.07 7.26290
5934.17 5.81810
5934.28 4.98201
5934.48 4.10530
5934.90 3.43416
5935.31 3.18572
5936.14 2.99917
5936.97 2.92888
5938.63 2.87095
5940.29 2.84340
5946.93 2.78201
5960.20 2.67597
5973.48 2.55038
5986.76 2.38751
6000.03 2.15490
6006.67 1.99050
6013.31 1.76826
6016.63 1.62356
6019.95 1.44582
6023.27 1.22260
6026.58 0.937389
6028.24 0.766899
6029.90 0.579753
6031.56 0.389580
6033.22 0.249502
6034.05 0.247362
6034.88 0.360483
6035.30 0.496362
6035.71 0.720096
6036.13 1.07684
6036.54 1.63828
6036.96 2.53068
6037.37 3.97218
6037.79 6.37446
6038.20 10.5558
6038.62 18.3729
6038.82 24.8806
6039.03 34.3901
6039.24 48.8943
6039.45 71.5977
6039.65 108.438
6039.86 168.766
6040.13 293.982
6040.40 398.181
6040.67 344.502
6040.94 232.177
6041.11 179.205
6041.28 140.804
6041.61 92.8333
6041.94 66.2893
6042.27 50.3523
6042.60 40.0701
6042.94 33.0396
6043.60 24.2610
6044.26 19.1297
6044.93 15.8394
6046.26 11.9374
6047.59 9.74342
6048.91 8.35779
6050.24 7.40890
6051.57 6.72202
6054.23 5.79611
6056.88 5.20204
6059.54 4.78808
6062.20 4.48227
6067.51 4.05720
6072.82 3.77164
6083.45 3.39921
6094.08 3.15216
6104.71 2.96330
6115.33 2.80517
6120.65 2.73567
6123.30 2.71343
6124.63 2.74626
6125.30 2.92461
6125.46 3.10253
6125.63 3.56818
6125.71 4.14670
6125.79 5.52103
6125.84 7.06892
6125.88 10.1418
6125.90 13.0590
6125.92 17.9039
6125.94 26.4850
6125.96 42.0146
6125.98 65.7855
6126.00 81.4386
6126.02 65.7895
6126.04 42.0192
6126.05 31.4024
6126.07 24.4318
6126.09 15.9922
6126.11 11.3609
6126.14 8.81324
6126.19 6.13392
6126.24 4.89493
6126.33 3.78703
6126.43 3.33734
6126.63 2.97727
6126.82 2.83968
6127.60 2.69035
6129.15 2.63342
6132.27 2.58466
6138.49 2.50545
6150.95 2.35709
6163.40 2.22307
6169.63 2.17451
6172.74 2.18154
6173.52 2.20621
6174.30 2.28344
6174.69 2.39210
6175.08 2.69205
6175.27 3.09081
6175.46 4.12551
6175.56 5.42828
6175.66 8.50985
6175.71 11.9853
6175.76 18.9428
6175.78 25.7317
6175.81 36.6004
6175.83 55.7458
6175.85 92.2511
6175.88 146.551
6175.90 182.342
6175.92 146.628
6175.95 92.3488
6175.96 67.9278
6175.98 50.8499
6176.01 31.4313
6176.03 21.3308
6176.06 15.5745
6176.12 9.70592
6176.18 6.96213
6176.30 4.56442
6176.41 3.59585
6176.65 2.82650
6176.88 2.53598
6177.34 2.31637
6177.81 2.23618
6179.67 2.15902
6183.39 2.16791
6187.11 2.24988
6190.83 2.45247
6192.69 2.64292
6194.55 2.94661
6196.41 3.45575
6198.27 4.37670
6200.13 6.26050
6201.06 8.02087
6201.99 10.9882
6202.92 16.5500
6203.39 21.3266
6203.85 28.7217
6204.32 40.9627
6204.78 63.0432
6205.02 81.1334
6205.25 107.271
6205.48 146.187
6205.71 203.528
6206.06 325.078
6206.40 406.218
6206.74 325.161
6207.09 203.657
6207.44 124.333
6207.79 80.5855
6208.14 55.6626
6208.49 40.5544
6208.85 30.8393
6209.20 24.2712
6209.90 16.2662
6210.61 11.7822
6211.31 9.02764
6212.72 5.96214
6214.13 4.37705
6215.53 3.44674
6218.35 2.43525
6221.16 1.90541
6223.98 1.57515
6229.61 1.16006
6235.24 0.875802
6240.87 0.642930
6252.13 0.262653
6254.94 0.191028
6257.76 0.136476
6260.57 0.106827
6263.39 0.114041
6266.20 0.176434
6267.61 0.236705
6269.02 0.322513
6270.43 0.440229
6271.83 0.597660
6274.65 1.07628
6277.47 1.88530
6280.28 3.24948
6283.10 5.59320
6285.91 9.77324
6287.32 13.0709
6288.73 17.6800
6290.13 24.2796
6291.54 33.9701
6292.95 48.6601
6294.36 71.6333
6295.76 108.668
6297.17 168.717
6299.09 299.123
6301.00 412.153
6302.92 361.697
6304.83 246.984
6306.57 171.181
6308.32 123.677
6310.06 93.6881
6311.80 73.9561
6315.29 50.6507
6318.78 37.9396
6322.26 30.1915
6325.75 25.0784
6332.72 18.8696
6339.69 15.3111
6346.67 13.0377
6353.64 11.4722
6360.61 10.3342
6374.56 8.79762
6388.50 7.81203
6402.45 7.12725
6416.39 6.62370
6444.28 5.93116
6472.17 5.47477
6500.06 5.14908
6514.01 5.01957
6520.98 4.96693
6524.47 4.96595
6525.34 4.98714
6526.21 5.05912
6526.64 5.16345
6527.08 5.45553
6527.30 5.84578
6527.52 6.87303
6527.63 8.16345
6527.73 11.2827
6527.79 14.8573
6527.84 22.1919
6527.87 29.1583
6527.90 40.9457
6527.92 62.4097
6527.95 104.560
6527.98 164.878
6528.00 204.223
6528.02 164.934
6528.05 104.631
6528.07 73.3126
6528.09 52.9014
6528.11 39.8767
6528.12 31.6651
6528.16 21.4505
6528.20 16.1622
6528.27 10.9898
6528.35 8.69358
6528.50 6.77101
6528.65 6.00847
6528.95 5.41648
6529.25 5.19477
6529.85 5.02611
6530.45 4.96227
6532.84 4.88530
6537.64 4.83492
6547.23 4.76461
6556.82 4.70228
6566.41 4.64488
6576.00 4.59215
6585.59 4.54600
6590.39 4.52883
6595.18 4.52662
6597.58 4.54582
6599.98 4.62298
6601.18 4.74046
6601.78 4.85991
6602.38 5.07741
6602.98 5.53462
6603.28 5.97705
6603.58 6.75013
6603.88 8.29529
6604.03 9.71593
6604.18 12.0573
6604.33 16.3777
6604.40 20.0205
6604.48 25.5527
6604.55 34.4665
6604.63 49.9181
6604.70 79.0269
6604.77 135.886
6604.84 215.002
6604.90 267.969
6604.96 215.576
6605.03 136.502
6605.07 101.157
6605.11 77.0551
6605.18 48.0750
6605.26 33.0203
6605.34 24.4517
6605.42 19.1790
6605.50 15.7262
6605.66 11.6499
6605.82 9.43636
6605.97 8.10508
6606.29 6.65398
6606.61 5.92214
6606.92 5.50185
6607.55 5.06135
6608.19 4.84605
6608.82 4.72405
6610.08 4.59617
6612.61 4.49379
6615.14 4.44940
6620.19 4.40285
6625.25 4.37260
6635.36 4.32517
6645.47 4.28409
6665.68 4.21042
6685.90 4.14407
6706.12 4.08328
6726.34 4.02746
6746.56 3.97974
6751.62 3.97301
6756.67 3.97859
6759.20 3.99856
6761.73 4.06818
6762.99 4.17100
6763.62 4.27486
6764.25 4.46379
6764.88 4.86155
6765.20 5.24763
6765.52 5.92793
6765.83 7.29385
6765.99 8.55937
6766.15 10.6812
6766.31 14.6302
6766.39 18.0076
6766.46 23.2115
6766.54 31.7684
6766.62 47.0489
6766.70 77.1646
6766.74 102.762
6766.78 140.151
6766.84 222.731
6766.90 277.054
6766.96 223.337
6767.02 140.802
6767.07 98.8905
6767.11 71.7113
6767.16 53.9874
6767.20 42.0993
6767.29 27.9534
6767.38 20.3201
6767.47 15.7872
6767.56 12.8922
6767.74 9.55591
6767.92 7.78525
6768.10 6.73595
6768.46 5.60736
6768.82 5.04390
6769.18 4.72384
6769.90 4.39056
6770.62 4.22849
6771.34 4.13722
6772.78 4.04204
6775.67 3.96686
6778.55 3.93508
6784.31 3.90304
6790.07 3.88301
6801.60 3.85219
6813.12 3.82539
6836.17 3.77657
6847.70 3.75708
6853.46 3.76644
6854.90 3.78704
6856.34 3.85312
6857.07 3.94894
6857.79 4.22043
6858.15 4.58805
6858.51 5.56923
6858.69 6.81757
6858.78 7.96661
6858.87 9.87885
6858.96 13.3965
6859.00 16.3681
6859.05 20.8895
6859.09 28.1943
6859.14 40.9097
6859.18 65.0376
6859.20 85.6763
6859.23 115.047
6859.26 182.260
6859.30 227.205
6859.34 183.043
6859.37 115.878
6859.42 68.9978
6859.46 44.4416
6859.50 31.0550
6859.54 23.1848
6859.58 18.2318
6859.63 14.9354
6859.71 10.9802
6859.79 8.79854
6859.88 7.47254
6860.05 6.01893
6860.38 4.84506
6860.72 4.39216
6861.39 4.04473
6862.06 3.91445
6863.40 3.81468
6864.74 3.77609
6870.10 3.72822
6880.82 3.69692
6902.26 3.65427
6945.15 3.57870
6988.04 3.50799
7009.49 3.47462
7020.21 3.46210
7025.57 3.47265
7028.25 3.54515
7028.92 3.62228
7029.59 3.83725
7029.92 4.12503
7030.26 4.88615
7030.43 5.85186
7030.59 8.18973
7030.68 10.8747
7030.76 16.5683
7030.80 22.0922
7030.85 31.6530
7030.89 49.6202
7030.93 84.0615
7030.97 133.266
7031.00 164.940
7031.04 132.011
7031.07 84.3131
7031.11 50.4431
7031.15 32.7761
7031.19 23.1280
7031.23 17.4496
7031.31 11.4940
7031.39 8.66433
7031.55 6.11816
7031.71 5.06722
7032.03 4.22233
7032.35 3.89918
7032.98 3.65259
7033.62 3.56115
7036.17 3.46577
7041.27 3.43340
7051.46 3.41108
7061.66 3.39482
7066.76 3.39062
7069.31 3.40353
7070.58 3.46941
7071.22 3.72303
7071.38 3.96801
7071.54 4.59311
7071.62 5.35882
7071.69 7.09728
7071.73 8.97251
7071.77 12.6193
7071.81 20.8773
7071.83 29.0998
7071.85 42.5249
7071.88 66.1954
7071.90 81.8552
7071.92 66.3410
7071.95 42.7074
7071.96 32.0721
7071.98 25.0463
7072.00 16.3796
7072.03 11.8840
7072.06 9.32826
7072.12 6.72890
7072.18 5.51610
7072.29 4.46277
7072.41 4.03477
7072.64 3.69194
7072.87 3.56191
7073.80 3.42587
7075.65 3.38621
7079.35 3.37047
7086.75 3.35627
7101.55 3.33291
7131.15 3.28880
7145.95 3.26855
7160.76 3.25387
7168.16 3.25481
7175.56 3.28086
7179.26 3.32930
7181.11 3.38142
7182.96 3.47983
7184.81 3.69363
7185.73 3.90628
7186.66 4.28921
7187.12 4.60680
7187.58 5.08143
7188.05 5.83876
7188.51 7.14639
7188.97 9.70446
7189.20 11.9989
7189.43 15.7190
7189.67 22.3408
7189.78 27.7299
7189.90 35.5468
7190.01 47.6265
7190.13 66.9556
7190.24 100.150
7190.36 157.473
7190.48 250.548
7190.60 313.016
7190.72 251.555
7190.84 158.739
7190.93 113.876
7191.01 83.8030
7191.09 63.6615
7191.18 49.8613
7191.35 33.0706
7191.51 23.8512
7191.68 18.2550
7191.85 14.6626
7192.18 10.4621
7192.52 8.20905
7192.85 6.86434
7193.19 5.99837
7193.52 5.40812
7194.19 4.67682
7194.86 4.25879
7195.53 3.99677
7196.20 3.82143
7197.55 3.60779
7198.89 3.48691
7201.57 3.36038
7204.25 3.29725
7206.93 3.26002
7212.29 3.21751
7223.01 3.17472
7233.73 3.14793
7255.18 3.10587
7276.62 3.06771
7319.51 2.99184
7362.40 2.91131
7405.29 2.82161
7448.18 2.71589
7469.62 2.65310
7491.07 2.57971
7501.79 2.53742
7512.51 2.49016
7523.23 2.43734
7528.60 2.41265
7531.28 2.41859
7532.62 2.49499
7532.95 2.57726
7533.29 2.80412
7533.45 3.10448
7533.62 3.87656
7533.71 4.83183
7533.79 7.08061
7533.83 9.54557
7533.87 14.4887
7533.89 18.9992
7533.92 26.3029
7533.94 38.7805
7533.96 59.7812
7533.98 93.8419
7534.00 117.088
7534.02 93.8289
7534.04 59.7650
7534.06 38.7652
7534.09 26.2892
7534.11 18.9869
7534.13 14.4775
7534.17 9.53590
7534.21 7.07176
7534.30 4.82356
7534.38 3.86817
7534.55 3.09235
7534.71 2.79305
7535.05 2.56248
7535.38 2.47622
7536.72 2.38305
7539.40 2.34274
7544.76 2.29734
7555.48 2.20165
7566.20 2.07896
7576.92 1.91002
7582.28 1.79764
7587.64 1.65651
7593.00 1.47336
7598.36 1.22632
7601.04 1.06835
7603.72 0.880023
7606.40 0.656697
7609.08 0.404007
7611.76 0.182696
7613.10 0.167371
7613.77 0.229226
7614.44 0.380775
7615.11 0.686202
7615.78 1.26489
7616.12 1.72294
7616.45 2.35337
7616.79 3.22878
7617.12 4.46024
7617.46 6.22309
7617.79 8.80417
7618.13 12.6927
7618.46 18.7639
7618.80 28.6689
7619.13 45.6953
7619.47 76.6165
7619.80 134.482
7620.15 236.306
7620.50 323.143
7620.85 281.920
7621.20 191.530
7621.42 146.360
7621.65 114.061
7622.10 74.5272
7622.55 53.0935
7623.01 40.3798
7623.46 32.2201
7623.91 26.6777
7624.81 19.7742
7625.72 15.7427
7626.62 13.1533
7628.43 10.0740
7630.24 8.33544
7632.05 7.23226
7633.86 6.47487
7635.67 5.92498
7639.28 5.18164
7642.90 4.70392
7646.52 4.37097
7650.14 4.12544
7657.37 3.78612
7664.61 3.56091
7671.84 3.39875
7679.08 3.27496
7693.55 3.09469
7708.02 2.96531
7722.49 2.86454
7729.72 2.82363
7733.34 2.81509
7735.15 2.85231
7736.05 3.02569
7736.28 3.19876
7736.50 3.65914
7736.62 4.24481
7736.73 5.68725
7736.79 7.37880
7736.84 10.9642
7736.87 14.6596
7736.90 21.0229
7736.93 33.3955
7736.94 43.9479
7736.96 59.4675
7736.98 93.3495
7737.00 116.226
7737.02 93.3349
7737.04 59.4492
7737.07 35.9999
7737.09 23.3407
7737.12 16.4913
7737.14 12.6147
7737.19 8.37719
7737.24 6.39599
7737.34 4.62350
7737.44 3.89581
7737.64 3.30844
7737.83 3.08528
7738.62 2.85171
7740.20 2.78222
7743.36 2.75002
7749.67 2.71429
7762.29 2.65362
7787.54 2.54411
7838.04 2.34110
7888.55 2.13178
7939.05 1.89279
7989.55 1.59808
8014.80 1.41843
8040.05 1.20864
8065.30 0.960771
8090.55 0.669503
8103.17 0.511371
8115.80 0.359340
8122.11 0.299324
8128.42 0.278040
8131.58 0.308817
8133.16 0.350743
8134.73 0.430869
8136.31 0.595591
8137.10 0.748939
8137.89 1.00924
8138.68 1.51409
8139.07 1.97567
8139.47 2.74978
8139.86 4.23265
8140.06 5.55403
8140.26 7.70797
8140.46 11.6239
8140.55 14.9060
8140.65 19.8248
8140.75 27.8412
8140.85 41.6952
8140.95 68.5525
8141.00 90.9943
8141.05 123.303
8141.12 193.268
8141.20 236.966
8141.28 185.646
8141.35 113.712
8141.40 81.8391
8141.45 60.0974
8141.50 44.9836
8141.55 34.7104
8141.65 21.9264
8141.75 14.8889
8141.85 10.6012
8141.95 7.87486
8142.14 4.71898
8142.34 3.06632
8142.54 2.10808
8142.93 1.11850
8143.33 0.660023
8143.72 0.423610
8144.51 0.222156
8146.08 0.183892
8147.66 0.344561
8148.45 0.505053
8149.24 0.756891
8150.03 1.17222
8150.82 1.91368
8151.21 2.52247
8151.60 3.42012
8152.00 4.82056
8152.39 7.16871
8152.79 11.5343
8152.98 15.2329
8153.18 20.8758
8153.38 30.0100
8153.58 45.9163
8153.77 76.0281
8153.87 101.165
8153.97 136.337
8154.14 220.476
8154.30 277.891
8154.47 224.383
8154.63 141.490
8154.83 80.6318
8155.03 49.8238
8155.23 33.3449
8155.42 23.7667
8155.62 17.7792
8155.82 13.8091
8156.22 9.05680
8156.61 6.43657
8157.01 4.84256
8157.80 3.08628
8158.59 2.19500
8159.38 1.68672
8160.97 1.17678
8162.55 0.966574
8164.14 0.893894
8167.30 0.963516
8170.47 1.22628
8173.64 1.67455
8176.81 2.35485
8179.98 3.35959
8183.14 4.84520
8186.31 7.07522
8189.48 10.5080
8192.65 15.9787
8195.82 25.0976
8198.98 41.1589
8202.15 71.2026
8205.32 129.459
8208.46 229.321
8211.60 315.690
8214.74 276.806
8217.88 188.866
8219.83 146.517
8221.78 115.543
8225.68 76.7735
8229.58 55.2683
8233.48 42.3188
8237.37 33.9312
8241.27 28.1757
8249.07 20.9478
8256.87 16.6952
8264.66 13.9430
8280.26 10.6468
8295.85 8.76960
8311.45 7.56768
8319.24 7.11692
8327.04 6.73700
8330.94 6.57029
8334.84 6.42167
8338.74 6.32259
8339.71 6.33558
8340.68 6.43405
8341.17 6.59654
8341.66 7.06368
8341.90 7.68834
8342.15 9.29682
8342.27 11.2740
8342.33 13.0391
8342.39 15.8845
8342.45 20.8805
8342.51 30.7556
8342.54 39.8116
8342.57 53.7791
8342.60 76.9578
8342.63 117.501
8342.67 184.379
8342.70 228.502
8342.73 184.205
8342.77 117.114
8342.80 76.7510
8342.83 53.5943
8342.86 39.2868
8342.89 30.6083
8342.95 20.7570
8343.01 15.8359
8343.07 12.9756
8343.13 11.2035
8343.25 9.23099
8343.50 7.60638
8343.74 6.97092
8344.22 6.47632
8344.71 6.28441
8345.68 6.12341
8346.65 6.04612
8350.54 5.88174
8358.32 5.65496
8362.20 5.55982
8366.09 5.48615
8368.04 5.47363
8369.98 5.52788
8370.95 5.64526
8371.92 6.01191
8372.41 6.51838
8372.65 7.00681
8372.90 7.85518
8373.14 9.51177
8373.26 11.0049
8373.38 13.3980
8373.50 17.6438
8373.62 25.9686
8373.69 33.5001
8373.75 45.2570
8373.81 65.1462
8373.87 98.2501
8373.93 154.565
8374.00 192.549
8374.07 155.615
8374.13 99.5619
8374.18 72.1992
8374.23 54.2375
8374.27 41.9317
8374.32 33.6749
8374.41 23.4885
8374.51 17.9085
8374.60 14.4968
8374.69 12.3130
8374.88 9.74498
8375.06 8.36223
8375.25 7.53350
8375.62 6.62999
8375.99 6.17130
8376.36 5.90457
8377.10 5.61745
8378.58 5.37889
8380.06 5.27089
8383.02 5.15315
8385.98 5.07457
8391.90 4.95075
8397.82 4.84459
8409.66 4.65835
8421.50 4.49543
8445.18 4.21863
8468.86 3.98890
8516.22 3.62026
8563.58 3.32573
8658.30 2.84428
8705.67 2.62686
8729.35 2.51992
8741.19 2.46826
8747.11 2.45233
8750.07 2.48892
8751.55 2.68637
8751.92 2.88971
8752.29 3.43846
8752.47 4.14272
8752.66 5.88678
8752.75 7.92787
8752.84 12.2874
8752.89 16.7081
8752.94 24.3928
8752.98 39.3031
8753.00 51.9904
8753.03 70.7811
8753.06 112.394
8753.10 139.868
8753.14 112.965
8753.17 71.4978
8753.21 42.8206
8753.25 27.6263
8753.30 19.3399
8753.34 14.4673
8753.42 9.35942
8753.50 6.93144
8753.66 4.74446
8753.83 3.83883
8754.15 3.10690
8754.48 2.82425
8755.13 2.60494
8755.79 2.52129
8758.40 2.42563
8763.63 2.37806
8774.08 2.32384
8794.99 2.22973
8805.45 2.18774
8815.90 2.15904
8821.13 2.16283
8823.75 2.17873
8826.36 2.21754
8828.97 2.31323
8830.28 2.41325
8831.59 2.59781
8832.89 2.98963
8833.55 3.37287
8834.20 4.05223
8834.53 4.60958
8834.85 5.43735
8835.18 6.74281
8835.51 8.96750
8835.83 13.2550
8836.00 17.0405
8836.16 23.0891
8836.32 33.6646
8836.49 54.0991
8836.57 72.2551
8836.65 100.301
8836.73 146.648
8836.81 222.978
8836.91 354.797
8837.00 442.992
8837.09 354.088
8837.19 221.981
8837.30 127.922
8837.41 79.5338
8837.51 53.5339
8837.62 38.5141
8837.73 29.0298
8837.84 22.8064
8838.06 15.3397
8838.27 11.2334
8838.49 8.76507
8838.93 6.06495
8839.36 4.69926
8839.79 3.91834
8840.23 3.42952
8840.66 3.10337
8841.53 2.70815
8842.40 2.48681
8844.14 2.25831
8845.87 2.14654
8847.61 2.08155
8851.08 2.00809
8858.03 1.93309
8864.98 1.88363
8892.77 1.72235
8920.57 1.56237
8934.46 1.47963
8941.41 1.43926
8944.88 1.42643
8946.62 1.44896
8947.49 1.56843
8947.92 2.00823
8948.03 2.41690
8948.14 3.41156
8948.20 4.58606
8948.25 7.07743
8948.30 13.8724
8948.33 22.2948
8948.36 40.7160
8948.38 64.3448
8948.40 79.9772
8948.42 64.2949
8948.44 40.6533
8948.46 29.1003
8948.47 21.8072
8948.50 13.2009
8948.53 8.93748
8948.56 6.64745
8948.62 4.28119
8948.67 3.21983
8948.79 2.30236
8948.90 1.93504
8949.36 1.53475
8950.28 1.41873
8952.11 1.37832
8955.77 1.34769
8963.11 1.29848
8977.77 1.20049
9007.09 0.994493
9036.42 0.780166
9043.75 0.731337
9051.08 0.698354
9054.75 0.703948
9058.41 0.771739
9060.25 0.889082
9061.16 1.01144
9062.08 1.23658
9063.00 1.71290
9063.45 2.17562
9063.91 2.99220
9064.14 3.65692
9064.37 4.63759
9064.60 6.16996
9064.83 8.75702
9065.06 13.6299
9065.17 17.8771
9065.29 24.4605
9065.40 35.6249
9065.52 56.0594
9065.57 73.4915
9065.63 98.9802
9065.69 137.812
9065.74 197.333
9065.82 314.953
9065.90 393.397
9065.98 314.432
9066.06 196.560
9066.13 125.322
9066.20 83.7465
9066.27 58.9486
9066.34 43.4133
9066.49 26.0667
9066.63 17.3806
9066.78 12.4084
9066.92 9.35031
9067.21 5.92320
9067.50 4.14844
9067.79 3.11736
9068.37 2.03015
9068.94 1.49666
9069.52 1.19612
9070.67 0.884647
9071.83 0.732186
9072.98 0.644174
9075.29 0.546618
9079.91 0.452496
9084.53 0.395272
9093.77 0.307244
9103.00 0.231019
9121.48 0.102936
9130.72 0.0596375
9135.33 0.0566535
9137.64 0.0984435
9138.80 0.266604
9139.09 0.430349
9139.38 0.862086
9139.52 1.41807
9139.66 2.79929
9139.74 4.43292
9139.81 8.07281
9139.84 11.8193
9139.88 18.7798
9139.92 33.4206
9139.93 46.9338
9139.95 68.2579
9139.98 108.666
9140.00 135.843
9140.02 108.145
9140.05 67.6093
9140.07 45.4031
9140.09 31.7027
9140.11 22.6539
9140.13 17.0727
9140.16 10.4447
9140.20 6.98731
9140.28 3.72212
9140.36 2.30923
9140.51 1.12926
9140.67 0.667648
9140.98 0.315173
9141.29 0.186202
9142.53 0.0597422
9145.01 0.0316392
9149.97 0.0482566
9152.45 0.0821659
9154.93 0.174450
9156.18 0.297447
9157.42 0.633636
9158.04 1.08556
9158.35 1.52362
9158.66 2.29801
9158.97 3.86452
9159.12 5.32931
9159.28 7.81160
9159.43 12.5096
9159.51 16.6323
9159.59 23.0206
9159.66 33.9562
9159.74 54.0261
9159.78 71.1522
9159.82 96.8237
9159.86 136.438
9159.90 196.799
9159.95 314.652
9160.00 394.584
9160.05 315.473
9160.10 197.826
9160.15 124.389
9160.20 81.8687
9160.25 56.9782
9160.30 41.5971
9160.35 31.5695
9160.40 24.7216
9160.50 16.3534
9160.60 11.5632
9160.70 8.60753
9160.90 5.32243
9161.10 3.62117
9161.30 2.63760
9161.70 1.59594
9162.10 1.08697
9162.50 0.801534
9163.29 0.511657
9164.89 0.306211
9166.49 0.244525
9169.68 0.231259
9172.87 0.268110
9179.25 0.412751
9185.63 0.642682
9192.01 0.979259
9198.39 1.46228
9204.78 2.15335
9211.16 3.14747
9217.54 4.59569
9223.92 6.74488
9230.30 10.0164
9236.68 15.1625
9243.07 23.6025
9249.45 38.1452
9255.83 64.5556
9262.21 113.859
9268.96 202.576
9275.70 279.737
9282.45 245.875
9289.19 168.065
9293.30 131.119
9297.40 103.864
9305.61 69.3942
9313.82 50.0566
9322.03 38.3141
9330.24 30.6629
9338.44 25.3900
9342.55 23.3524
9346.65 21.6387
9348.71 20.9195
9349.73 20.6161
9350.76 20.3843
9351.78 20.3099
9352.30 20.4090
9352.81 20.7217
9353.32 21.5402
9353.58 22.3925
9353.84 23.9115
9354.09 26.9428
9354.22 29.6713
9354.35 34.0912
9354.48 41.9578
9354.61 57.4565
9354.67 71.4000
9354.73 93.6398
9354.80 130.876
9354.86 194.434
9354.93 300.740
9355.00 370.300
9355.07 299.177
9355.14 194.475
9355.19 137.916
9355.25 102.668
9355.30 80.0572
9355.36 65.0816
9355.46 47.4830
9355.57 38.0944
9355.68 32.5143
9355.79 29.0003
9356.01 24.9471
9356.22 22.7716
9356.44 21.4700
9356.87 20.0170
9357.30 19.2367
9357.74 18.7429
9358.60 18.1199
9359.47 17.7030
9360.34 17.3735
9362.07 16.8321
9363.80 16.3659
9365.53 15.9413
9368.99 15.1720
9375.92 13.8508
9382.85 12.7408
9396.70 10.9667
9400.16 10.5947
9403.63 10.2474
9407.09 9.93474
9408.82 9.84784
9409.69 10.0471
9409.90 10.3008
9410.12 10.9995
9410.23 11.8922
9410.34 14.0615
9410.39 16.5164
9410.44 21.6327
9410.47 26.4986
9410.50 34.7375
9410.52 49.7449
9410.55 79.0645
9410.58 121.337
9410.60 148.886
9410.62 121.698
9410.65 79.5155
9410.68 49.4023
9410.71 33.9032
9410.74 25.6756
9410.76 20.9263
9410.82 16.0295
9410.88 13.7439
9410.99 11.7030
9411.11 10.8538
9411.34 10.1621
9411.57 9.88649
9412.49 9.54061
9414.34 9.31322
9418.02 8.99850
9421.71 8.71569
9425.39 8.44991
9440.14 7.51097
9469.63 6.03352
9499.12 4.85322
9528.62 3.79460
9558.11 2.72448
9572.85 2.14179
9587.60 1.50113
9602.35 0.794041
9609.72 0.434876
9613.41 0.269808
9617.09 0.132127
9620.78 0.0501746
9622.62 0.0459317
9624.46 0.0803701
9626.31 0.170548
9628.15 0.341955
9629.99 0.634141
9631.84 1.11007
9633.68 1.87432
9635.52 3.10590
9637.37 5.13253
9639.21 8.59052
9641.05 14.8181
9641.98 19.8133
9642.90 26.9073
9643.82 37.2595
9644.74 52.7207
9645.66 76.3385
9646.58 112.366
9647.99 197.232
9649.40 268.714
9650.81 232.941
9652.22 156.914
9653.39 110.888
9654.55 80.9421
9655.72 61.4005
9656.88 48.2402
9659.22 32.3179
9661.55 23.4238
9663.88 17.9034
9666.22 14.1938
9670.88 9.55492
9675.55 6.74739
9680.21 4.82099
9689.54 2.23581
9694.21 1.32024
9698.88 0.638074
9701.21 0.413615
9703.54 0.302206
9704.71 0.302905
9705.88 0.351796
9707.04 0.459567
9708.21 0.639916
9709.37 0.910741
9710.54 1.29440
9711.71 1.82137
9712.87 2.52992
9715.21 4.71971
9717.54 8.53893
9719.87 15.2650
9722.21 27.4261
9724.54 50.1588
9726.87 93.2956
9729.54 181.894
9732.20 271.523
9733.53 277.508
9734.87 255.217
9737.53 184.881
9740.33 128.220
9743.12 93.4778
9745.92 71.9976
9748.72 58.0178
9751.52 48.4350
9754.31 41.5853
9755.71 38.8959
9756.41 37.7177
9757.11 36.6657
9757.81 35.7982
9758.51 35.3634
9758.86 35.6342
9759.21 37.0936
9759.38 39.2226
9759.47 41.2275
9759.56 44.4932
9759.65 50.3911
9759.73 62.0581
9759.78 72.7429
9759.82 89.4349
9759.86 118.136
9759.91 166.573
9759.95 246.284
9760.00 299.497
9760.05 245.360
9760.09 165.192
9760.12 130.846
9760.15 106.698
9760.21 77.1236
9760.26 61.5579
9760.32 52.7346
9760.38 47.1415
9760.43 43.4522
9760.55 39.0702
9760.66 36.6073
9760.77 35.0893
9761.00 33.3198
9761.45 31.6174
9761.91 30.6802
9762.81 29.4167
9763.72 28.4297
9764.63 27.5614
9765.53 26.7695
9767.35 25.3525
9770.97 22.9999
9774.60 21.1127
9781.86 18.2676
9789.11 16.2248
9803.62 13.4818
9818.12 11.7153
9832.63 10.4732
9847.14 9.54728
9854.39 9.16990
9858.02 9.00112
9861.64 8.84834
9865.27 8.72044
9868.90 8.65457
9870.71 8.69600
9871.62 8.77150
9872.52 8.93433
9873.43 9.30883
9873.88 9.68449
9874.34 10.3562
9874.79 11.7244
9875.02 13.0049
9875.24 15.1615
9875.47 19.2523
9875.58 22.7928
9875.70 28.3382
9875.81 37.7905
9875.92 55.2271
9875.98 70.0706
9876.04 91.8605
9876.09 125.994
9876.15 178.664
9876.23 280.444
9876.30 347.540
9876.38 279.245
9876.45 177.050
9876.51 121.650
9876.57 87.3322
9876.63 65.3045
9876.69 51.1465
9876.81 34.5814
9876.93 25.9342
9877.05 20.8406
9877.18 17.6324
9877.42 13.9974
9877.66 12.0851
9877.90 10.9666
9878.38 9.77057
9878.86 9.17448
9879.35 8.83309
9880.31 8.46784
9882.24 8.15902
9884.17 8.00827
9888.03 7.82039
9891.89 7.67687
9899.62 7.42997
9907.34 7.20829
9922.78 6.81028
9938.23 6.45519
9969.11 5.82703
9984.56 5.53799
10000.0 5.26260
10008.5 5.13987
10010.6 5.13019
10012.7 5.16474
10013.8 5.23753
10014.8 5.45132
10015.3 5.73900
10015.9 6.49232
10016.1 7.47014
10016.4 9.80331
10016.5 12.5192
10016.7 18.4860
10016.7 25.1865
10016.8 35.7401
10016.8 47.8328
10016.9 61.7734
10016.9 82.5857
10016.9 120.306
10017.0 192.077
10017.0 231.590
10017.0 188.906
10017.1 116.191
10017.1 87.6657
10017.1 64.1364
10017.2 48.5981
10017.2 38.1066
10017.3 25.5796
10017.3 18.8248
10017.4 14.8298
10017.4 12.2927
10017.6 9.39587
10017.8 6.99494
10018.0 6.08833
10018.5 5.37619
10019.0 5.11783
10019.9 4.92848
10020.9 4.85643
10024.6 4.74424
10032.2 4.59349
10047.2 4.29716
10054.8 4.19230
10058.5 4.19290
10062.3 4.29521
10064.2 4.42840
10066.1 4.66899
10068.0 5.11299
10069.9 5.96727
10071.7 7.81509
10072.7 9.58620
10073.6 12.6297
10074.6 18.4478
10075.0 23.5402
10075.5 31.5598
10076.0 45.1448
10076.4 70.4945
10076.7 92.4785
10076.9 124.041
10077.2 174.895
10077.4 250.228
10077.7 397.487
10078.0 494.900
10078.3 396.707
10078.6 249.223
10078.9 161.322
10079.2 110.592
10079.5 78.5633
10079.7 58.9405
10080.3 36.3066
10080.8 24.6920
10081.4 17.9975
10081.9 13.7933
10083.0 9.01196
10084.1 6.40452
10085.2 4.78863
10087.4 2.84320
10089.6 1.65487
10090.7 1.30047
10091.3 1.22797
10091.8 1.27341
10092.3 1.51245
10092.9 2.08210
10093.4 3.24328
10094.0 5.46874
10094.3 7.36563
10094.5 9.97517
10094.8 13.9001
10095.1 19.4929
10095.4 28.2725
10095.6 41.3878
10095.9 61.9561
10096.2 94.2623
10096.6 175.496
10097.0 249.921
10097.2 250.986
10097.4 226.757
10097.8 160.665
10098.2 114.325
10098.6 84.6470
10099.0 65.6159
10099.3 53.2038
10100.1 37.9879
10100.8 29.4754
10101.6 24.1788
10102.3 20.6190
10103.8 16.2002
10105.4 13.5853
10106.9 11.8886
10109.9 9.81149
10112.9 8.58754
10114.4 8.15337
10115.9 7.80692
10117.4 7.55836
10118.1 7.49771
10118.9 7.52836
10119.6 7.78223
10120.0 8.12141
10120.4 8.78345
10120.8 10.2897
10120.9 11.7807
10121.1 14.2214
10121.3 19.1804
10121.4 23.8818
10121.5 30.6211
10121.6 43.5394
10121.7 65.4730
10121.7 86.1383
10121.8 110.383
10121.8 156.137
10121.9 210.967
10121.9 348.716
10122.0 427.043
10122.1 337.446
10122.1 222.735
10122.2 156.384
10122.2 120.665
10122.3 77.4947
10122.4 54.4047
10122.5 40.9312
10122.6 31.6360
10122.6 26.2525
10122.8 19.7109
10123.0 15.8608
10123.1 13.6455
10123.4 11.1274
10123.8 9.75480
10124.1 8.93495
10124.8 8.02933
10125.4 7.52926
10126.1 7.21614
10127.4 6.82262
10128.7 6.57135
10130.0 6.38547
10132.6 6.11015
10135.2 5.90007
10137.8 5.72781
10143.1 5.44897
10153.5 5.03570
10164.0 4.72289
10174.5 4.46268
10184.9 4.23431
10195.4 4.04136
10198.0 4.01835
10200.6 4.06260
10201.9 4.18281
10202.6 4.32281
10203.2 4.59051
10203.9 5.19035
10204.2 5.79056
10204.6 6.82458
10204.9 8.97491
10205.0 10.9031
10205.2 14.0819
10205.4 20.3347
10205.5 25.3322
10205.5 32.8341
10205.6 44.7209
10205.7 64.8337
10205.8 101.458
10205.8 130.871
10205.9 178.834
10205.9 289.365
10206.0 359.585
10206.1 293.497
10206.1 184.085
10206.2 119.845
10206.3 84.6284
10206.3 59.7038
10206.4 46.2269
10206.5 29.5594
10206.7 21.0529
10206.8 16.1705
10206.9 13.1194
10207.2 9.75955
10207.4 7.90937
10207.7 6.82129
10208.2 5.66656
10208.7 5.07036
10209.2 4.72982
10210.3 4.35626
10211.3 4.16120
10212.3 4.04102
10214.4 3.89631
10218.5 3.73617
10222.6 3.62886
10230.8 3.45599
10239.1 3.30065
10255.5 3.00101
10272.0 2.69889
10304.9 2.05300
10337.8 1.32382
10370.7 0.533642
10387.1 0.192006
10391.3 0.129099
10395.4 0.0823200
10399.5 0.0569557
10403.6 0.0602423
10407.7 0.102017
10411.8 0.195179
10415.9 0.358122
10420.1 0.614758
10424.2 1.00105
10428.3 1.56432
10432.4 2.37636
10436.5 3.54188
10440.6 5.22347
10444.7 7.65675
10448.8 11.2301
10453.0 16.5687
10457.1 24.7366
10461.2 37.4550
10465.3 57.6746
10469.4 89.8673
10475.7 170.954
10482.0 250.430
10485.2 253.988
10488.3 232.025
10494.6 166.286
10498.4 133.260
10502.3 108.332
10504.2 98.3533
10506.1 89.8534
10507.0 86.1102
10507.5 84.4032
10508.0 82.8933
10508.5 81.6603
10508.7 81.2909
10509.0 81.2904
10509.2 82.1323
10509.3 83.2632
10509.4 85.4341
10509.6 89.8183
10509.6 93.7051
10509.7 99.7893
10509.7 109.883
10509.8 127.924
10509.9 163.088
10509.9 224.006
10510.0 310.521
10510.0 373.697
10510.1 311.678
10510.1 225.205
10510.1 172.640
10510.2 142.817
10510.2 124.035
10510.3 111.737
10510.3 101.667
10510.4 96.1736
10510.4 89.0232
10510.5 84.2773
10510.6 81.5639
10510.8 78.0603
10510.9 76.0039
10511.1 74.5997
10511.4 72.7079
10512.1 70.1013
10512.8 68.0479
10513.5 66.2199
10514.1 64.5265
10515.5 61.4212
10518.1 56.0337
10520.8 51.4879
10526.2 44.2418
10531.6 38.7841
10542.3 31.1843
10553.0 26.2224
10563.7 22.7674
10574.5 20.2435
10579.8 19.2218
10585.2 18.3279
10587.9 17.9247
10590.6 17.5584
10593.2 17.3112
10593.9 17.3476
10594.6 17.6099
10594.9 18.0445
10595.2 19.2185
10595.4 20.7539
10595.6 24.4818
10595.7 29.0237
10595.8 37.3374
10595.8 44.8735
10595.8 57.0203
10595.9 77.7597
10595.9 93.5376
10595.9 126.108
10596.0 192.872
10596.0 236.342
10596.0 194.157
10596.1 127.722
10596.1 95.0732
10596.1 79.1974
10596.2 54.5632
10596.2 41.6558
10596.3 34.2673
10596.4 26.6999
10596.5 23.1398
10596.7 20.0140
10596.9 18.7577
10597.3 17.6585
10597.7 17.2168
10598.5 16.8132
10599.2 16.6040
10602.4 16.1237
10605.6 15.7609
10608.7 15.4344
10615.0 14.8443
10621.3 14.3192
10634.0 13.4197
10646.6 12.6760
10671.8 11.5165
10697.1 10.6543
10747.6 9.45444
10798.0 8.65553
10899.0 7.64769
11000.0 7.02842
11000.0 5.95684
12500.0 5.82055
15000.0 5.64248
17000.0 5.53056
20000.0 5.39680
25000.0 5.23261
30000.0 5.11350
35000.0 5.02220
40000.0 4.94939
50000.0 4.83912
60000.0 4.75815
70000.0 4.69492
80000.0 4.64333
90000.0 4.59978
99999.9 4.56204
100000 4.58660
150000 4.67448
200000 4.81900
250000 4.98652
300000 5.16200
500000 5.82877
609255 6.14254
700000 6.37432
800000 6.60106
900000 6.79920
1.00000E+06 6.96870
1.08835E+06 7.08692
1.17670E+06 7.19661
1.25000E+06 7.26399
1.28615E+06 7.28603
1.41115E+06 7.35819
1.41115E+06 7.35819
1.50000E+06 7.38069
1.52016E+06 7.37999
1.52017E+06 7.37999
1.65568E+06 7.37553
1.75000E+06 7.34754
1.77376E+06 7.33774
1.77376E+06 7.33774
1.87925E+06 7.26804
1.98474E+06 7.20633
2.00000E+06 7.19390
2.04449E+06 7.15563
2.10403E+06 7.09992
2.10403E+06 7.09991
2.17597E+06 7.02638
2.27158E+06 6.91971
2.27158E+06 6.91970
2.35440E+06 6.82077
2.35440E+06 6.82077
2.39702E+06 6.76807
2.39702E+06 6.76807
2.50735E+06 6.62790
2.55913E+06 6.56096
2.55913E+06 6.56095
2.66935E+06 6.40212
2.77957E+06 6.25782
2.88978E+06 6.12630
3.00000E+06 6.00608
3.06250E+06 5.92662
3.12500E+06 5.85090
3.18750E+06 5.77867
3.25000E+06 5.70973
3.31250E+06 5.64387
3.37500E+06 5.58090
3.43750E+06 5.52066
3.50000E+06 5.46299
3.56250E+06 5.40774
3.62500E+06 5.35478
3.68750E+06 5.30398
3.75000E+06 5.25523
3.81250E+06 5.20841
3.87500E+06 5.16342
3.93750E+06 5.12018
4.00000E+06 5.07858
4.06250E+06 5.03536
4.12500E+06 4.99346
4.18750E+06 4.95283
4.25000E+06 4.91341
4.31250E+06 4.87515
4.37500E+06 4.83799
4.43750E+06 4.80190
4.50000E+06 4.76682
4.56250E+06 4.73272
4.62500E+06 4.69955
4.68750E+06 4.66728
4.75000E+06 4.63588
4.81250E+06 4.60529
4.87500E+06 4.57551
4.93750E+06 4.54649
5.00000E+06 4.51820
5.05667E+06 4.50515
5.11334E+06 4.49234
5.17001E+06 4.47976
5.22667E+06 4.46741
5.28334E+06 4.45527
5.34001E+06 4.44335
5.39668E+06 4.43163
5.45335E+06 4.42012
5.51001E+06 4.40880
5.56668E+06 4.39767
5.62335E+06 4.38673
5.68002E+06 4.37596
5.73669E+06 4.36537
5.79335E+06 4.35495
5.85002E+06 4.34469
5.90669E+06 4.33460
5.95335E+06 4.32611
6.00000E+06 4.31772
6.07339E+06 4.32159
6.14677E+06 4.32547
6.22016E+06 4.32938
6.29355E+06 4.33329
6.36693E+06 4.33722
6.44032E+06 4.34116
6.51370E+06 4.34511
6.58709E+06 4.34908
6.69032E+06 4.35421
6.79355E+06 4.35935
6.89677E+06 4.36449
7.00000E+06 4.36963
7.10951E+06 4.37989
7.21902E+06 4.39020
7.32853E+06 4.40054
7.43804E+06 4.41091
7.54754E+06 4.42129
7.65705E+06 4.43167
7.76656E+06 4.44206
7.87607E+06 4.45244
7.93804E+06 4.45798
8.00000E+06 4.46352
8.05855E+06 4.46902
8.11711E+06 4.47453
8.17566E+06 4.48005
8.23421E+06 4.48556
8.29653E+06 4.49121
8.35885E+06 4.49687
8.42117E+06 4.50252
8.48349E+06 4.50818
8.54580E+06 4.51384
8.60812E+06 4.51950
8.67044E+06 4.52515
8.73276E+06 4.53081
8.79957E+06 4.53666
8.86638E+06 4.54251
8.93319E+06 4.54835
9.00000E+06 4.55419
9.06831E+06 4.56170
9.13662E+06 4.56923
9.20493E+06 4.57675
9.27324E+06 4.58428
9.34155E+06 4.59182
9.40986E+06 4.59935
9.47817E+06 4.60688
9.54648E+06 4.61442
9.60317E+06 4.62040
9.65986E+06 4.62640
9.71655E+06 4.63239
9.77324E+06 4.63839
9.82993E+06 4.64439
9.88662E+06 4.65040
9.94331E+06 4.65641
1.00000E+07 4.66242
1.00610E+07 4.66926
1.01220E+07 4.67630
1.01830E+07 4.68352
1.02441E+07 4.69094
1.03051E+07 4.69853
1.03661E+07 4.70631
1.04271E+07 4.71427
1.04881E+07 4.72240
1.05521E+07 4.73068
1.06161E+07 4.73914
1.06801E+07 4.74779
1.07441E+07 4.75661
1.08080E+07 4.76562
1.08720E+07 4.77480
1.09360E+07 4.78415
1.10000E+07 4.79367
1.10611E+07 4.80000
1.11223E+07 4.80649
1.11834E+07 4.81314
1.12446E+07 4.81995
1.13057E+07 4.82691
1.13668E+07 4.83403
1.14280E+07 4.84130
1.14891E+07 4.84872
1.15530E+07 4.85667
1.16168E+07 4.86478
1.16807E+07 4.87305
1.17446E+07 4.88148
1.18084E+07 4.89007
1.18723E+07 4.89880
1.19361E+07 4.90770
1.20000E+07 4.91674
1.20613E+07 4.92118
1.21225E+07 4.92571
1.21838E+07 4.93033
1.22450E+07 4.93503
1.23063E+07 4.93983
1.23675E+07 4.94471
1.24288E+07 4.94967
1.24900E+07 4.95473
1.25538E+07 4.96007
1.26175E+07 4.96550
1.26813E+07 4.97101
1.27450E+07 4.97662
1.28088E+07 4.98232
1.28725E+07 4.98811
1.29363E+07 4.99399
1.30000E+07 4.99995
1.30625E+07 5.00435
1.31250E+07 5.00882
1.31875E+07 5.01336
1.32500E+07 5.01796
1.33125E+07 5.02262
1.33750E+07 5.02735
1.34375E+07 5.03215
1.35000E+07 5.03700
1.35625E+07 5.04193
1.36250E+07 5.04691
1.36875E+07 5.05197
1.37500E+07 5.05709
1.38125E+07 5.06227
1.38750E+07 5.06753
1.39375E+07 5.07286
1.40000E+07 5.07827
1.41250E+07 5.08145
1.42500E+07 5.08475
1.43750E+07 5.08817
1.45000E+07 5.09172
1.47323E+07 5.09760
1.49645E+07 5.10382
1.50000E+07 5.10475
1.52430E+07 5.10466
1.54860E+07 5.10489
1.57290E+07 5.10547
1.59720E+07 5.10643
1.60000E+07 5.10647
1.63964E+07 5.09818
1.67928E+07 5.09095
1.70000E+07 5.08701
1.75000E+07 5.07701
1.80000E+07 5.06874
1.85000E+07 5.04869
1.90000E+07 5.03111
2.00000E+07 4.99567