Ba-137(n,tot) ENDF/B-VII.1
Energy(eV) XS(b)
1.00000E-05 187.191
1.25000E-05 168.085
1.50000E-05 153.981
2.00000E-05 134.184
2.75000E-05 115.348
3.50000E-05 102.951
4.25000E-05 94.0012
5.00000E-05 87.1499
6.25000E-05 78.6054
7.50000E-05 72.2980
0.000100000 63.4446
0.000125000 57.4026
0.000150000 52.9427
0.000200000 46.6823
0.000275000 40.7256
0.000350000 36.8053
0.000425000 33.9752
0.000500000 31.8086
0.000625000 29.1065
0.000750000 27.1119
0.00100000 24.3122
0.00125000 22.4015
0.00150000 20.9911
0.00200000 19.0113
0.00275000 17.1275
0.00350000 15.8876
0.00425000 14.9926
0.00500000 14.3073
0.00625000 13.4527
0.00750000 12.8218
0.0100000 11.9361
0.0125000 11.3316
0.0150000 10.8853
0.0200000 10.2588
0.0253000 9.80950
0.0314750 9.43673
0.0376500 9.15981
0.0500000 8.76870
0.0625000 8.49748
0.0750000 8.29704
0.100000 8.01518
0.125000 7.82229
0.150000 7.67949
0.200000 7.47809
0.275000 7.28477
0.350000 7.15599
0.500000 6.98868
0.750000 6.82520
1.00000 6.72216
1.50000 6.58906
2.00000 6.49927
2.75000 6.40020
3.50000 6.32276
5.00000 6.19952
7.50000 6.03839
10.0000 5.90465
15.0000 5.68099
20.0000 5.49394
27.5000 5.25880
35.0000 5.06286
50.0000 4.75176
62.5000 4.54962
75.0000 4.38336
100.000 4.12380
113.440 4.01225
120.160 3.96222
123.520 3.93987
124.360 3.93574
125.200 3.93492
125.620 3.93900
125.830 3.94452
126.040 3.95574
126.250 3.98118
126.355 4.00695
126.460 4.05386
126.513 4.09305
126.565 4.15221
126.618 4.24741
126.670 4.41482
126.723 4.75035
126.749 5.06170
126.775 5.58172
126.802 6.55436
126.815 7.38462
126.828 8.66559
126.841 10.7978
126.854 14.6022
126.867 22.1644
126.874 28.8121
126.880 38.4376
126.890 59.1485
126.900 72.9554
126.910 59.1527
126.920 38.4427
126.929 25.9846
126.938 18.7336
126.946 14.3725
126.955 11.6227
126.973 8.53508
126.991 6.97636
127.009 6.08125
127.027 5.52813
127.062 4.90514
127.098 4.58276
127.134 4.39490
127.170 4.27599
127.205 4.19618
127.277 4.09844
127.348 4.04324
127.419 4.00897
127.491 3.98619
127.633 3.95850
127.776 3.94276
128.062 3.92590
128.347 3.91696
128.633 3.91118
129.203 3.90348
130.345 3.89306
131.487 3.88452
136.055 3.85399
145.190 3.79763
163.460 3.69533
200.000 3.51764
254.485 3.27659
281.727 3.14664
308.969 2.99183
336.211 2.78246
349.832 2.63782
363.454 2.44414
370.264 2.31878
377.075 2.16558
383.885 1.97481
390.696 1.73556
394.101 1.59694
397.506 1.45208
400.912 1.32351
404.317 1.28725
406.020 1.37269
407.722 1.62625
409.425 2.24020
410.276 2.81135
411.128 3.70066
411.979 5.11971
412.830 7.46997
413.682 11.5818
414.533 19.3754
414.959 26.0079
415.384 36.0572
415.810 52.1171
416.235 79.6444
416.661 131.716
416.874 176.486
417.087 245.369
417.300 357.787
417.512 554.766
417.725 929.568
417.832 1241.46
417.938 1683.43
418.119 2757.39
418.300 3528.27
418.482 2889.24
418.663 1848.10
418.822 1230.09
418.981 852.567
419.140 619.066
419.299 468.510
419.616 295.535
419.934 204.789
420.252 151.527
420.569 117.623
421.205 78.3617
421.840 57.1999
422.476 44.4016
423.111 36.0113
423.747 30.1786
425.018 22.7380
426.288 18.2881
427.559 15.3779
428.830 13.3492
431.372 10.7400
433.914 9.15532
436.456 8.10122
438.997 7.35373
444.081 6.36914
449.164 5.75197
454.248 5.32905
459.332 5.02042
469.499 4.59678
479.666 4.31429
489.833 4.10606
500.000 3.93941
518.979 3.67840
528.469 3.55077
537.959 3.40933
542.703 3.32789
547.448 3.23493
552.193 3.12599
556.938 2.99685
559.310 2.92526
561.683 2.85342
564.055 2.79470
566.427 2.79191
567.614 2.84933
568.800 2.99941
569.986 3.34459
571.172 4.14109
571.765 4.90235
572.358 6.14989
572.952 8.30913
573.545 12.3531
573.841 15.7611
574.138 20.8804
574.434 28.9763
574.731 42.6597
575.027 68.0360
575.176 89.4315
575.324 121.692
575.472 172.968
575.621 259.567
575.769 415.746
575.917 707.886
576.059 1160.52
576.200 1487.35
576.342 1221.28
576.483 784.049
576.586 558.456
576.690 408.444
576.793 308.737
576.897 240.759
577.103 158.255
577.310 112.649
577.517 84.9872
577.724 66.9768
578.137 45.6916
578.551 34.0115
578.965 26.8708
579.378 22.1593
579.792 18.8695
580.619 14.6584
581.446 12.1338
582.273 10.4815
583.101 9.32994
584.755 7.84984
586.409 6.95236
588.064 6.35630
589.718 5.93420
593.027 5.37900
596.336 5.03145
599.644 4.79354
602.953 4.62013
609.570 4.38304
616.188 4.22691
622.805 4.11488
629.423 4.02956
642.658 3.90587
655.893 3.81818
682.362 3.69682
708.832 3.61229
735.302 3.54701
788.242 3.44684
841.181 3.36759
894.121 3.29782
947.060 3.23082
973.530 3.19655
1000.00 3.16083
1011.24 3.14521
1022.48 3.12994
1028.10 3.12341
1033.72 3.12066
1036.53 3.12472
1037.94 3.13105
1039.34 3.14460
1040.75 3.17637
1041.45 3.20936
1042.15 3.27059
1042.51 3.32289
1042.86 3.40308
1043.21 3.53524
1043.56 3.77578
1043.73 3.97846
1043.91 4.28711
1044.09 4.79068
1044.26 5.68835
1044.35 6.43558
1044.44 7.55815
1044.53 9.35620
1044.61 12.4536
1044.70 18.6598
1044.74 24.3544
1044.79 33.8120
1044.83 51.1764
1044.85 65.8257
1044.88 88.0912
1044.90 124.012
1044.92 186.390
1044.94 304.134
1044.96 524.000
1044.98 846.732
1045.00 1047.31
1045.02 828.644
1045.04 524.041
1045.05 362.133
1045.06 263.809
1045.08 198.275
1045.09 153.499
1045.12 97.6546
1045.14 68.3502
1045.17 50.1285
1045.20 38.8777
1045.25 25.7369
1045.30 18.5731
1045.35 14.3312
1045.41 11.6173
1045.46 9.80699
1045.57 7.53353
1045.67 6.25426
1045.78 5.45699
1045.88 4.92689
1046.09 4.28578
1046.30 3.93093
1046.51 3.71232
1046.72 3.56935
1047.14 3.39814
1047.57 3.30399
1048.41 3.20864
1049.25 3.16323
1050.09 3.13778
1051.78 3.11082
1055.15 3.08757
1058.52 3.07541
1065.26 3.05855
1072.00 3.04414
1078.74 3.03045
1085.48 3.01842
1088.85 3.01514
1092.22 3.02029
1093.90 3.03469
1094.74 3.05116
1095.59 3.08299
1096.43 3.15349
1096.85 3.22452
1097.27 3.35432
1097.48 3.46382
1097.69 3.62968
1097.90 3.90121
1098.11 4.38539
1098.22 4.78999
1098.32 5.39132
1098.43 6.35066
1098.53 8.01936
1098.64 11.3572
1098.69 14.4187
1098.74 19.3754
1098.80 28.5768
1098.82 36.1343
1098.85 47.4740
1098.88 66.3442
1098.90 97.5119
1098.93 154.640
1098.95 264.230
1098.98 420.174
1099.00 523.784
1099.02 420.119
1099.05 264.172
1099.07 160.720
1099.09 105.850
1099.12 74.1184
1099.14 54.6652
1099.16 41.6098
1099.19 33.1649
1099.23 22.7898
1099.28 16.8386
1099.33 13.2638
1099.42 9.27335
1099.51 7.20256
1099.60 6.01599
1099.70 5.25977
1099.79 4.75836
1099.97 4.14268
1100.16 3.79941
1100.34 3.58756
1100.53 3.44764
1100.90 3.27965
1101.27 3.18676
1102.01 3.09205
1102.75 3.04650
1103.49 3.02065
1104.97 2.99262
1107.93 2.96681
1110.90 2.95174
1116.82 2.92812
1122.75 2.90537
1134.60 2.85401
1146.44 2.78731
1158.29 2.69089
1164.22 2.62175
1170.14 2.52671
1173.11 2.46361
1176.07 2.38453
1179.03 2.28206
1181.99 2.14414
1183.48 2.05609
1184.96 1.95153
1186.44 1.82855
1187.92 1.69294
1188.66 1.63057
1189.40 1.59066
1190.14 1.61469
1190.88 1.81693
1191.25 2.07795
1191.62 2.56660
1191.99 3.50411
1192.36 5.41248
1192.55 7.11631
1192.73 9.75443
1192.92 14.0690
1193.10 21.6251
1193.20 27.6672
1193.29 36.1943
1193.38 48.9654
1193.47 68.5651
1193.57 101.150
1193.66 158.055
1193.75 268.315
1193.80 359.557
1193.84 489.046
1193.92 809.185
1194.00 1046.82
1194.08 865.014
1194.16 560.702
1194.23 370.029
1194.30 256.778
1194.38 186.512
1194.45 142.130
1194.59 90.9877
1194.74 64.2068
1194.88 48.4620
1195.03 38.3977
1195.32 26.6910
1195.61 20.2844
1195.90 16.3664
1196.19 13.7704
1196.48 11.9520
1197.06 9.59084
1197.64 8.15542
1198.22 7.20105
1198.79 6.52589
1199.95 5.64080
1201.11 5.09177
1202.27 4.71939
1203.43 4.45128
1205.75 4.09083
1208.06 3.85964
1210.38 3.69801
1212.70 3.57792
1217.33 3.40926
1221.97 3.29374
1231.24 3.13717
1240.50 3.02539
1249.77 2.93124
1268.31 2.74972
1277.58 2.64718
1286.85 2.52617
1296.12 2.37500
1305.39 2.17511
1310.02 2.04788
1314.65 1.89588
1319.29 1.71418
1323.92 1.50529
1326.24 1.40046
1328.56 1.31588
1330.88 1.29903
1333.19 1.48408
1334.35 1.76211
1335.51 2.30934
1336.67 3.39182
1337.25 4.30171
1337.83 5.63396
1338.41 7.64214
1338.99 10.7689
1339.56 15.8835
1340.14 24.8127
1340.72 41.9319
1341.01 56.7036
1341.30 79.2885
1341.59 115.951
1341.88 178.938
1342.17 295.848
1342.46 520.994
1342.73 872.893
1343.00 1140.65
1343.27 948.682
1343.54 615.488
1343.73 447.977
1343.92 334.516
1344.11 257.390
1344.29 203.800
1344.67 137.342
1345.05 99.7216
1345.42 76.4323
1345.80 61.0875
1346.55 42.6289
1347.30 32.2761
1348.06 25.8465
1348.81 21.5393
1349.56 18.4911
1351.06 14.5205
1352.57 12.0923
1354.07 10.4737
1355.58 9.32890
1358.59 7.82944
1361.60 6.90030
1364.60 6.27242
1367.61 5.82144
1373.63 5.21885
1379.65 4.83563
1385.67 4.57048
1391.69 4.37589
1403.72 4.10844
1415.76 3.93199
1427.80 3.80556
1439.83 3.70949
1463.90 3.57035
1487.98 3.47085
1536.12 3.32584
1584.27 3.20499
1608.34 3.14118
1632.41 3.06606
1656.49 2.96485
1668.52 2.89422
1680.56 2.79741
1686.58 2.73273
1692.59 2.65075
1698.61 2.54253
1704.63 2.39202
1707.64 2.29217
1710.65 2.16818
1713.66 2.01121
1716.67 1.81028
1718.17 1.69111
1719.68 1.56281
1721.18 1.43969
1722.68 1.37340
1723.44 1.40886
1724.19 1.55773
1724.94 1.94961
1725.32 2.32220
1725.69 2.90472
1726.07 3.83402
1726.45 5.35265
1726.82 7.95275
1727.20 12.7035
1727.39 16.5908
1727.57 22.2552
1727.76 30.8352
1727.95 44.4804
1728.14 67.5695
1728.33 109.838
1728.42 144.534
1728.51 194.824
1728.61 269.042
1728.70 378.389
1728.85 634.550
1729.00 831.199
1729.15 696.821
1729.30 456.280
1729.43 307.573
1729.56 216.726
1729.70 160.089
1729.83 123.272
1730.09 80.4227
1730.36 57.7137
1730.62 44.1482
1730.89 35.4252
1731.41 25.1280
1731.94 19.4282
1732.47 15.9031
1733.00 13.5450
1733.53 11.8770
1734.59 9.69241
1735.64 8.34693
1736.70 7.44271
1737.76 6.79833
1739.87 5.94544
1741.99 5.41015
1744.10 5.04447
1746.22 4.77948
1750.45 4.42135
1754.68 4.19070
1758.91 4.02953
1763.14 3.91031
1771.60 3.74485
1780.06 3.63448
1788.52 3.55470
1796.97 3.49365
1813.89 3.40461
1830.81 3.34079
1864.65 3.25003
1898.49 3.18287
1932.33 3.12644
2000.00 3.02519
2087.92 2.88842
2131.87 2.80732
2175.83 2.70886
2219.79 2.57986
2241.77 2.49590
2263.75 2.39026
2285.73 2.24889
2296.72 2.15604
2307.71 2.03869
2318.70 1.88072
2324.19 1.77636
2329.68 1.64410
2335.18 1.46746
2337.93 1.35438
2340.67 1.22052
2343.42 1.07423
2344.80 1.01598
2346.17 1.01441
2346.86 1.07071
2347.54 1.21394
2348.23 1.53417
2348.92 2.24496
2349.26 2.90319
2349.60 3.94379
2349.95 5.67271
2350.29 8.70776
2350.63 14.5516
2350.81 19.5871
2350.98 27.2318
2351.15 39.5671
2351.32 60.4111
2351.49 98.3305
2351.66 168.890
2351.83 283.876
2352.00 372.906
2352.17 313.217
2352.34 205.872
2352.44 156.344
2352.55 120.830
2352.76 77.3742
2352.97 53.8911
2353.18 40.1104
2353.39 31.3119
2353.60 25.3823
2354.02 18.1219
2354.44 13.9617
2354.86 11.3434
2355.69 8.30218
2356.53 6.63187
2357.37 5.59631
2358.21 4.89622
2359.05 4.39433
2360.73 3.72186
2362.40 3.29035
2365.76 2.75618
2369.11 2.42113
2372.47 2.17547
2379.18 1.80650
2382.53 1.66206
2385.88 1.55490
2389.24 1.52632
2392.59 1.69732
2394.27 1.95566
2395.95 2.45688
2397.63 3.42814
2399.30 5.39303
2400.14 7.11402
2400.98 9.74463
2401.82 13.9535
2402.66 21.0692
2403.50 34.1092
2403.91 44.8599
2404.33 60.6704
2404.75 84.9198
2405.17 123.582
2405.59 187.969
2406.01 296.943
2406.51 500.388
2407.00 658.159
2407.50 552.347
2407.99 361.826
2408.43 245.182
2408.86 173.153
2409.30 128.194
2409.74 98.9888
2410.61 64.9769
2411.48 46.8209
2412.36 35.9883
2413.23 28.9793
2414.98 20.6881
2416.72 16.0895
2418.47 13.2363
2420.21 11.3202
2421.96 9.95757
2425.45 8.16622
2428.95 7.05304
2432.44 6.29867
2435.93 5.75536
2442.92 5.02482
2449.90 4.55412
2456.89 4.22237
2463.87 3.97293
2477.84 3.61352
2491.81 3.35458
2519.75 2.96260
2547.69 2.61200
2561.66 2.42175
2575.63 2.20409
2589.60 1.93898
2596.58 1.77915
2603.57 1.59444
2610.55 1.38350
2614.05 1.27561
2617.54 1.18888
2619.28 1.17240
2621.03 1.20103
2622.78 1.32708
2624.52 1.68144
2625.40 2.04287
2626.27 2.65073
2627.14 3.71832
2628.01 5.72741
2628.45 7.41821
2628.89 9.93830
2629.32 13.8915
2629.76 20.4513
2630.20 32.3230
2630.42 42.0343
2630.63 56.2757
2630.85 78.1646
2631.07 113.085
2631.29 171.573
2631.51 271.293
2631.75 447.731
2632.00 577.515
2632.25 476.513
2632.50 307.616
2632.70 211.331
2632.90 150.561
2633.10 111.734
2633.30 86.0475
2633.71 55.7785
2634.11 39.4819
2634.52 29.7251
2634.92 23.4437
2635.73 16.0557
2636.54 11.9969
2637.35 9.50602
2638.96 6.67713
2640.58 5.14718
2642.20 4.19776
2645.43 3.07559
2648.66 2.41402
2651.90 1.95962
2658.36 1.36808
2661.60 1.20815
2664.83 1.19248
2668.06 1.45753
2669.68 1.78883
2671.30 2.35326
2672.91 3.29655
2674.53 4.88151
2676.15 7.61599
2677.76 12.5590
2678.57 16.5322
2679.38 22.1875
2680.19 30.4833
2681.00 43.0900
2681.81 63.1074
2682.61 96.4023
2683.42 154.651
2684.23 259.045
2685.12 447.161
2686.00 601.514
2686.89 516.040
2687.77 345.144
2688.65 227.700
2689.53 158.350
2690.40 116.550
2691.28 89.9811
2692.16 72.1574
2693.03 59.6664
2694.79 43.6964
2696.54 34.1861
2698.30 28.0208
2701.81 20.6685
2705.32 16.5351
2708.82 13.9307
2712.33 12.1567
2715.84 10.8782
2722.86 9.16893
2729.88 8.08455
2736.90 7.33778
2743.91 6.79284
2757.95 6.05090
2771.99 5.56857
2786.02 5.22887
2800.06 4.97585
2828.13 4.62194
2856.20 4.38382
2884.27 4.21058
2912.34 4.07726
2968.49 3.88072
3024.63 3.73422
3052.70 3.66829
3080.77 3.59786
3094.81 3.55421
3101.83 3.52673
3108.85 3.49153
3115.86 3.44091
3119.37 3.40419
3122.88 3.35260
3124.64 3.31745
3126.39 3.27222
3128.15 3.21133
3129.90 3.12437
3130.78 3.06496
3131.66 2.98908
3132.53 2.88873
3133.41 2.75040
3134.29 2.55057
3134.73 2.41691
3135.16 2.25858
3135.60 2.09884
3135.82 2.05867
3136.04 2.13077
3136.26 2.56522
3136.37 3.15569
3136.48 4.35753
3136.53 5.41915
3136.59 7.03664
3136.64 9.59246
3136.70 13.7302
3136.75 21.1313
3136.78 27.1292
3136.81 35.3096
3136.84 47.6452
3136.86 65.3972
3136.89 92.2743
3136.92 133.940
3136.96 230.022
3137.00 307.331
3137.04 264.313
3137.08 176.963
3137.13 109.235
3137.18 72.6014
3137.23 52.1874
3137.28 39.8933
3137.33 31.9555
3137.38 26.5311
3137.47 19.8231
3137.57 15.8728
3137.67 13.3694
3137.86 10.3983
3138.06 8.73534
3138.25 7.69856
3138.45 6.99406
3138.64 6.48723
3139.04 5.80977
3139.43 5.38260
3139.82 5.08937
3140.21 4.87618
3140.99 4.58734
3141.77 4.40156
3142.55 4.27185
3143.33 4.17635
3144.89 4.04466
3146.45 3.95807
3148.01 3.89652
3149.57 3.85032
3152.70 3.78506
3155.82 3.74061
3158.94 3.70786
3162.06 3.68237
3168.31 3.64433
3174.55 3.61629
3187.04 3.57512
3212.02 3.51740
3237.00 3.47104
3261.98 3.42651
3274.47 3.40253
3286.96 3.37519
3299.45 3.34046
3305.69 3.31740
3311.94 3.28676
3315.06 3.26658
3318.18 3.24110
3321.31 3.20724
3324.43 3.15909
3327.55 3.08340
3329.11 3.02591
3330.67 2.94383
3332.23 2.81683
3333.02 2.72329
3333.80 2.59597
3334.58 2.41609
3334.97 2.30030
3335.36 2.17071
3335.75 2.06423
3335.94 2.07028
3336.14 2.21571
3336.33 2.77291
3336.43 3.46003
3336.53 4.78999
3336.63 7.63038
3336.67 10.2549
3336.72 14.3818
3336.77 21.5401
3336.80 27.1886
3336.82 34.6689
3336.85 45.6634
3336.87 60.8544
3336.89 82.8834
3336.92 115.537
3336.96 198.312
3337.00 264.989
3337.04 228.036
3337.08 152.830
3337.11 117.771
3337.13 91.9351
3337.19 60.2076
3337.24 42.9818
3337.29 32.9349
3337.34 26.3681
3337.39 21.9187
3337.50 16.4570
3337.60 13.2650
3337.70 11.2489
3337.91 8.87205
3338.12 7.54122
3338.32 6.71033
3338.53 6.14275
3338.74 5.73620
3339.15 5.19081
3339.56 4.84642
3339.98 4.60974
3340.39 4.43747
3341.22 4.20380
3342.04 4.05326
3342.87 3.94815
3343.69 3.87059
3345.35 3.76358
3347.00 3.69313
3348.65 3.64299
3350.30 3.60535
3353.61 3.55213
3356.91 3.51586
3360.22 3.48914
3363.52 3.46834
3370.14 3.43738
3376.75 3.41504
3383.36 3.40053
3386.66 3.40821
3388.31 3.46632
3388.73 3.52816
3389.14 3.70116
3389.35 3.93540
3389.55 4.56122
3389.66 5.37855
3389.76 7.42281
3389.81 9.88993
3389.84 12.0536
3389.86 15.3102
3389.89 21.0234
3389.92 31.7640
3389.93 40.9141
3389.94 54.7230
3389.95 76.1923
3389.97 106.828
3389.98 168.720
3390.00 210.320
3390.02 168.747
3390.03 106.863
3390.05 76.2260
3390.06 56.0852
3390.07 42.7045
3390.08 33.5958
3390.11 22.2654
3390.13 16.3753
3390.16 12.7176
3390.18 10.4739
3390.23 7.82174
3390.33 5.58290
3390.42 4.69596
3390.62 3.99906
3390.81 3.73767
3391.21 3.54172
3391.60 3.47043
3393.16 3.39719
3396.28 3.37287
3402.53 3.35650
3415.02 3.33422
3440.01 3.29710
3464.99 3.26354
3477.49 3.24749
3483.73 3.24036
3486.85 3.24021
3488.42 3.25360
3489.20 3.31238
3489.59 3.53526
3489.69 3.75264
3489.78 4.31393
3489.83 5.02016
3489.88 6.71826
3489.91 8.68143
3489.93 12.5832
3489.94 16.2253
3489.95 22.2704
3489.97 32.9734
3489.98 52.8192
3489.99 83.7565
3490.00 102.296
3490.01 83.7652
3490.02 52.8303
3490.03 35.4893
3490.04 25.1664
3490.05 18.3668
3490.06 14.5029
3490.09 9.95301
3490.11 7.66104
3490.15 5.55438
3490.19 4.65400
3490.27 3.92042
3490.36 3.63591
3490.53 3.41865
3490.69 3.33845
3491.37 3.25733
3492.71 3.23465
3495.39 3.22581
3500.77 3.21748
3511.51 3.20312
3533.00 3.17454
3554.49 3.14504
3565.23 3.12989
3570.60 3.12264
3573.29 3.12086
3574.63 3.12741
3575.30 3.15899
3575.64 3.27734
3575.81 3.67122
3575.89 4.76510
3575.93 7.01955
3575.95 10.1338
3575.97 17.0152
3575.99 25.3268
3576.00 30.9232
3576.01 25.3317
3576.03 17.0213
3576.05 10.3625
3576.07 7.33202
3576.10 4.98233
3576.18 3.76005
3576.33 3.30670
3576.64 3.16605
3577.25 3.12606
3578.48 3.11389
3580.93 3.10755
3585.82 3.09944
3595.62 3.08407
3615.21 3.05206
3654.40 2.97984
3693.59 2.89164
3732.77 2.77817
3752.37 2.70743
3771.96 2.62400
3791.55 2.52537
3811.15 2.41247
3820.94 2.35524
3830.74 2.30702
3840.54 2.28975
3850.33 2.36433
3855.23 2.48484
3860.13 2.72412
3865.03 3.19358
3869.93 4.14644
3874.83 6.24060
3877.28 8.23433
3879.72 11.5442
3882.17 17.4170
3884.62 28.7981
3885.85 38.6184
3887.07 53.4611
3888.30 76.5110
3889.52 112.373
3891.26 190.435
3893.00 252.950
3894.74 215.786
3896.48 144.151
3897.96 100.687
3899.44 73.0740
3900.93 55.4419
3902.41 43.7636
3905.37 29.9347
3908.34 22.4119
3911.30 17.8606
3914.26 14.8831
3920.19 11.3176
3926.12 9.31249
3932.05 8.05380
3937.98 7.20085
3943.90 6.58969
3955.76 5.77904
3967.61 5.27005
3979.47 4.92247
3991.32 4.67050
4015.04 4.32935
4038.75 4.10780
4062.46 3.95057
4086.17 3.83140
4133.59 3.65622
4181.01 3.51978
4204.72 3.45179
4216.58 3.41342
4228.43 3.36782
4240.29 3.30683
4246.22 3.26465
4252.14 3.20705
4255.11 3.16853
4258.07 3.11947
4261.04 3.05406
4264.00 2.96139
4265.48 2.89841
4266.96 2.81811
4268.44 2.71212
4269.93 2.56615
4271.41 2.35516
4272.15 2.21381
4272.89 2.04500
4273.63 1.87139
4274.00 1.82215
4274.37 1.88383
4274.74 2.30436
4274.93 2.88175
4275.11 4.07194
4275.21 5.12061
4275.30 6.69466
4275.39 9.19449
4275.48 13.2572
4275.58 20.4192
4275.67 33.7444
4275.72 45.1430
4275.76 61.5472
4275.81 86.0086
4275.85 122.442
4275.93 211.104
4276.00 283.003
4276.07 243.814
4276.15 163.986
4276.21 116.395
4276.27 85.9654
4276.33 65.8083
4276.39 52.4700
4276.51 36.2485
4276.63 27.3270
4276.75 21.8068
4276.87 18.1878
4277.11 13.7823
4277.35 11.2760
4277.60 9.68891
4277.84 8.60637
4278.08 7.82670
4278.56 6.78750
4279.04 6.13228
4279.52 5.68435
4280.01 5.36003
4280.97 4.92350
4281.93 4.64421
4282.90 4.45056
4283.86 4.30850
4285.79 4.11391
4287.72 3.98682
4289.65 3.89701
4291.57 3.82995
4295.43 3.73591
4299.29 3.67245
4303.14 3.62614
4307.00 3.59043
4314.71 3.53787
4322.43 3.49990
4337.85 3.44576
4353.28 3.40623
4368.70 3.37414
4399.55 3.32144
4430.40 3.27691
4461.25 3.23741
4476.68 3.21963
4492.11 3.20414
4507.53 3.19465
4515.24 3.20053
4519.10 3.22669
4521.03 3.30300
4521.51 3.36879
4521.99 3.53296
4522.23 3.73696
4522.47 4.24885
4522.60 4.87997
4522.72 6.38496
4522.78 8.14240
4522.84 11.8809
4522.87 15.6005
4522.90 22.2667
4522.93 35.5606
4522.94 47.2131
4522.96 65.1556
4522.98 100.685
4523.00 124.079
4523.02 98.2177
4523.04 62.0934
4523.07 39.1572
4523.09 26.5720
4523.11 18.9899
4523.13 14.5923
4523.17 9.71601
4523.22 7.33521
4523.30 5.21591
4523.39 4.34456
4523.56 3.66685
4523.73 3.42191
4524.42 3.19582
4525.79 3.15728
4528.53 3.15906
4534.02 3.16768
4539.51 3.17715
4545.00 3.19262
4550.49 3.22124
4555.98 3.27923
4558.73 3.33216
4561.47 3.42105
4562.85 3.49339
4564.22 3.61038
4564.90 3.70923
4565.59 3.88817
4565.93 4.06272
4566.28 4.42787
4566.45 4.82694
4566.62 5.71592
4566.70 6.71473
4566.79 8.91891
4566.83 11.2527
4566.88 15.8840
4566.90 20.2645
4566.92 27.1663
4566.94 39.2449
4566.96 62.3197
4566.98 93.4332
4567.00 110.315
4567.02 84.8167
4567.04 51.5240
4567.05 37.6971
4567.06 28.7885
4567.08 18.1540
4567.11 12.6177
4567.13 9.49702
4567.17 6.36365
4567.22 5.02494
4567.31 3.96833
4567.39 3.62062
4567.57 3.43696
4567.75 3.42749
4568.46 3.57637
4569.88 3.89730
4571.29 4.31235
4572.71 4.99287
4574.13 6.31527
4574.84 7.51653
4575.55 9.49849
4576.26 13.1072
4576.61 16.1325
4576.97 20.6823
4577.32 27.9681
4577.68 40.4052
4578.03 63.4946
4578.38 108.279
4578.69 171.506
4579.00 213.678
4579.31 171.314
4579.62 108.167
4579.85 75.1130
4580.09 53.9508
4580.33 40.3337
4580.57 31.2961
4581.04 20.6590
4581.51 14.9904
4581.99 11.6404
4582.46 9.51269
4583.41 7.07649
4584.36 5.78950
4585.30 5.03087
4586.25 4.54596
4587.20 4.21801
4589.09 3.81483
4590.99 3.58561
4592.88 3.44258
4594.78 3.34706
4598.57 3.23033
4602.36 3.16330
4609.94 3.09003
4617.52 3.04946
4625.09 3.02176
4640.25 2.98134
4655.41 2.94845
4670.57 2.91920
4678.15 2.90726
4685.73 2.90286
4689.52 2.91117
4693.31 2.94962
4695.21 3.00991
4696.15 3.07180
4697.10 3.18558
4698.05 3.42806
4698.52 3.66664
4699.00 4.09266
4699.23 4.44513
4699.47 4.97270
4699.71 5.81331
4699.94 7.26444
4700.18 10.1254
4700.30 12.7339
4700.42 16.9758
4700.54 24.6877
4700.59 31.0204
4700.65 40.4474
4700.71 55.2315
4700.77 79.9035
4700.83 123.918
4700.89 205.601
4700.95 328.252
4701.00 408.223
4701.06 328.167
4701.11 205.500
4701.18 118.025
4701.24 73.1765
4701.31 49.3474
4701.37 35.5885
4701.44 27.0420
4701.51 21.4095
4701.64 14.7574
4701.77 11.0926
4701.90 8.88455
4702.16 6.48277
4702.43 5.26714
4702.69 4.57329
4702.95 4.13890
4703.22 3.84906
4703.74 3.49787
4704.27 3.30155
4705.32 3.10083
4706.38 3.00460
4707.43 2.95062
4709.54 2.89386
4713.75 2.84637
4717.97 2.82290
4726.39 2.79223
4734.82 2.76678
4751.68 2.71697
4768.53 2.66377
4785.39 2.60511
4802.24 2.53966
4819.10 2.46684
4827.53 2.43131
4831.74 2.43106
4833.85 2.50506
4834.38 2.58939
4834.90 2.82864
4835.17 3.15508
4835.43 4.03122
4835.56 5.16749
4835.63 6.23077
4835.69 7.99786
4835.76 11.3774
4835.79 14.3167
4835.82 18.9258
4835.86 26.6965
4835.89 41.1031
4835.91 53.6459
4835.92 71.2069
4835.94 97.6968
4835.96 137.673
4835.98 220.911
4836.00 273.309
4836.02 217.324
4836.05 138.006
4836.06 96.0141
4836.08 70.1787
4836.10 52.1573
4836.11 40.7380
4836.14 26.5790
4836.18 19.0852
4836.21 14.4527
4836.24 11.4956
4836.31 8.12709
4836.37 6.30678
4836.44 5.24391
4836.57 4.09565
4836.83 3.19021
4837.09 2.85063
4837.61 2.59372
4838.14 2.49831
4839.18 2.42449
4840.23 2.39428
4844.41 2.34681
4852.78 2.29299
4869.51 2.19285
4886.24 2.10298
4894.60 2.07672
4898.79 2.07926
4900.88 2.10756
4901.92 2.21545
4902.19 2.32379
4902.45 2.61949
4902.58 3.01265
4902.71 4.03008
4902.77 5.31871
4902.84 8.35305
4902.87 11.7926
4902.90 18.5896
4902.92 25.3502
4902.94 35.9571
4902.95 54.5255
4902.97 90.4417
4902.98 142.096
4903.00 179.055
4903.02 142.362
4903.03 90.7697
4903.05 59.7220
4903.06 41.9617
4903.07 30.1986
4903.09 23.2155
4903.11 14.9200
4903.14 10.6463
4903.19 6.64321
4903.25 4.92577
4903.35 3.48288
4903.46 2.91481
4903.68 2.47516
4903.89 2.31272
4904.75 2.14989
4906.46 2.11565
4909.89 2.13697
4916.74 2.27202
4923.60 2.58289
4930.46 3.26636
4937.31 4.84200
4940.74 6.37506
4944.17 8.94493
4947.60 13.5262
4951.02 22.3885
4952.74 29.9836
4954.45 41.3786
4956.17 58.8590
4957.88 85.7270
4960.44 147.465
4963.00 198.746
4965.56 171.776
4968.12 116.168
4970.11 84.3610
4972.11 63.1817
4974.10 49.0959
4976.09 39.4743
4980.08 27.7025
4984.06 21.0891
4988.05 16.9979
4992.03 14.2760
5000.00 10.9535
5009.72 8.72243
5019.43 7.36640
5024.29 6.84226
5029.15 6.34092
5031.58 6.06144
5032.79 5.89875
5034.01 5.70714
5035.22 5.46716
5035.83 5.32137
5036.44 5.15816
5037.04 5.00265
5037.35 4.96604
5037.65 5.03511
5037.95 5.42795
5038.11 5.94659
5038.26 6.97952
5038.41 9.20329
5038.49 11.2594
5038.56 14.5658
5038.64 20.1695
5038.71 30.3115
5038.75 38.4856
5038.79 50.0966
5038.83 66.7932
5038.86 90.3356
5038.93 153.415
5039.00 206.613
5039.07 179.155
5039.14 122.435
5039.20 85.5194
5039.26 62.7017
5039.32 48.1493
5039.38 38.7845
5039.50 27.6966
5039.63 21.7010
5039.75 18.0751
5039.87 15.6971
5040.12 12.8401
5040.36 11.2084
5040.61 10.1723
5040.86 9.46185
5041.10 8.94829
5041.59 8.25191
5042.08 7.80430
5042.58 7.49002
5043.07 7.25661
5044.05 6.92790
5045.03 6.70289
5046.02 6.53511
5047.00 6.40232
5048.97 6.19904
5050.93 6.04435
5054.86 5.81047
5058.80 5.63124
5062.73 5.48347
5070.59 5.24557
5086.32 4.90134
5102.05 4.65652
5117.77 4.47109
5133.50 4.32528
5141.36 4.26362
5149.23 4.20860
5157.09 4.16342
5161.02 4.16286
5162.99 4.24359
5163.48 4.33479
5163.97 4.59217
5164.22 4.94094
5164.46 5.86974
5164.59 7.06423
5164.65 8.18541
5164.71 10.0415
5164.77 13.5789
5164.80 16.6411
5164.83 21.2250
5164.86 29.0738
5164.89 42.7632
5164.91 54.7511
5164.93 71.1549
5164.94 95.3187
5164.96 130.828
5164.98 208.754
5165.00 257.779
5165.02 205.324
5165.05 131.051
5165.07 79.9049
5165.09 52.3189
5165.12 36.8718
5165.14 27.6221
5165.17 21.7268
5165.19 17.7677
5165.24 12.9765
5165.29 10.3132
5165.33 8.68723
5165.43 6.89176
5165.62 5.44799
5165.81 4.89482
5166.20 4.47129
5166.58 4.31407
5167.35 4.19506
5168.11 4.14957
5171.18 4.09225
5177.31 4.05098
5189.57 3.99455
5201.83 3.95091
5214.09 3.92179
5226.35 3.91957
5232.49 3.94057
5238.62 3.99605
5241.68 4.04927
5244.75 4.13478
5247.81 4.27896
5250.88 4.54178
5252.41 4.76003
5253.94 5.08639
5255.48 5.60387
5257.01 6.49243
5258.54 8.20900
5259.31 9.73387
5260.07 12.1802
5260.84 16.4530
5261.61 24.8003
5261.99 32.2177
5262.37 43.9080
5262.76 63.1778
5263.14 95.4569
5263.57 150.512
5264.00 187.140
5264.43 150.228
5264.86 95.1270
5265.24 63.3342
5265.61 44.2326
5265.99 32.5242
5266.36 25.0739
5267.12 16.6312
5267.87 12.2971
5268.62 9.80008
5269.37 8.24059
5270.87 6.48254
5272.37 5.56749
5273.87 5.03237
5275.37 4.69199
5276.87 4.46207
5279.88 4.17895
5282.88 4.01654
5285.88 3.91356
5288.89 3.84319
5294.89 3.75346
5300.90 3.69785
5312.91 3.62881
5324.92 3.58316
5336.93 3.54755
5348.94 3.51870
5354.95 3.51349
5357.95 3.54421
5358.70 3.58163
5359.45 3.69017
5359.83 3.84067
5360.21 4.25401
5360.39 4.80375
5360.58 6.23157
5360.67 8.01845
5360.72 9.63875
5360.77 12.2944
5360.82 17.0724
5360.86 26.8895
5360.89 36.3328
5360.91 51.3889
5360.93 77.7810
5360.96 125.534
5360.98 200.620
5361.00 247.883
5361.02 197.378
5361.05 125.828
5361.06 86.1887
5361.08 62.3522
5361.10 46.8809
5361.11 36.5337
5361.15 24.2507
5361.18 17.6358
5361.22 13.6224
5361.25 11.1493
5361.32 8.29664
5361.46 5.87318
5361.59 4.91333
5361.87 4.15988
5362.14 3.87840
5362.69 3.66653
5363.23 3.58873
5365.42 3.50706
5369.79 3.47720
5378.54 3.45337
5396.03 3.41688
5431.01 3.35037
5465.99 3.28601
5483.48 3.25374
5492.22 3.23822
5496.60 3.23382
5498.78 3.24519
5499.88 3.30350
5500.42 3.52951
5500.56 3.75038
5500.70 4.32465
5500.77 5.05613
5500.83 6.79759
5500.87 8.75684
5500.90 12.8234
5500.92 16.6789
5500.94 23.1893
5500.95 35.0082
5500.97 57.9739
5500.99 91.6314
5501.00 112.747
5501.02 91.6450
5501.03 57.9913
5501.05 38.0137
5501.06 25.9516
5501.09 14.8715
5501.12 10.1677
5501.15 7.80074
5501.21 5.60200
5501.26 4.68302
5501.38 3.92739
5501.50 3.63663
5501.96 3.32985
5502.90 3.24548
5504.76 3.22033
5508.50 3.20755
5515.96 3.19142
5530.90 3.16078
5560.77 3.09559
5620.50 2.93346
5650.37 2.82281
5680.23 2.67378
5695.17 2.57582
5710.10 2.45360
5725.03 2.29634
5732.50 2.20086
5736.23 2.15289
5738.10 2.14862
5739.03 2.22775
5739.50 2.56766
5739.62 2.89879
5739.73 3.74308
5739.79 4.79439
5739.85 7.19900
5739.88 9.78209
5739.91 14.8342
5739.94 26.4124
5739.95 38.6462
5739.97 59.0786
5739.98 93.6265
5740.00 116.105
5740.02 93.6519
5740.03 59.1105
5740.04 42.0274
5740.06 30.5616
5740.08 18.0773
5740.10 12.1240
5740.13 8.91741
5740.18 5.80408
5740.22 4.42998
5740.32 3.24851
5740.41 2.77507
5740.79 2.26284
5741.56 2.11039
5743.08 2.04770
5746.12 1.98456
5752.21 1.86729
5758.31 1.74836
5764.40 1.65283
5770.49 1.68206
5773.53 1.84848
5776.58 2.29207
5779.62 3.42592
5781.15 4.58372
5782.67 6.57698
5784.19 10.2191
5785.72 17.4256
5786.48 23.7056
5787.24 33.2270
5788.00 48.0145
5788.76 71.0418
5789.88 123.866
5791.00 169.030
5792.12 147.926
5793.24 101.158
5794.12 73.8670
5794.99 55.6006
5795.87 43.4037
5796.75 35.0357
5798.50 24.7440
5800.25 18.9264
5802.00 15.3016
5803.76 12.8755
5807.26 9.88497
5810.77 8.13879
5814.27 6.99708
5821.28 5.56361
5828.29 4.61940
5835.30 3.81944
5838.80 3.42979
5840.56 3.26020
5842.31 3.17084
5844.06 3.35809
5844.94 3.74725
5845.81 4.64300
5846.69 6.74764
5847.13 8.80396
5847.57 12.2465
5848.00 18.3520
5848.44 30.0415
5848.66 39.9450
5848.88 54.6358
5849.10 76.8554
5849.32 110.471
5849.66 190.928
5850.00 258.403
5850.34 224.530
5850.68 152.596
5850.99 105.870
5851.30 76.7327
5851.61 58.4160
5851.92 46.4403
5852.54 32.3270
5853.16 24.6657
5853.78 20.0171
5854.40 16.9595
5855.64 13.2610
5856.88 11.1485
5858.11 9.80016
5859.35 8.87103
5860.59 8.19396
5863.07 7.27452
5865.54 6.67826
5868.02 6.25838
5870.49 5.94504
5875.45 5.50437
5880.40 5.20526
5885.35 4.98590
5890.30 4.81639
5900.21 4.56821
5910.11 4.39276
5929.92 4.15824
5949.73 4.01270
5959.63 3.96511
5969.54 3.93791
5979.44 3.94702
5984.40 3.98065
5989.35 4.05894
5991.82 4.13073
5994.30 4.24352
5996.78 4.43004
5999.25 4.76407
6001.73 5.44217
6002.97 6.07502
6004.20 7.14358
6005.44 9.15481
6006.06 10.8968
6006.68 13.6184
6007.30 18.1869
6007.92 26.6128
6008.23 33.6733
6008.54 44.1173
6008.85 60.0928
6009.16 84.4172
6009.58 132.648
6010.00 164.567
6010.42 131.997
6010.84 83.6214
6011.13 61.0161
6011.41 45.7383
6011.97 28.2305
6012.54 19.4397
6013.10 14.5489
6013.67 11.5830
6014.23 9.66789
6015.36 7.43457
6016.49 6.23631
6017.62 5.52289
6019.87 4.75160
6022.13 4.36541
6024.39 4.14400
6026.64 4.00457
6028.90 3.91044
6033.41 3.79361
6037.93 3.72573
6042.44 3.68988
6044.70 3.71499
6045.83 3.87367
6046.11 4.03713
6046.39 4.48014
6046.53 5.05490
6046.67 6.50960
6046.74 8.26873
6046.81 12.1829
6046.85 16.3999
6046.89 24.1665
6046.90 31.0216
6046.92 40.8071
6046.94 57.0034
6046.96 80.9846
6046.98 128.520
6047.00 158.405
6047.02 126.376
6047.05 81.0561
6047.07 49.8544
6047.09 33.5461
6047.12 24.2144
6047.14 18.5355
6047.19 12.3015
6047.23 9.31127
6047.32 6.57760
6047.42 5.43604
6047.60 4.50249
6047.79 4.14445
6048.16 3.86983
6048.53 3.76745
6050.01 3.65829
6052.98 3.61624
6058.91 3.58283
6070.78 3.53970
6082.64 3.50646
6094.51 3.47810
6118.24 3.42954
6141.97 3.38754
6189.43 3.31512
6236.89 3.25314
6284.36 3.20172
6308.09 3.18314
6331.82 3.17577
6355.55 3.19687
6367.41 3.23426
6379.28 3.31609
6385.21 3.39054
6391.15 3.50797
6397.08 3.70360
6403.01 4.05697
6408.94 4.78029
6411.91 5.45752
6414.88 6.60030
6417.84 8.74042
6419.33 10.5773
6420.81 13.4152
6422.29 18.0948
6423.77 26.4783
6425.26 43.0734
6426.00 57.4734
6426.74 78.5475
6427.87 124.629
6429.00 155.837
6430.13 125.596
6431.26 79.7982
6432.06 57.2347
6432.87 42.2831
6433.67 32.3440
6434.47 25.5883
6436.08 17.4168
6437.69 12.9358
6439.30 10.2441
6440.90 8.50963
6444.12 6.49095
6447.33 5.40692
6450.54 4.75776
6456.97 4.04926
6463.40 3.68796
6469.83 3.47622
6482.68 3.24441
6495.54 3.12042
6508.40 3.04103
6534.11 2.93715
6559.82 2.86207
6585.53 2.79679
6611.24 2.73426
6624.10 2.70408
6630.53 2.69457
6633.74 2.71342
6635.35 2.81595
6635.75 2.92280
6636.15 3.21730
6636.35 3.61000
6636.55 4.64324
6636.66 5.95105
6636.76 9.08224
6636.81 12.6138
6636.86 19.9639
6636.88 26.9509
6636.91 38.7792
6636.93 60.3163
6636.96 101.287
6636.98 161.929
6637.00 200.078
6637.02 159.256
6637.05 101.456
6637.07 61.6533
6637.09 40.1855
6637.12 28.1645
6637.14 20.9664
6637.19 13.2978
6637.24 9.56941
6637.33 6.23176
6637.43 4.84476
6637.62 3.71837
6637.81 3.28462
6638.19 2.95418
6638.57 2.83193
6640.10 2.70592
6643.16 2.66586
6649.28 2.64148
6661.51 2.60667
6673.74 2.57300
6679.85 2.55817
6682.91 2.56033
6684.44 2.59950
6685.20 2.76353
6685.58 3.35986
6685.68 3.91749
6685.77 5.28302
6685.82 6.89086
6685.87 10.4067
6685.89 13.9389
6685.92 20.3019
6685.94 33.0039
6685.96 58.9315
6685.98 92.6883
6686.00 115.377
6686.02 92.7270
6686.04 58.9800
6686.05 37.1446
6686.07 24.5306
6686.11 13.2359
6686.15 8.73828
6686.19 6.59770
6686.26 4.63760
6686.34 3.81436
6686.64 2.89471
6687.24 2.62914
6688.44 2.55445
6690.85 2.52866
6695.66 2.50920
6705.28 2.47781
6724.53 2.41333
6763.02 2.26553
6801.51 2.08249
6840.00 1.84948
6859.24 1.70933
6878.49 1.55311
6897.73 1.38833
6916.98 1.24787
6936.23 1.26247
6945.85 1.46598
6955.47 2.03493
6960.28 2.60197
6965.09 3.52493
6969.90 5.06483
6974.72 7.73818
6979.53 12.6568
6981.93 16.6705
6984.34 22.4583
6986.74 31.0413
6989.15 44.1222
6991.56 64.5500
6993.96 96.5283
6997.48 169.918
7001.00 233.302
7004.52 204.743
7008.04 140.143
7010.76 102.780
7013.47 77.5698
7016.19 60.6335
7018.91 48.9581
7024.34 34.5354
7029.77 26.3415
7035.20 21.2275
7040.63 17.8025
7051.50 13.5938
7062.36 11.1609
7073.23 9.60120
7084.09 8.52742
7086.81 8.31119
7089.52 8.11411
7092.24 7.95231
7093.60 7.96315
7094.28 8.29028
7094.45 8.63547
7094.62 9.54512
7094.70 10.6727
7094.79 13.3282
7094.83 16.2804
7094.87 22.0406
7094.89 27.2394
7094.91 35.5633
7094.93 49.5771
7094.96 73.6663
7094.98 114.178
7095.00 139.645
7095.02 112.343
7095.05 73.7157
7095.06 56.2738
7095.07 44.0807
7095.10 29.9669
7095.13 22.4631
7095.15 18.1224
7095.21 13.6370
7095.26 11.5134
7095.37 9.63698
7095.48 8.87044
7095.70 8.25076
7095.91 8.00806
7096.78 7.71879
7098.51 7.55482
7101.98 7.34949
7105.45 7.17226
7108.92 7.01025
7122.78 6.47155
7150.52 5.73350
7178.26 5.25101
7206.00 4.90982
7261.48 4.45467
7289.22 4.29306
7303.09 4.22361
7310.02 4.19430
7313.49 4.19336
7315.22 4.24513
7316.09 4.46828
7316.31 4.68996
7316.52 5.27422
7316.63 6.02172
7316.74 7.83449
7316.79 9.90960
7316.85 14.3145
7316.87 18.5949
7316.90 26.0210
7316.93 40.0399
7316.96 68.0580
7316.98 107.347
7317.00 132.060
7317.02 105.606
7317.05 68.1560
7317.07 45.6424
7317.09 32.1972
7317.12 19.0725
7317.16 13.1373
7317.20 10.1682
7317.28 7.34777
7317.36 6.13597
7317.52 5.12567
7317.67 4.72892
7318.30 4.30774
7319.56 4.18764
7322.08 4.14631
7327.11 4.11677
7337.17 4.07316
7357.28 3.99555
7397.52 3.86009
7478.00 3.63676
7558.48 3.44159
7598.72 3.34430
7618.84 3.29404
7628.90 3.26949
7633.93 3.26289
7636.44 3.28344
7637.70 3.38651
7638.33 3.78043
7638.48 4.15724
7638.64 5.12318
7638.72 6.30883
7638.80 9.01023
7638.84 11.9884
7638.88 17.6674
7638.92 30.5136
7638.94 43.7184
7638.96 64.4404
7638.98 102.075
7639.00 125.751
7639.02 100.419
7639.05 64.5482
7639.07 40.6004
7639.09 27.7848
7639.14 15.5233
7639.18 10.4718
7639.22 8.01318
7639.31 5.72038
7639.40 4.76010
7639.58 3.97536
7639.76 3.67177
7640.48 3.35347
7641.91 3.26362
7644.77 3.23304
7650.50 3.21105
7656.23 3.19456
7659.09 3.19414
7660.52 3.23049
7661.24 3.39739
7661.60 4.01296
7661.69 4.57876
7661.78 5.91751
7661.87 10.4052
7661.91 17.8316
7661.93 25.6528
7661.96 39.4887
7661.98 62.0650
7662.00 76.4649
7662.02 61.5538
7662.05 40.1528
7662.06 28.2506
7662.08 20.7442
7662.12 12.8444
7662.19 7.25905
7662.26 5.40443
7662.33 4.58788
7662.62 3.60985
7663.19 3.30399
7664.34 3.21128
7666.64 3.17799
7671.23 3.15587
7680.41 3.12472
7698.78 3.06335
7735.51 2.91955
7753.87 2.82950
7772.24 2.71872
7790.60 2.57364
7799.79 2.48069
7804.38 2.42992
7806.67 2.41688
7807.82 2.46783
7808.39 2.71147
7808.68 3.59409
7808.75 4.40180
7808.82 6.31494
7808.86 8.49343
7808.90 13.0320
7808.93 24.6583
7808.95 37.9523
7808.97 62.0066
7808.98 98.4496
7809.00 121.573
7809.02 98.5107
7809.03 62.0838
7809.04 44.7183
7809.06 32.6279
7809.08 19.7735
7809.10 13.4583
7809.13 9.98999
7809.17 6.56540
7809.22 5.00838
7809.31 3.68155
7809.40 3.14743
7809.77 2.56813
7810.51 2.39760
7811.98 2.33247
7814.93 2.27279
7820.83 2.15667
7826.73 2.01365
7832.63 1.82685
7835.58 1.70965
7838.53 1.57132
7841.48 1.40791
7844.43 1.22127
7847.38 1.04553
7848.85 1.01147
7850.32 1.11336
7851.06 1.28452
7851.80 1.62180
7852.54 2.27055
7853.27 3.54304
7853.64 4.61587
7854.01 6.19179
7854.38 8.57138
7854.75 12.2786
7855.12 18.3394
7855.49 28.7046
7855.85 47.4985
7856.22 82.3528
7856.61 144.737
7857.00 198.470
7857.39 173.814
7857.78 118.763
7858.23 75.4478
7858.67 51.5113
7859.12 37.7762
7859.56 29.3202
7860.01 23.7656
7860.46 19.9162
7861.35 15.0410
7862.24 12.1501
7863.13 10.2752
7864.92 8.02528
7866.70 6.74311
7868.49 5.92338
7870.27 5.35551
7872.06 4.93933
7875.62 4.36738
7879.19 3.98858
7886.33 3.50185
7893.47 3.18082
7900.61 2.93127
7914.88 2.50209
7922.02 2.28436
7929.16 2.04568
7936.30 1.77258
7943.43 1.45421
7950.57 1.10476
7954.14 0.958282
7957.71 0.923899
7959.49 1.01664
7961.28 1.26960
7963.06 1.83158
7964.85 3.02300
7965.74 4.06279
7966.63 5.61352
7967.52 7.98008
7968.41 11.6987
7969.31 17.7607
7970.20 28.0824
7971.09 46.4552
7971.98 79.8609
7972.99 144.174
7974.00 202.460
7975.01 181.141
7976.02 126.101
7976.72 96.2410
7977.42 75.0663
7978.13 60.1967
7978.83 49.5765
7980.23 35.9558
7981.64 27.9223
7983.04 22.7762
7984.45 19.2671
7987.25 14.8724
7990.06 12.2826
7992.87 10.6004
7998.49 8.57069
8004.10 7.40333
8009.72 6.65024
8012.53 6.36722
8015.34 6.13082
8018.15 5.95206
8019.55 5.97312
8020.25 6.35755
8020.43 6.76146
8020.60 7.81965
8020.69 9.14103
8020.78 12.2732
8020.82 15.7271
8020.87 22.6983
8020.89 29.1003
8020.91 39.5323
8020.93 57.4994
8020.96 87.3282
8020.98 137.507
8021.00 169.077
8021.02 135.303
8021.05 87.4755
8021.07 57.6339
8021.09 40.2640
8021.11 29.9412
8021.13 23.7383
8021.17 16.4540
8021.21 12.8554
8021.29 9.47505
8021.38 8.02069
8021.54 6.82516
8021.71 6.35376
8022.04 5.98085
8022.37 5.83134
8023.70 5.62612
8026.35 5.45772
8031.66 5.22100
8036.97 5.03202
8042.27 4.87435
8052.89 4.62424
8063.50 4.43325
8084.73 4.15677
8095.34 4.05295
8100.65 4.01179
8103.30 4.01271
8104.63 4.09241
8105.29 4.42429
8105.46 4.74690
8105.62 5.58193
8105.71 6.60822
8105.79 9.01011
8105.83 11.6654
8105.87 16.8078
8105.91 28.7353
8105.94 41.3199
8105.96 61.6361
8105.98 97.1018
8106.00 119.413
8106.02 95.5387
8106.05 61.7346
8106.06 43.0100
8106.08 31.7511
8106.11 19.5572
8106.15 13.7568
8106.18 10.6334
8106.25 7.59895
8106.32 6.23819
8106.45 5.08981
8106.59 4.63103
8107.14 4.13661
8108.22 3.99225
8110.40 3.93942
8114.76 3.89784
8123.48 3.83559
8140.91 3.72961
8175.77 3.55664
8245.50 3.28280
8315.23 3.03085
8350.09 2.89676
8367.52 2.82616
8376.24 2.79217
8380.60 2.78506
8382.78 2.82206
8383.87 2.99653
8384.14 3.17374
8384.41 3.65062
8384.55 4.26723
8384.68 5.82109
8384.75 7.67159
8384.82 11.8177
8384.85 16.1037
8384.89 24.0952
8384.92 40.9748
8384.94 56.6027
8384.96 80.8138
8384.98 128.813
8385.00 159.006
8385.02 126.692
8385.05 80.9402
8385.07 52.3958
8385.09 36.3881
8385.11 26.2787
8385.13 20.2195
8385.17 13.2421
8385.21 9.69890
8385.29 6.41813
8385.37 5.00608
8385.54 3.84884
8385.70 3.39918
8386.36 2.92147
8387.67 2.78608
8390.28 2.74034
8395.52 2.70825
8406.00 2.65932
8416.48 2.61324
8421.72 2.59546
8424.34 2.60661
8425.65 2.68988
8426.30 3.01932
8426.47 3.33819
8426.63 4.15484
8426.71 5.16025
8426.79 7.50791
8426.83 10.0547
8426.87 15.0919
8426.92 26.8296
8426.94 38.4928
8426.96 58.0347
8426.98 92.1514
8427.00 113.620
8427.02 90.6628
8427.05 58.1482
8427.06 39.3577
8427.08 28.3164
8427.12 16.4959
8427.16 11.1258
8427.19 8.37241
8427.27 5.69551
8427.34 4.51291
8427.49 3.52158
8427.63 3.13263
8428.22 2.71617
8429.39 2.59671
8431.73 2.55634
8436.41 2.52911
8445.77 2.49206
8464.50 2.45038
8483.23 2.51033
8492.59 2.63577
8497.27 2.75191
8499.62 2.86009
8500.79 3.05149
8501.08 3.21415
8501.37 3.63521
8501.52 4.17917
8501.66 5.54827
8501.74 7.19367
8501.81 10.9349
8501.85 14.9435
8501.88 22.3716
8501.92 39.1287
8501.94 54.8339
8501.96 79.8177
8501.98 127.171
8502.00 157.000
8502.02 125.183
8502.05 80.0740
8502.07 48.0746
8502.09 31.7287
8502.12 22.2625
8502.14 16.8580
8502.19 10.9829
8502.24 8.14177
8502.34 5.60966
8502.44 4.56228
8502.63 3.71536
8502.83 3.39678
8503.61 3.08898
8505.17 3.06893
8508.30 3.21850
8514.56 3.71649
8520.81 4.54929
8527.07 5.97794
8533.32 8.55981
8539.58 13.5724
8542.71 17.8517
8545.84 24.2249
8548.96 33.8944
8552.09 48.5626
8557.05 84.6310
8562.00 116.142
8566.96 102.536
8571.91 70.9679
8576.19 50.8786
8580.48 37.9427
8584.76 29.5957
8589.04 24.0143
8597.61 17.3143
8606.17 13.6023
8614.74 11.3165
8623.30 9.79586
8640.43 7.93238
8657.56 6.85107
8674.69 6.15054
8691.83 5.66002
8700.39 5.46703
8704.67 5.38710
8706.81 5.37772
8707.89 5.48375
8708.42 5.93673
8708.55 6.37095
8708.69 7.46955
8708.76 8.78022
8708.82 11.7190
8708.86 14.8167
8708.89 20.4149
8708.92 32.0688
8708.94 43.0977
8708.96 58.9532
8708.98 91.9679
8709.00 112.752
8709.02 90.5500
8709.05 59.0907
8709.07 40.1734
8709.08 29.3120
8709.12 18.0213
8709.16 13.0240
8709.20 10.4976
8709.28 8.05418
8709.36 7.00380
8709.51 6.12656
8709.66 5.78206
8710.28 5.40690
8711.52 5.28424
8714.00 5.21373
8718.95 5.12329
8728.85 4.96951
8748.65 4.71030
8768.45 4.49077
8788.25 4.28985
8808.06 4.08352
8817.96 3.96564
8827.86 3.82364
8837.76 3.63196
8842.71 3.50014
8847.66 3.32397
8850.14 3.20975
8852.61 3.06965
8855.09 2.89350
8857.56 2.66730
8860.04 2.37865
8862.51 2.08323
8863.75 2.09833
8864.37 2.29229
8864.99 2.82410
8865.61 4.18483
8865.92 5.56004
8866.22 7.87947
8866.53 12.0084
8866.84 19.7851
8867.00 26.2661
8867.15 35.6119
8867.31 49.4510
8867.46 69.6247
8867.73 124.058
8868.00 172.672
8868.27 153.997
8868.54 107.165
8868.77 77.5420
8869.00 58.1398
8869.22 45.4479
8869.45 36.8693
8869.91 26.4615
8870.36 20.6322
8870.82 17.0176
8871.28 14.6018
8872.19 11.6317
8873.10 9.90856
8874.01 8.79828
8874.92 8.02907
8875.84 7.46721
8877.66 6.70472
8879.48 6.21312
8881.31 5.87033
8883.13 5.61757
8886.78 5.26899
8890.43 5.03864
8894.08 4.87379
8897.72 4.74900
8905.02 4.56998
8912.32 4.44501
8926.91 4.27518
8941.50 4.15876
8956.09 4.06949
8985.27 3.93317
9043.64 3.73558
9102.00 3.57641
9160.37 3.42442
9189.55 3.34283
9218.73 3.25032
9247.91 3.13497
9262.51 3.06062
9277.10 2.96513
9291.69 2.82994
9298.98 2.73451
9306.28 2.60469
9309.93 2.51911
9313.58 2.41223
9317.22 2.27406
9320.87 2.08777
9322.69 1.96809
9324.52 1.82419
9326.34 1.65043
9328.17 1.44510
9329.99 1.23437
9330.90 1.17027
9331.81 1.22410
9332.27 1.35808
9332.73 1.64194
9333.18 2.20683
9333.64 3.33128
9333.87 4.27973
9334.09 5.66775
9334.32 7.74687
9334.55 10.9539
9334.78 16.0804
9335.01 24.6189
9335.23 39.4266
9335.46 65.3994
9335.73 117.012
9336.00 163.009
9336.27 145.163
9336.54 100.697
9336.86 64.2891
9337.18 44.2781
9337.50 32.8281
9337.81 25.7813
9338.13 21.1348
9338.45 17.9197
9339.09 13.8319
9339.72 11.3932
9340.36 9.80377
9341.63 7.88273
9342.91 6.78087
9344.18 6.07283
9345.45 5.58153
9346.72 5.22146
9349.27 4.72814
9351.82 4.40502
9354.36 4.17517
9356.91 4.00160
9362.00 3.75122
9367.09 3.57170
9372.18 3.42824
9377.27 3.30276
9387.45 3.06227
9392.55 2.92913
9397.64 2.77365
9402.73 2.58455
9407.82 2.37828
9410.37 2.34248
9411.64 2.41137
9412.91 2.64537
9414.18 3.29870
9414.82 3.98728
9415.46 5.18568
9416.09 7.38691
9416.73 11.7144
9417.05 15.4434
9417.37 21.0359
9417.68 29.5838
9418.00 42.6576
9418.50 74.8372
9419.00 103.410
9419.50 92.0270
9420.00 64.2290
9420.41 47.1804
9420.81 35.8776
9421.22 28.3869
9421.62 23.2744
9422.44 17.0141
9423.25 13.4798
9424.06 11.2763
9424.87 9.80181
9426.50 7.98505
9428.12 6.92856
9429.75 6.24731
9431.37 5.77458
9432.99 5.42864
9436.24 4.95749
9439.49 4.65206
9442.74 4.43751
9445.99 4.27808
9452.49 4.05517
9458.98 3.90482
9471.98 3.70955
9484.97 3.58299
9497.97 3.49036
9510.96 3.41772
9517.46 3.39003
9520.71 3.39305
9522.33 3.45788
9523.14 3.72860
9523.35 3.99517
9523.55 4.69736
9523.65 5.58616
9523.75 7.71331
9523.80 10.1437
9523.85 15.2462
9523.88 20.2640
9523.91 28.5046
9523.93 43.5108
9523.96 72.0602
9523.98 114.323
9524.00 140.923
9524.02 112.491
9524.05 72.2152
9524.06 52.9526
9524.08 39.8373
9524.10 25.1047
9524.13 17.5319
9524.16 13.2484
9524.22 8.86073
9524.28 6.86595
9524.40 5.12424
9524.51 4.42059
9524.98 3.64764
9525.91 3.42623
9527.78 3.35979
9531.51 3.32874
9538.98 3.29496
9553.91 3.23931
9568.84 3.18915
9583.77 3.14228
9643.50 2.97016
9703.23 2.80010
9733.09 2.70952
9748.02 2.66232
9755.49 2.64063
9759.22 2.64109
9761.09 2.68770
9762.02 2.88908
9762.49 3.62817
9762.61 4.31790
9762.72 6.00673
9762.78 8.00850
9762.84 12.2832
9762.87 16.5220
9762.90 24.0463
9762.93 38.7496
9762.96 69.6089
9762.98 110.843
9763.00 136.812
9763.02 109.098
9763.05 69.8127
9763.07 44.4238
9763.09 30.0161
9763.13 16.4578
9763.18 10.8073
9763.22 7.99328
9763.31 5.42672
9763.40 4.34403
9763.57 3.45111
9763.75 3.10657
9764.45 2.74230
9765.85 2.63840
9768.66 2.60214
9774.28 2.57516
9785.51 2.53223
9796.74 2.48923
9802.35 2.46855
9805.16 2.46439
9806.56 2.48757
9807.27 2.59549
9807.62 2.99307
9807.79 4.26891
9807.88 7.63507
9807.92 14.0361
9807.95 22.1108
9807.97 38.1789
9807.98 59.5746
9808.00 73.9692
9808.02 59.6178
9808.03 38.2328
9808.06 20.2187
9808.09 12.2770
9808.14 6.58193
9808.24 3.84875
9808.45 2.85437
9808.86 2.55236
9809.69 2.46594
9811.34 2.43696
9814.65 2.41704
9821.27 2.38639
9834.51 2.32393
9860.99 2.17842
9874.24 2.08888
9887.48 1.97963
9894.10 1.91338
9900.72 1.83530
9907.34 1.74127
9910.65 1.69458
9912.30 1.70927
9913.13 1.87307
9913.54 2.50951
9913.75 4.53125
9913.80 6.17675
9913.85 9.56285
9913.90 18.5633
9913.93 29.1511
9913.96 48.7393
9913.98 77.7429
9914.00 96.0081
9914.02 76.5118
9914.05 48.8779
9914.07 29.2761
9914.10 18.9616
9914.15 9.94006
9914.20 6.40988
9914.24 4.73530
9914.34 3.20912
9914.44 2.57885
9914.84 1.86912
9915.63 1.64797
9917.22 1.55245
9920.40 1.44408
9923.58 1.32482
9926.75 1.17521
9929.93 0.983462
9933.11 0.772231
9934.70 0.750153
9935.49 0.846280
9936.29 1.14855
9936.68 1.46298
9937.08 1.98485
9937.48 2.87250
9937.87 4.44392
9938.27 7.39984
9938.47 9.86577
9938.67 13.4645
9938.87 18.9358
9939.07 27.4445
9939.26 41.2083
9939.46 63.4040
9939.73 111.324
9940.00 152.505
9940.27 133.410
9940.54 91.0797
9940.77 64.2978
9941.00 47.1911
9941.24 36.1361
9941.47 28.7931
9941.93 19.9880
9942.40 15.1396
9942.86 12.1601
9943.33 10.1907
9944.26 7.79049
9945.19 6.41309
9946.11 5.53261
9947.04 4.92620
9947.97 4.48513
9949.83 3.88849
9951.69 3.50466
9953.55 3.23643
9955.41 3.03759
9959.12 2.75972
9962.84 2.57121
9970.27 2.32081
9977.70 2.14956
9985.14 2.01429
10000.0 1.78795
10019.1 1.51383
10028.7 1.36898
10038.3 1.21676
10047.9 1.07283
10052.6 1.02734
10057.4 1.04655
10062.2 1.25733
10064.6 1.54772
10067.0 2.13072
10069.4 3.35882
10070.6 4.47541
10071.8 6.21466
10073.0 9.09380
10074.2 14.0322
10075.4 23.1484
10076.6 40.2171
10077.8 70.2289
10079.0 95.5464
10080.2 83.2081
10081.5 56.7261
10082.8 36.8008
10084.1 25.5214
10085.4 18.8934
10086.7 14.7462
10088.1 11.9737
10089.4 10.0532
10092.0 7.59802
10094.7 6.12307
10097.3 5.15955
10102.6 3.98361
10107.9 3.29233
10113.2 2.83372
10123.7 2.24279
10134.3 1.85598
10144.9 1.56641
10166.0 1.14894
10187.2 0.977739
10197.8 1.10848
10203.0 1.29155
10208.3 1.60652
10213.6 2.12748
10218.9 2.97523
10224.2 4.36977
10229.5 6.70624
10234.8 10.7811
10240.0 18.2177
10242.7 24.2167
10245.3 32.6374
10248.0 44.5905
10250.6 61.4720
10255.8 112.218
10261.0 159.149
10266.2 143.970
10271.4 101.254
10276.1 72.3062
10280.7 53.6284
10285.4 41.5761
10290.0 33.5059
10299.4 23.7829
10308.7 18.3515
10318.0 14.9739
10327.3 12.7026
10336.6 11.0843
10339.0 10.7521
10341.3 10.4464
10343.6 10.1877
10344.8 10.1757
10345.4 10.5699
10345.5 11.0090
10345.7 12.0627
10345.7 13.5493
10345.8 16.5737
10345.9 20.2894
10345.9 25.4323
10345.9 40.2340
10345.9 55.3731
10346.0 73.0970
10346.0 115.550
10346.0 136.507
10346.0 115.686
10346.0 73.2769
10346.1 55.5422
10346.1 40.3787
10346.1 25.5304
10346.2 19.1831
10346.2 15.9890
10346.3 13.0556
10346.4 11.8000
10346.5 10.7681
10346.7 10.3751
10347.3 9.88601
10348.5 9.63439
10351.0 9.34762
10356.0 8.87544
10366.0 8.09452
10386.0 6.95173
10406.0 6.16252
10416.0 5.86253
10421.0 5.73748
10423.5 5.69741
10424.7 5.74746
10425.3 6.02346
10425.6 6.98722
10425.7 7.86028
10425.8 9.91625
10425.9 16.6410
10425.9 27.1357
10426.0 50.4316
10426.0 80.5227
10426.0 95.3759
10426.0 80.6163
10426.0 50.5571
10426.1 31.9181
10426.1 23.6152
10426.1 15.2551
10426.2 9.23901
10426.3 7.47788
10426.4 6.74142
10426.8 5.92748
10427.5 5.67331
10428.9 5.57843
10431.7 5.50611
10437.3 5.40667
10448.5 5.28425
10471.0 5.50417
10482.2 6.12518
10493.5 7.64143
10499.1 9.10389
10504.7 11.4916
10510.3 15.5609
10513.2 18.6646
10513.9 19.5992
10514.6 20.6199
10515.3 21.8013
10515.6 22.7235
10515.8 24.1360
10515.9 27.0402
10515.9 31.0656
10515.9 35.1776
10516.0 47.2247
10516.0 72.1593
10516.0 62.7855
10516.0 47.6633
10516.1 35.6794
10516.1 30.2439
10516.2 26.2928
10516.3 24.4941
10516.5 24.1904
10517.0 24.8561
10517.9 26.7274
10519.8 31.2927
10523.6 43.9293
10529.3 72.9519
10535.0 96.3861
10540.7 82.6570
10546.4 55.8325
10550.3 41.9931
10554.3 32.3078
10562.2 20.7362
10570.0 14.4432
10577.9 10.5131
10585.8 7.68506
10589.7 6.50529
10593.7 5.47437
10597.6 4.72340
10599.6 4.60093
10601.5 4.86474
10603.5 5.92690
10605.5 8.75354
10606.5 11.4972
10607.4 15.7662
10608.4 22.4687
10609.4 32.9048
10610.3 47.0649
10611.2 66.0092
10613.0 103.720
10613.9 108.779
10614.8 102.552
10616.6 78.0522
10617.7 64.5264
10618.8 54.1338
10621.1 40.2287
10623.3 31.9579
10625.5 26.6767
10627.8 23.0760
10630.0 20.4860
10634.4 17.0293
10638.9 14.8314
10643.4 13.3061
10652.3 11.3094
10661.2 10.0397
10670.1 9.14546
10679.0 8.47209
10683.5 8.19418
10685.7 8.07702
10686.9 8.06373
10687.4 8.22114
10687.7 8.87318
10687.8 10.9343
10687.9 15.9617
10687.9 22.5904
10688.0 43.0732
10688.0 61.7549
10688.0 78.5249
10688.0 61.8561
10688.0 43.1909
10688.1 26.5952
10688.1 17.6629
10688.2 11.7800
10688.3 9.25940
10688.5 8.29582
10689.0 7.99102
10689.9 7.86620
10691.7 7.75313
10695.4 7.57209
10702.7 7.25470
10717.4 6.72676
10746.7 5.92329
10776.0 5.28686
10805.3 4.70688
10834.6 4.11104
10849.3 3.79282
10864.0 3.47095
10878.6 3.21403
10886.0 3.18844
10893.3 3.36388
10900.6 4.03556
10904.3 4.77869
10907.9 6.05423
10911.6 8.29209
10915.3 12.3136
10918.9 19.8413
10922.6 34.0903
10926.8 63.5451
10931.0 93.4651
10935.2 88.0594
10939.4 64.6767
10943.3 47.6222
10947.2 36.5681
10951.1 29.4014
10955.0 24.5773
10962.8 18.7097
10970.5 15.3952
10978.3 13.3065
10986.1 11.8886
11001.7 10.0990
11017.3 9.02235
11032.8 8.30343
11048.4 7.78823
11056.2 7.58354
11060.1 7.50047
11062.0 7.49927
11063.0 7.64433
11063.5 8.24604
11063.7 10.1693
11063.8 11.7450
11063.8 15.1248
11063.9 24.3335
11063.9 35.8092
11063.9 49.9705
11064.0 66.5466
11064.0 106.239
11064.0 125.817
11064.0 106.328
11064.0 66.6660
11064.1 50.0846
11064.1 35.9097
11064.1 24.4139
11064.2 15.1775
11064.2 11.4356
11064.3 10.0141
11064.6 8.18235
11065.1 7.59646
11066.1 7.41160
11068.1 7.32609
11072.1 7.23369
11080.2 7.08203
11096.3 6.82748
11128.5 6.44096
11160.7 6.15757
11176.8 6.04196
11184.9 5.99114
11188.9 5.97560
11190.9 6.00318
11192.0 6.15284
11192.5 6.70819
11192.7 8.49491
11192.8 10.2285
11192.8 13.5691
11192.9 22.6707
11192.9 34.0132
11192.9 48.0106
11193.0 64.3955
11193.0 103.633
11193.0 122.993
11193.0 103.736
11193.0 64.5340
11193.1 40.2293
11193.1 25.7009
11193.2 14.5535
11193.2 10.6645
11193.3 8.90520
11193.4 7.41382
11193.5 6.81673
11194.0 6.17459
11195.0 5.99159
11196.9 5.93239
11200.7 5.89739
11208.3 5.85112
11223.5 5.77023
11238.7 5.69719
11246.3 5.66493
11250.2 5.65832
11252.1 5.69263
11253.0 5.85505
11253.5 6.47029
11253.6 7.05154
11253.7 8.51305
11253.8 10.2443
11253.8 14.0826
11253.9 25.1179
11253.9 39.5309
11254.0 63.6834
11254.0 102.731
11254.0 122.051
11254.0 102.962
11254.0 63.9950
11254.1 39.8143
11254.1 25.3507
11254.2 15.3274
11254.2 11.3053
11254.3 9.33651
11254.4 7.56073
11254.5 6.81122
11254.9 5.96008
11255.7 5.71427
11257.3 5.64136
11260.6 5.60970
11267.1 5.57815
11280.2 5.52622
11306.3 5.43358
11358.5 5.27617
11410.7 5.14516
11436.8 5.08696
11449.9 5.05984
11456.4 5.04941
11459.7 5.05666
11461.3 5.11057
11462.1 5.33208
11462.6 6.13799
11462.8 8.57227
11462.9 14.3948
11462.9 24.1776
11462.9 38.3306
11463.0 62.0443
11463.0 100.376
11463.0 119.331
11463.0 100.578
11463.0 62.3175
11463.1 38.5792
11463.1 28.0010
11463.1 15.8148
11463.2 9.29756
11463.3 7.15506
11463.4 6.35787
11463.8 5.41615
11464.5 5.13629
11466.0 5.05612
11469.0 5.02912
11474.9 5.01150
11486.7 4.98672
11510.4 4.94160
11557.8 4.85693
11652.5 4.69255
11699.9 4.59960
11723.6 4.54408
11747.2 4.47633
11770.9 4.38568
11782.8 4.32492
11794.6 4.24631
11806.4 4.13804
11812.4 4.06600
11818.3 3.97546
11824.2 3.85774
11830.1 3.69817
11833.1 3.59532
11836.0 3.47148
11839.0 3.32486
11840.5 3.26246
11841.2 3.31936
11841.6 3.66560
11841.8 4.83950
11841.9 7.49639
11841.9 12.5056
11842.0 26.6995
11842.0 42.6213
11842.0 50.5458
11842.0 42.8270
11842.0 26.9742
11842.1 12.7179
11842.1 7.64074
11842.2 4.77299
11842.4 3.61686
11842.8 3.21958
11843.6 3.05325
11845.2 2.90155
11846.8 2.78271
11848.4 2.72032
11850.0 2.85041
11850.8 3.11140
11851.6 3.68135
11852.4 4.90659
11853.2 7.64865
11853.6 10.2155
11854.0 14.2996
11854.4 20.9370
11854.8 31.4140
11855.4 57.6542
11856.0 82.9666
11856.6 77.1297
11857.2 56.3186
11857.8 39.3452
11858.4 29.1651
11859.1 22.9778
11859.7 19.0023
11860.3 16.3026
11861.0 14.3808
11862.2 11.8864
11863.5 10.3430
11864.7 9.32151
11867.2 8.05395
11869.7 7.31036
11872.2 6.82517
11874.8 6.48492
11877.3 6.23360
11882.3 5.88713
11887.3 5.66052
11892.3 5.50031
11897.4 5.38082
11907.4 5.21366
11917.4 5.10167
11927.5 5.02050
11937.5 4.95853
11957.6 4.86859
11977.7 4.80502
12017.9 4.71747
12058.1 4.65665
12098.2 4.60966
12178.6 4.53777
12339.3 4.43613
12500.0 4.36146
12500.0 5.16815
15000.0 5.02109
17000.0 4.92369
17500.0 4.90149
20000.0 4.90090
25000.0 4.90783
30000.0 4.96467
35000.0 5.01931
40000.0 5.06510
45000.0 5.10993
55000.0 5.55467
60000.0 5.43790
70000.0 5.23300
72000.0 5.16743
85000.0 4.77709
90000.0 4.64052
99999.9 4.58133
100000 4.58192
150000 4.66943
200000 4.81382
250000 4.98133
281257 5.09077
281257 5.09077
300000 5.15690
393409 5.50109
500000 5.82462
666474 6.28881
700000 6.37180
800000 6.59951
900000 6.79864
1.00000E+06 6.96911
1.12500E+06 7.12529
1.25000E+06 7.26635
1.29950E+06 7.30330
1.29951E+06 7.30329
1.47368E+06 7.37941
1.50000E+06 7.38410
1.62500E+06 7.36617
1.75000E+06 7.35109
1.80319E+06 7.32761
1.85356E+06 7.30074
1.91400E+06 7.26227
2.00000E+06 7.19687
2.05503E+06 7.14892
2.05503E+06 7.14892
2.09533E+06 7.10913
2.13562E+06 7.07093
2.18258E+06 6.99273
2.22953E+06 6.91845
2.27649E+06 6.84782
2.32345E+06 6.78063
2.37040E+06 6.71664
2.41736E+06 6.65569
2.46431E+06 6.59757
2.51127E+06 6.54213
2.57236E+06 6.46050
2.63345E+06 6.38373
2.69454E+06 6.31145
2.75564E+06 6.24335
2.81673E+06 6.17913
2.87782E+06 6.11853
2.93891E+06 6.06129
3.00000E+06 6.00720
3.06250E+06 5.92584
3.12500E+06 5.84858
3.18750E+06 5.77514
3.25000E+06 5.70528
3.31250E+06 5.63878
3.37500E+06 5.57543
3.43750E+06 5.51504
3.50000E+06 5.45742
3.56250E+06 5.40243
3.62500E+06 5.34991
3.68750E+06 5.29971
3.75000E+06 5.25171
3.81250E+06 5.20579
3.87500E+06 5.16183
3.93750E+06 5.11973
4.00000E+06 5.07940
4.05902E+06 5.03968
4.11804E+06 5.00109
4.17705E+06 4.96357
4.23607E+06 4.92709
4.29509E+06 4.89159
4.35411E+06 4.85705
4.41312E+06 4.82341
4.47214E+06 4.79066
4.53812E+06 4.75312
4.60411E+06 4.71666
4.67009E+06 4.68125
4.73607E+06 4.64683
4.80205E+06 4.61337
4.86804E+06 4.58082
4.93402E+06 4.54916
5.00000E+06 4.51833
5.11659E+06 4.49240
5.23318E+06 4.46736
5.35521E+06 4.44172
5.47723E+06 4.41698
5.54109E+06 4.40419
5.60495E+06 4.39163
5.66880E+06 4.37928
5.73266E+06 4.36716
5.79950E+06 4.35451
5.86633E+06 4.34209
5.93317E+06 4.32989
6.00000E+06 4.31790
6.11787E+06 4.32440
6.23574E+06 4.33078
6.40537E+06 4.33977
6.48074E+06 4.34369
6.60806E+06 4.35023
6.73537E+06 4.35665
6.84467E+06 4.36207
6.95396E+06 4.36741
6.99362E+06 4.36933
7.00000E+06 4.36964
7.24166E+06 4.38916
7.48331E+06 4.41140
7.68005E+06 4.43095
7.87679E+06 4.45209
8.00000E+06 4.46305
8.14238E+06 4.47649
8.31383E+06 4.48965
8.48528E+06 4.50490
8.60890E+06 4.51703
8.73251E+06 4.53017
8.76595E+06 4.53284
8.79938E+06 4.53559
8.83282E+06 4.53841
8.86626E+06 4.54129
8.89969E+06 4.54425
8.93313E+06 4.54727
8.96656E+06 4.55036
9.00000E+06 4.55352
9.06085E+06 4.55928
9.12171E+06 4.56516
9.18256E+06 4.57115
9.24342E+06 4.57727
9.30427E+06 4.58349
9.36512E+06 4.58984
9.42598E+06 4.59629
9.48683E+06 4.60286
9.55098E+06 4.60982
9.61512E+06 4.61691
9.67927E+06 4.62411
9.74342E+06 4.63143
9.80756E+06 4.63887
9.87171E+06 4.64642
9.93585E+06 4.65408
1.00000E+07 4.66185
1.00610E+07 4.66970
1.01220E+07 4.67756
1.01830E+07 4.68545
1.02441E+07 4.69335
1.03051E+07 4.70128
1.03661E+07 4.70922
1.04271E+07 4.71719
1.04881E+07 4.72517
1.05521E+07 4.73361
1.06161E+07 4.74208
1.06801E+07 4.75056
1.07441E+07 4.75907
1.08080E+07 4.76759
1.08720E+07 4.77614
1.09360E+07 4.78470
1.10000E+07 4.79329
1.10611E+07 4.80078
1.11223E+07 4.80828
1.11834E+07 4.81580
1.12446E+07 4.82332
1.13057E+07 4.83086
1.13668E+07 4.83842
1.14280E+07 4.84598
1.14891E+07 4.85356
1.15530E+07 4.86138
1.16168E+07 4.86921
1.16807E+07 4.87706
1.17446E+07 4.88492
1.18084E+07 4.89279
1.18723E+07 4.90068
1.19361E+07 4.90858
1.20000E+07 4.91649
1.20613E+07 4.92162
1.21225E+07 4.92675
1.21838E+07 4.93187
1.22450E+07 4.93699
1.23063E+07 4.94210
1.23675E+07 4.94721
1.24288E+07 4.95232
1.24900E+07 4.95742
1.25538E+07 4.96271
1.26175E+07 4.96800
1.26813E+07 4.97328
1.27450E+07 4.97856
1.28088E+07 4.98385
1.28725E+07 4.98913
1.29363E+07 4.99441
1.30000E+07 4.99969
1.30561E+07 5.00418
1.31122E+07 5.00867
1.31682E+07 5.01317
1.32243E+07 5.01766
1.32721E+07 5.02139
1.33199E+07 5.02513
1.33677E+07 5.02886
1.34155E+07 5.03259
1.34632E+07 5.03632
1.35110E+07 5.04005
1.35588E+07 5.04378
1.36066E+07 5.04751
1.36558E+07 5.05131
1.37050E+07 5.05512
1.37541E+07 5.05892
1.38033E+07 5.06273
1.38525E+07 5.06653
1.39017E+07 5.07034
1.39508E+07 5.07415
1.40000E+07 5.07797
1.41250E+07 5.08128
1.42500E+07 5.08462
1.43750E+07 5.08799
1.45000E+07 5.09140
1.47500E+07 5.09783
1.50000E+07 5.10440
1.50557E+07 5.10441
1.51114E+07 5.10442
1.51670E+07 5.10445
1.52227E+07 5.10448
1.52784E+07 5.10453
1.53341E+07 5.10459
1.53897E+07 5.10466
1.54454E+07 5.10475
1.55011E+07 5.10485
1.55568E+07 5.10496
1.56124E+07 5.10509
1.56681E+07 5.10523
1.57238E+07 5.10538
1.57795E+07 5.10556
1.58351E+07 5.10575
1.58908E+07 5.10596
1.59454E+07 5.10604
1.60000E+07 5.10614
1.60666E+07 5.10480
1.61332E+07 5.10348
1.61874E+07 5.10229
1.62416E+07 5.10112
1.62957E+07 5.09996
1.63499E+07 5.09883
1.64041E+07 5.09771
1.64583E+07 5.09661
1.65124E+07 5.09553
1.65666E+07 5.09447
1.66208E+07 5.09342
1.66750E+07 5.09240
1.67291E+07 5.09140
1.67833E+07 5.09042
1.68375E+07 5.08947
1.68917E+07 5.08853
1.69458E+07 5.08762
1.70000E+07 5.08674
1.70625E+07 5.08537
1.71250E+07 5.08404
1.71875E+07 5.08273
1.72500E+07 5.08145
1.73125E+07 5.08020
1.73750E+07 5.07897
1.74375E+07 5.07778
1.75000E+07 5.07662
1.75625E+07 5.07549
1.76250E+07 5.07439
1.76875E+07 5.07333
1.77500E+07 5.07229
1.78125E+07 5.07129
1.78750E+07 5.07033
1.79375E+07 5.06940
1.80000E+07 5.06851
1.80625E+07 5.06586
1.81250E+07 5.06325
1.81875E+07 5.06067
1.82500E+07 5.05813
1.83125E+07 5.05563
1.83750E+07 5.05317
1.84375E+07 5.05075
1.85000E+07 5.04837
1.85625E+07 5.04603
1.86250E+07 5.04373
1.86875E+07 5.04148
1.87500E+07 5.03927
1.88125E+07 5.03710
1.88750E+07 5.03499
1.89375E+07 5.03293
1.90000E+07 5.03092
1.92500E+07 5.02110
1.95000E+07 5.01189
1.97500E+07 5.00334
2.00000E+07 4.99553