La-139(n,tot) ENDF/B-VII.1
Energy(eV) XS(b)
1.00000E-05 465.263
1.25000E-05 417.218
1.50000E-05 381.753
2.00000E-05 331.970
2.75000E-05 284.603
3.50000E-05 253.429
4.25000E-05 230.925
5.00000E-05 213.696
6.25000E-05 192.210
7.50000E-05 176.349
0.000100000 154.086
0.000125000 138.892
0.000150000 127.677
0.000200000 111.935
0.000275000 96.9556
0.000350000 87.0975
0.000425000 79.9807
0.000500000 74.5325
0.000625000 67.7377
0.000750000 62.7220
0.00100000 55.6815
0.00125000 50.8767
0.00150000 47.3299
0.00200000 42.3513
0.00275000 37.6139
0.00350000 34.4960
0.00425000 32.2451
0.00500000 30.5217
0.00625000 28.3724
0.00750000 26.7856
0.0100000 24.5580
0.0125000 23.0375
0.0150000 21.9148
0.0200000 20.3384
0.0253000 19.2077
0.0314750 18.2694
0.0376500 17.5721
0.0500000 16.5869
0.0625000 15.9032
0.0750000 15.3976
0.100000 14.6857
0.125000 14.1977
0.150000 13.8357
0.200000 13.3239
0.275000 12.8305
0.350000 12.5007
0.500000 12.0786
0.605750 11.9221
0.658625 11.9799
0.685063 12.2045
0.698281 12.5013
0.711500 13.1102
0.734000 14.5604
0.756500 13.0921
0.771719 12.3756
0.786938 12.0328
0.817375 11.7413
0.878250 11.5368
1.00000 11.3588
1.25000 11.1299
1.50000 10.9555
2.00000 10.6823
2.75000 10.3687
3.50000 10.1146
5.00000 9.69815
7.50000 9.14458
10.0000 8.68925
15.0000 7.95429
20.0000 7.37345
27.5000 6.68990
35.0000 6.15696
42.5000 5.72296
50.0000 5.35125
55.5641 5.09483
58.3462 4.96598
61.1282 4.83205
63.9103 4.69020
65.3013 4.61884
66.6923 4.55821
67.3878 4.54211
68.0833 4.55102
68.7788 4.61652
69.4744 4.82199
69.8221 5.04351
70.1699 5.43214
70.5176 6.14977
70.8654 7.59225
71.0393 8.88208
71.2131 10.9257
71.3870 14.3833
71.5609 20.7997
71.6478 26.2292
71.7348 34.4861
71.8217 47.8386
71.9087 71.3251
71.9521 90.2963
71.9956 117.988
72.0391 160.512
72.0825 230.299
72.1260 355.617
72.1477 458.704
72.1695 611.128
72.1912 847.883
72.2129 1236.62
72.2347 1913.57
72.2564 3127.31
72.2782 5040.97
72.3000 6350.17
72.3218 5122.55
72.3436 3229.76
72.3571 2391.82
72.3706 1803.14
72.3976 1099.01
72.4246 729.255
72.4516 517.020
72.4787 385.503
72.5057 298.852
72.5597 195.775
72.6137 139.236
72.6677 104.925
72.7757 67.0893
72.8838 47.7070
72.9918 36.4168
73.0998 29.2360
73.2079 24.3683
73.4239 18.3454
73.6400 14.8714
73.8561 12.6671
74.0721 11.1702
74.5043 9.30497
74.9364 8.21341
75.3685 7.50872
75.8007 7.02102
76.6649 6.39569
77.5292 6.01405
78.3934 5.75682
79.2577 5.57079
80.9862 5.31651
82.7148 5.14676
86.1718 4.92358
89.6289 4.77334
93.0859 4.65850
100.000 4.48316
112.500 4.25451
125.000 4.08282
150.000 3.82896
175.000 3.64504
200.000 3.50380
224.090 3.39487
236.135 3.34792
242.158 3.32618
245.169 3.31639
246.674 3.31442
247.051 3.31645
247.427 3.32446
247.615 3.33650
247.804 3.37064
247.898 3.41648
247.945 3.46064
247.992 3.53759
248.039 3.69050
248.062 3.83013
248.086 4.06114
248.109 4.48532
248.121 4.84201
248.133 5.37670
248.145 6.24090
248.156 7.71461
248.168 10.4863
248.180 15.8811
248.190 23.4623
248.200 28.4481
248.210 23.3831
248.220 15.8821
248.231 10.6507
248.242 7.92180
248.254 6.40707
248.265 5.51961
248.276 4.95385
248.287 4.57982
248.309 4.12925
248.332 3.87903
248.354 3.72755
248.398 3.56043
248.443 3.47551
248.487 3.42658
248.576 3.37524
248.754 3.33603
248.932 3.32132
249.288 3.30973
249.645 3.30482
251.069 3.29638
253.918 3.28602
259.615 3.26745
271.010 3.23275
293.800 3.17043
316.590 3.11580
327.985 3.09090
333.683 3.07915
336.531 3.07408
337.956 3.07426
338.312 3.07668
338.668 3.08474
338.846 3.09634
339.024 3.12867
339.113 3.17176
339.202 3.28485
339.246 3.42646
339.269 3.55567
339.291 3.76734
339.313 4.15245
339.324 4.47145
339.335 4.94908
339.347 5.71275
339.358 6.99346
339.369 9.31726
339.380 13.7164
339.390 20.1270
339.400 24.3393
339.410 20.0600
339.420 13.7171
339.430 9.66959
339.440 7.39908
339.450 6.07450
339.459 5.25780
339.479 4.36365
339.499 3.91797
339.518 3.66643
339.538 3.51132
339.577 3.33846
339.655 3.19804
339.734 3.14364
339.891 3.10200
340.047 3.08648
340.361 3.07463
340.675 3.06998
341.929 3.06351
344.438 3.05754
349.456 3.04753
359.493 3.02860
379.565 2.99317
419.710 2.92990
500.000 2.82281
529.339 2.78635
558.678 2.74762
573.347 2.72480
580.682 2.71114
588.017 2.69445
595.351 2.67180
599.019 2.65611
602.686 2.63481
604.520 2.62070
606.353 2.60290
608.187 2.57952
610.021 2.54714
610.938 2.52571
611.854 2.49913
612.771 2.46551
613.688 2.42256
614.147 2.39718
614.605 2.37002
615.063 2.34455
615.522 2.33308
615.751 2.34402
615.980 2.38273
616.209 2.48184
616.439 2.72456
616.553 2.96377
616.668 3.36350
616.782 4.06882
616.897 5.41782
617.012 8.33718
617.069 11.1755
617.126 16.0900
617.183 25.5165
617.212 33.7560
617.241 46.5690
617.269 67.9571
617.298 106.381
617.312 137.858
617.327 182.928
617.341 249.034
617.355 345.759
617.378 565.420
617.400 722.053
617.422 590.985
617.445 379.009
617.466 246.764
617.486 168.460
617.507 121.252
617.528 91.4880
617.569 57.8018
617.611 40.4172
617.652 30.3015
617.694 23.9227
617.777 16.5824
617.860 12.6455
617.943 10.2761
618.026 8.72511
618.109 7.65001
618.275 6.28023
618.441 5.46246
618.607 4.92830
618.773 4.55647
619.106 4.07840
619.438 3.78853
619.770 3.59590
620.102 3.45955
620.766 3.28039
621.431 3.16866
622.095 3.09261
622.759 3.03758
624.088 2.96332
625.417 2.91547
626.745 2.88195
628.074 2.85706
630.731 2.82228
633.388 2.79879
636.046 2.78157
638.703 2.76818
644.018 2.74816
649.332 2.73331
659.961 2.71124
670.590 2.69420
681.219 2.67975
691.848 2.66754
694.506 2.66546
697.163 2.66548
698.491 2.66833
699.820 2.67928
700.484 2.69587
700.817 2.71281
701.149 2.74405
701.481 2.81107
701.647 2.87765
701.813 2.99819
701.896 3.09910
701.979 3.25178
702.062 3.49941
702.145 3.93925
702.187 4.30134
702.228 4.83910
702.270 5.68941
702.311 7.14953
702.353 9.97255
702.374 12.4958
702.394 16.5371
702.415 23.6535
702.436 37.6037
702.446 50.1547
702.457 70.1183
702.467 103.425
702.477 159.329
702.489 253.592
702.500 316.543
702.511 253.598
702.523 159.337
702.533 102.203
702.544 68.9228
702.555 49.1301
702.565 36.8487
702.586 23.1152
702.607 16.1719
702.628 12.2185
702.650 9.76613
702.692 7.01826
702.734 5.59642
702.776 4.77148
702.818 4.24993
702.861 3.89951
702.945 3.47235
703.030 3.23242
703.114 3.08408
703.198 2.98622
703.367 2.86896
703.536 2.80407
703.874 2.73837
704.212 2.70732
704.550 2.69013
705.225 2.67253
706.576 2.65886
707.927 2.65307
710.629 2.64697
713.331 2.64290
724.140 2.63004
745.757 2.60660
788.991 2.55929
810.609 2.53351
832.226 2.50374
843.034 2.48529
848.439 2.47410
853.843 2.46040
859.247 2.44190
861.949 2.42921
864.651 2.41215
866.003 2.40094
867.354 2.38691
868.705 2.36862
870.056 2.34356
871.407 2.30698
872.082 2.28186
872.758 2.25056
873.433 2.21459
873.771 2.19981
874.109 2.20010
874.278 2.21629
874.447 2.25790
874.616 2.35322
874.784 2.57285
874.869 2.78311
874.953 3.12752
875.038 3.72486
875.122 4.84342
875.207 7.20806
875.249 9.45274
875.291 13.2507
875.333 20.2983
875.354 26.2451
875.376 35.2257
875.397 49.5065
875.418 73.6577
875.439 117.297
875.460 199.206
875.480 326.041
875.500 417.115
875.520 342.547
875.540 220.676
875.555 157.789
875.569 116.136
875.584 88.3382
875.598 69.3237
875.627 46.1077
875.656 33.2857
875.685 25.4677
875.714 20.3891
875.773 14.3682
875.831 11.0611
875.889 9.03817
875.947 7.70301
876.005 6.77194
876.121 5.57775
876.237 4.86246
876.353 4.39404
876.469 4.06797
876.702 3.64898
876.934 3.39550
877.166 3.22752
877.399 3.10888
877.863 2.95353
878.328 2.85705
878.793 2.79159
879.257 2.74436
880.187 2.68082
881.116 2.63998
882.045 2.61142
882.974 2.59023
884.833 2.56059
886.692 2.54051
890.409 2.51417
894.126 2.49684
897.843 2.48448
899.701 2.48024
901.560 2.47935
902.489 2.48303
903.419 2.49820
903.883 2.52140
904.348 2.58864
904.580 2.68152
904.696 2.77322
904.812 2.93793
904.929 3.28026
904.987 3.60982
905.045 4.18567
905.103 5.33512
905.132 6.39605
905.161 8.15919
905.190 11.4293
905.205 14.1985
905.219 18.4351
905.234 25.3350
905.248 37.4917
905.263 60.9830
905.270 81.0540
905.277 109.510
905.289 173.745
905.300 216.570
905.312 173.742
905.323 109.507
905.330 81.3817
905.337 61.8973
905.351 38.5250
905.365 26.2175
905.379 19.1497
905.393 14.7499
905.407 11.8817
905.435 8.48197
905.463 6.62485
905.491 5.51113
905.547 4.29496
905.604 3.68289
905.660 3.33254
905.772 2.96764
905.884 2.79136
905.996 2.69295
906.221 2.59259
906.669 2.51831
907.118 2.49110
908.016 2.47006
908.913 2.46126
910.708 2.45231
912.503 2.44656
919.683 2.42921
926.863 2.41324
934.043 2.39653
941.223 2.37745
944.813 2.36604
948.403 2.35219
951.993 2.33367
953.788 2.32109
955.583 2.30437
957.378 2.28014
958.276 2.26305
959.173 2.24043
960.071 2.20959
960.519 2.19052
960.968 2.17069
961.417 2.15986
961.641 2.17035
961.866 2.21646
961.978 2.27081
962.090 2.36978
962.202 2.55660
962.314 2.93476
962.370 3.27092
962.427 3.79677
962.483 4.66611
962.539 6.21668
962.595 9.30100
962.623 12.0867
962.651 16.5532
962.679 24.3202
962.693 30.4348
962.707 39.1076
962.721 51.8213
962.735 71.1204
962.749 101.317
962.763 148.824
962.782 242.947
962.800 310.962
962.819 255.766
962.837 164.860
962.855 105.605
962.873 71.5999
962.892 51.3989
962.910 38.8674
962.928 30.5702
962.946 24.8782
962.982 17.7455
963.019 13.6296
963.055 11.0355
963.127 8.05684
963.200 6.46123
963.273 5.49815
963.345 4.86702
963.418 4.42834
963.563 3.86665
963.708 3.52941
963.853 3.30791
963.998 3.15293
964.289 2.95227
964.579 2.82952
965.160 2.68866
965.740 2.61082
966.321 2.56160
967.482 2.50273
968.644 2.46839
969.805 2.44555
972.128 2.41620
974.451 2.39722
976.773 2.38321
981.419 2.36231
990.709 2.33153
1000.00 2.30528
1022.20 2.24345
1044.40 2.17299
1066.60 2.08584
1088.81 1.97178
1099.91 1.90004
1111.01 1.81540
1122.11 1.71627
1133.21 1.60697
1138.76 1.55633
1144.31 1.52289
1149.86 1.53898
1155.41 1.69408
1158.19 1.89634
1160.96 2.27794
1163.74 3.01409
1166.51 4.52178
1167.90 5.86672
1169.29 7.96649
1170.67 11.4242
1172.06 17.5263
1173.45 29.4511
1174.14 39.9736
1174.84 56.4899
1175.53 84.1825
1176.22 134.420
1176.57 175.426
1176.92 234.652
1177.26 321.757
1177.61 449.131
1178.16 741.977
1178.70 957.836
1179.25 792.132
1179.79 512.119
1180.23 354.108
1180.67 253.379
1181.11 188.559
1181.55 145.624
1182.43 94.7841
1183.31 67.3495
1184.19 50.9034
1185.08 40.2746
1186.84 27.7774
1188.60 20.9228
1190.36 16.7245
1192.12 13.9416
1193.88 11.9900
1197.41 9.47266
1200.93 7.94854
1204.45 6.94916
1205.33 6.75908
1206.21 6.60348
1206.65 6.55578
1207.09 6.58114
1207.31 6.68802
1207.42 6.81220
1207.53 7.04956
1207.64 7.55826
1207.70 8.05143
1207.75 8.91177
1207.81 10.6042
1207.84 12.1707
1207.86 14.6379
1207.89 19.2286
1207.91 23.0409
1207.92 28.2471
1207.93 36.9277
1207.95 51.4251
1207.96 77.2848
1207.97 122.781
1207.99 194.318
1208.00 239.739
1208.01 194.317
1208.03 122.778
1208.04 82.4485
1208.05 57.2890
1208.06 42.1801
1208.07 32.6734
1208.10 22.0675
1208.12 16.8556
1208.15 13.7209
1208.17 11.8445
1208.22 9.66885
1208.26 8.53485
1208.31 7.86930
1208.40 7.15635
1208.50 6.79580
1208.59 6.58867
1208.78 6.36119
1209.16 6.15543
1209.53 6.04522
1210.29 5.89695
1211.04 5.77972
1212.55 5.57971
1214.06 5.40603
1220.09 4.86991
1226.12 4.49620
1232.15 4.22118
1238.18 4.01073
1244.21 3.84528
1247.23 3.77594
1250.24 3.71604
1251.75 3.69200
1253.26 3.67991
1254.01 3.68885
1254.76 3.73931
1255.14 3.82054
1255.33 3.90445
1255.52 4.05788
1255.71 4.38498
1255.80 4.70324
1255.90 5.26790
1255.94 5.73000
1255.99 6.41522
1256.04 7.49312
1256.08 9.32999
1256.13 12.8390
1256.15 16.0078
1256.18 20.8286
1256.20 29.4914
1256.22 45.3493
1256.24 59.6871
1256.25 81.9935
1256.26 118.112
1256.27 176.018
1256.29 280.144
1256.30 348.215
1256.31 280.147
1256.33 176.024
1256.34 122.022
1256.35 89.4282
1256.36 66.0198
1256.37 51.7738
1256.39 33.8293
1256.41 24.5176
1256.43 18.6577
1256.45 14.9331
1256.49 10.7352
1256.54 8.45155
1256.58 7.13280
1256.62 6.26799
1256.66 5.69595
1256.74 4.98259
1256.83 4.57744
1256.99 4.15768
1257.16 3.95512
1257.32 3.84149
1257.66 3.72368
1258.32 3.63101
1258.98 3.59135
1260.31 3.54989
1261.64 3.52280
1264.30 3.48012
1266.95 3.44338
1272.26 3.37872
1277.57 3.32223
1288.19 3.22708
1298.82 3.14956
1320.06 3.02987
1341.30 2.94069
1383.79 2.81325
1405.04 2.76477
1415.66 2.74328
1420.97 2.73388
1423.62 2.73226
1424.95 2.74267
1425.62 2.79065
1425.78 2.83942
1425.95 2.97257
1426.03 3.14776
1426.11 3.60160
1426.16 4.17120
1426.20 5.48064
1426.22 6.95153
1426.24 9.73105
1426.25 12.5212
1426.26 16.6375
1426.27 23.5132
1426.28 35.5371
1426.29 55.0849
1426.30 68.4629
1426.31 55.0908
1426.32 35.5444
1426.33 27.4880
1426.34 21.0596
1426.35 13.9378
1426.36 10.1500
1426.37 7.95971
1426.40 5.69832
1426.43 4.62936
1426.48 3.69258
1426.53 3.30735
1426.63 3.00149
1426.74 2.88517
1426.95 2.79736
1427.15 2.76515
1427.99 2.73235
1429.65 2.72366
1431.31 2.73302
1431.73 2.74636
1432.15 2.78547
1432.35 2.83963
1432.56 2.98900
1432.67 3.18776
1432.77 3.71132
1432.82 4.37100
1432.85 4.97468
1432.87 5.97433
1432.90 7.80159
1432.91 9.33615
1432.93 11.6580
1432.94 15.3809
1432.95 21.7901
1432.97 33.7420
1432.98 56.4398
1432.99 89.1197
1433.00 110.131
1433.01 89.1298
1433.02 56.4527
1433.04 33.7537
1433.05 22.4698
1433.06 15.7634
1433.07 12.1251
1433.09 9.63746
1433.10 8.11073
1433.12 6.18903
1433.15 5.13114
1433.17 4.48959
1433.22 3.78573
1433.32 3.22428
1433.42 3.01005
1433.62 2.84805
1433.82 2.78879
1434.22 2.74448
1434.62 2.72818
1436.22 2.70990
1439.41 2.70023
1445.80 2.68814
1458.58 2.66677
1484.13 2.62761
1535.24 2.55770
1586.35 2.49381
1611.90 2.46319
1624.68 2.44976
1631.07 2.45025
1632.67 2.45675
1634.26 2.47866
1635.06 2.51065
1635.86 2.60183
1636.26 2.72744
1636.46 2.85126
1636.66 3.07229
1636.86 3.53253
1636.96 3.97510
1637.06 4.73886
1637.16 6.26769
1637.21 7.67060
1637.26 10.0008
1637.31 14.2800
1637.33 17.8913
1637.36 23.3824
1637.38 32.2473
1637.41 47.6618
1637.43 76.8351
1637.46 133.290
1637.48 211.031
1637.50 264.214
1637.52 211.037
1637.54 133.301
1637.56 95.5031
1637.57 70.7411
1637.58 53.9795
1637.60 42.3917
1637.63 27.7929
1637.66 20.0183
1637.68 15.1603
1637.71 12.1368
1637.77 8.54594
1637.83 6.62626
1637.88 5.48427
1638.00 4.26051
1638.11 3.64366
1638.22 3.29545
1638.45 2.93234
1638.68 2.75764
1638.90 2.66035
1639.36 2.56133
1640.27 2.48832
1641.17 2.46171
1642.99 2.44149
1644.81 2.43378
1648.44 2.43375
1649.35 2.44155
1650.26 2.46683
1650.71 2.50319
1651.17 2.60621
1651.39 2.74699
1651.51 2.88587
1651.62 3.13194
1651.73 3.64361
1651.79 4.13338
1651.85 4.96563
1651.90 6.62507
1651.93 8.16524
1651.96 10.6064
1651.99 15.1792
1652.00 18.8489
1652.02 24.2911
1652.03 32.7823
1652.05 46.8516
1652.06 71.7009
1652.07 117.567
1652.09 189.185
1652.10 232.864
1652.11 189.211
1652.13 117.602
1652.14 82.0694
1652.15 57.4682
1652.16 42.0572
1652.17 32.8061
1652.19 20.9274
1652.21 14.9805
1652.23 11.3410
1652.26 9.15284
1652.30 6.63406
1652.34 5.27540
1652.38 4.49436
1652.47 3.64771
1652.55 3.22936
1652.64 2.99262
1652.81 2.74848
1653.15 2.56630
1653.49 2.50043
1654.17 2.45169
1654.85 2.43373
1657.57 2.41331
1663.02 2.40183
1673.91 2.38668
1695.69 2.35822
1739.25 2.29892
1782.82 2.23332
1804.60 2.19718
1815.49 2.17831
1820.93 2.16972
1823.66 2.16991
1825.02 2.18785
1825.36 2.20809
1825.70 2.26544
1825.87 2.34360
1826.04 2.55603
1826.12 2.83429
1826.21 3.55092
1826.25 4.44386
1826.29 6.47981
1826.31 8.81563
1826.34 13.2833
1826.35 17.5461
1826.36 23.7362
1826.37 35.2371
1826.38 54.6256
1826.39 86.7888
1826.40 107.263
1826.41 86.7863
1826.42 54.6227
1826.43 33.8962
1826.45 22.9733
1826.46 16.6130
1826.47 12.6927
1826.49 8.39898
1826.51 6.25690
1826.56 4.30041
1826.60 3.46791
1826.69 2.79134
1826.78 2.52938
1826.95 2.32886
1827.13 2.25541
1827.48 2.20065
1827.83 2.18062
1829.24 2.15888
1832.06 2.14863
1837.70 2.13640
1848.99 2.11324
1871.55 2.06355
1894.11 2.00762
1905.40 1.97713
1911.04 1.96276
1913.86 1.96225
1915.27 1.98911
1915.62 2.01976
1915.97 2.10680
1916.15 2.22640
1916.32 2.55037
1916.41 2.97458
1916.46 3.37610
1916.50 4.06610
1916.54 5.40158
1916.57 6.59300
1916.59 8.51274
1916.61 11.8819
1916.63 18.5381
1916.64 24.5182
1916.65 34.0518
1916.67 50.0163
1916.68 77.9450
1916.69 123.090
1916.70 153.850
1916.71 123.102
1916.72 77.9596
1916.74 46.4542
1916.75 30.0430
1916.76 20.4268
1916.78 15.2121
1916.79 11.6855
1916.80 9.51618
1916.83 6.87876
1916.86 5.36220
1916.88 4.44779
1916.94 3.46270
1916.99 2.95427
1917.04 2.66781
1917.15 2.36686
1917.36 2.13738
1917.58 2.05302
1918.00 1.99017
1918.43 1.96682
1920.13 1.93984
1923.54 1.92348
1930.36 1.89956
1944.00 1.85058
1957.64 1.79643
1964.46 1.76786
1967.87 1.75685
1969.57 1.76684
1970.00 1.78315
1970.42 1.83236
1970.64 1.90104
1970.85 2.09036
1970.96 2.34297
1971.06 2.99663
1971.12 3.83023
1971.14 4.59361
1971.17 5.79749
1971.20 8.05155
1971.22 12.5097
1971.24 17.0506
1971.25 24.1559
1971.26 36.7135
1971.28 59.9211
1971.29 96.0800
1971.30 117.924
1971.31 96.0897
1971.32 59.9336
1971.34 35.4680
1971.35 22.8061
1971.37 15.8807
1971.38 11.8007
1971.41 7.51811
1971.44 5.46390
1971.47 4.33148
1971.49 3.64404
1971.55 2.88901
1971.66 2.28584
1971.77 2.05526
1972.00 1.88038
1972.22 1.81574
1972.67 1.76686
1973.12 1.74796
1974.91 1.72273
1978.49 1.70047
1985.66 1.66129
2000.00 1.57569
2014.25 1.47629
2028.50 1.35898
2042.75 1.22082
2057.00 1.06464
2064.13 0.987415
2071.25 0.925680
2078.38 0.913083
2085.50 1.04244
2089.06 1.23478
2092.63 1.60942
2096.19 2.33991
2099.75 3.82722
2101.53 5.13652
2103.31 7.14774
2105.09 10.3777
2106.88 15.8802
2108.66 26.0494
2109.55 34.5190
2110.44 47.0681
2111.33 66.4972
2112.22 97.9581
2113.11 151.441
2114.00 243.947
2115.00 409.074
2116.00 535.606
2117.00 448.872
2118.00 293.846
2119.04 186.228
2120.08 125.208
2121.12 89.5668
2122.15 67.4933
2123.19 52.9738
2124.23 42.9569
2126.31 30.3799
2128.38 23.0366
2130.46 18.3427
2134.61 12.8150
2138.77 9.74870
2140.84 8.72927
2142.92 8.02169
2145.00 7.81853
2146.04 8.13357
2147.07 9.11953
2148.11 11.7408
2148.63 14.4822
2149.15 19.3651
2149.67 28.8324
2149.93 37.0742
2150.19 49.7320
2150.45 70.3948
2150.71 106.096
2150.97 172.896
2151.23 302.587
2151.46 500.785
2151.70 650.262
2151.94 542.568
2152.17 354.811
2152.36 248.836
2152.55 180.569
2152.74 136.435
2152.93 106.962
2153.31 71.8599
2153.69 52.7710
2154.07 41.2134
2154.45 33.6854
2155.21 24.7391
2155.97 19.7440
2156.73 16.6305
2158.25 13.0176
2159.77 11.0059
2161.29 9.72624
2164.32 8.17363
2167.36 7.24589
2170.40 6.61555
2171.92 6.36918
2173.44 6.16074
2174.20 6.07466
2174.95 6.01840
2175.33 6.02485
2175.71 6.12348
2175.90 6.29455
2176.09 6.79399
2176.19 7.46248
2176.24 8.10654
2176.28 9.19036
2176.33 11.3309
2176.36 13.2465
2176.38 16.1759
2176.40 21.4783
2176.43 31.2921
2176.44 40.2676
2176.45 54.3990
2176.46 77.6482
2176.47 115.648
2176.49 179.646
2176.50 225.851
2176.51 179.670
2176.53 115.675
2176.54 75.2422
2176.55 52.9607
2176.57 38.4990
2176.58 30.1339
2176.60 20.3470
2176.63 15.3964
2176.65 12.5764
2176.68 10.8261
2176.73 8.86279
2176.78 7.84624
2176.83 7.25258
2176.93 6.62036
2177.13 6.12432
2177.33 5.92917
2177.73 5.75911
2178.13 5.67361
2178.92 5.56476
2179.72 5.48146
2181.32 5.34005
2182.92 5.21568
2189.31 4.81449
2202.09 4.27470
2214.88 3.91933
2227.66 3.66351
2253.22 3.31197
2278.79 3.07262
2304.35 2.88879
2329.92 2.73032
2342.70 2.65213
2355.48 2.56606
2361.88 2.51392
2365.07 2.48246
2368.27 2.44408
2371.46 2.39251
2373.06 2.35739
2374.66 2.31074
2376.26 2.24315
2377.06 2.19563
2377.85 2.13298
2378.65 2.04830
2379.45 1.94406
2379.85 1.91890
2380.05 1.95186
2380.25 2.08293
2380.45 2.50336
2380.55 3.00284
2380.65 3.97576
2380.75 6.12823
2380.80 8.21788
2380.85 11.7946
2380.90 18.4807
2380.93 24.1320
2380.95 32.6513
2380.98 46.1272
2381.00 68.6792
2381.03 108.698
2381.05 179.952
2381.08 299.650
2381.10 387.226
2381.13 323.286
2381.15 209.673
2381.17 143.280
2381.19 101.017
2381.22 74.6370
2381.24 58.1326
2381.28 38.2741
2381.32 27.6441
2381.37 21.3067
2381.41 17.2168
2381.50 12.4044
2381.58 9.75968
2381.67 8.13293
2381.75 7.05072
2381.84 6.28814
2382.01 5.29437
2382.18 4.69159
2382.36 4.28993
2382.53 4.00528
2382.87 3.63079
2383.22 3.39849
2383.56 3.24030
2383.91 3.12642
2384.60 2.97275
2385.28 2.87373
2386.66 2.75240
2388.04 2.67913
2389.42 2.62870
2392.17 2.56039
2394.93 2.51278
2397.68 2.47490
2403.19 2.41223
2414.21 2.30063
2425.23 2.17850
2430.74 2.10595
2436.25 2.02078
2441.77 1.91761
2447.28 1.78973
2450.03 1.71489
2452.79 1.63421
2455.54 1.55502
2458.30 1.50463
2459.67 1.51576
2461.05 1.58806
2462.43 1.79325
2463.81 2.30980
2464.50 2.81925
2465.18 3.66262
2465.87 5.12354
2466.56 7.82530
2466.91 10.0700
2467.25 13.3681
2467.60 18.4506
2467.94 26.6635
2468.28 40.9740
2468.63 68.1242
2468.80 91.2645
2468.97 126.010
2469.14 179.558
2469.32 262.358
2469.56 437.944
2469.80 571.282
2470.04 476.739
2470.28 310.853
2470.48 217.958
2470.67 158.076
2470.86 119.118
2471.05 92.9722
2471.43 61.6782
2471.81 44.5508
2472.20 34.1703
2472.58 27.4250
2473.34 19.4093
2474.11 14.9577
2474.87 12.2063
2475.64 10.3670
2476.40 9.06610
2477.93 7.37028
2479.46 6.33039
2480.99 5.63466
2482.51 5.14042
2485.57 4.48863
2488.63 4.08052
2491.68 3.80160
2494.74 3.59882
2500.86 3.32263
2506.97 3.14168
2513.08 3.01222
2519.20 2.91365
2531.43 2.76995
2543.66 2.66618
2568.11 2.51514
2592.57 2.39786
2617.02 2.29099
2629.25 2.23507
2641.48 2.16938
2647.60 2.12620
2650.65 2.09846
2653.71 2.06273
2656.77 2.01160
2658.30 1.97501
2659.82 1.92469
2661.35 1.84913
2662.12 1.79457
2662.88 1.72102
2663.65 1.61811
2664.41 1.47976
2664.79 1.42336
2664.98 1.43246
2665.17 1.52909
2665.36 1.88760
2665.46 2.33207
2665.56 3.20567
2665.65 5.12711
2665.70 6.96188
2665.75 9.94780
2665.79 15.3968
2665.82 19.8105
2665.84 26.1869
2665.87 35.7132
2665.89 50.4624
2665.91 74.0261
2665.94 110.159
2665.97 186.796
2666.00 244.758
2666.03 207.965
2666.06 136.859
2666.09 99.4754
2666.11 74.3596
2666.13 57.4491
2666.16 45.7861
2666.20 31.1937
2666.25 23.1902
2666.30 18.1561
2666.34 14.9040
2666.43 10.9358
2666.53 8.70215
2666.62 7.30394
2666.71 6.36092
2666.81 5.68894
2666.99 4.80569
2667.18 4.25828
2667.36 3.88948
2667.55 3.62698
2667.92 3.27676
2668.29 3.05644
2669.04 2.79638
2669.78 2.64795
2670.52 2.55208
2672.01 2.43456
2673.50 2.36434
2674.98 2.31676
2677.96 2.25446
2680.93 2.21342
2683.91 2.18273
2689.85 2.13650
2701.75 2.06839
2713.65 2.01140
2737.44 1.90484
2761.23 1.79571
2785.02 1.67679
2808.81 1.54058
2820.71 1.46145
2826.66 1.41736
2832.61 1.36902
2838.55 1.31568
2844.50 1.26338
2847.48 1.25563
2848.96 1.27387
2850.45 1.33668
2851.19 1.40558
2851.94 1.52641
2852.68 1.74847
2853.42 2.18791
2853.80 2.57491
2854.17 3.17775
2854.54 4.17353
2854.91 5.95069
2855.28 9.53739
2855.47 12.8258
2855.66 18.2277
2855.84 27.8941
2855.93 35.7911
2856.03 47.3751
2856.12 65.1299
2856.21 93.7360
2856.31 142.161
2856.40 224.698
2856.50 365.464
2856.60 464.834
2856.70 378.477
2856.80 240.961
2856.92 141.136
2857.04 89.6157
2857.15 61.2139
2857.27 44.5927
2857.39 33.9824
2857.50 26.9384
2857.73 18.3887
2857.97 13.5794
2858.20 10.6145
2858.66 7.28892
2859.13 5.54176
2859.60 4.50551
2860.06 3.83270
2860.53 3.36968
2861.46 2.78251
2862.39 2.43297
2863.32 2.20432
2864.25 2.04431
2866.11 1.83620
2867.97 1.70672
2871.70 1.55211
2875.42 1.45981
2879.15 1.39592
2886.59 1.30929
2901.49 1.21893
2916.38 1.23265
2931.28 1.45900
2938.73 1.74569
2946.18 2.26714
2953.62 3.22702
2961.07 5.07329
2964.79 6.62667
2968.52 8.92645
2972.24 12.4611
2974.10 14.9727
2974.57 15.7250
2975.04 16.5745
2975.27 17.0879
2975.50 17.7966
2975.62 18.3963
2975.73 19.5864
2975.79 20.8711
2975.85 23.6669
2975.88 26.5653
2975.91 32.0809
2975.92 37.0739
2975.94 44.2634
2975.95 56.6653
2975.97 76.3274
2975.98 111.867
2976.00 134.691
2976.02 111.947
2976.03 76.4800
2976.05 55.8404
2976.07 43.3039
2976.08 35.8600
2976.10 31.2205
2976.13 26.1074
2976.16 23.6208
2976.22 21.3342
2976.29 20.4226
2976.41 19.8299
2976.54 19.7618
2976.79 20.0516
2977.04 20.5209
2977.55 21.6452
2978.05 22.9084
2980.07 29.1872
2982.09 38.0158
2984.11 50.7484
2986.13 69.7447
2988.15 99.0779
2990.17 145.868
2992.19 220.999
2994.85 373.586
2997.50 492.975
3000.16 416.219
3002.81 274.550
3004.70 200.838
3006.60 150.578
3008.49 116.417
3010.38 92.7010
3014.17 63.2641
3017.96 46.5635
3021.74 36.2048
3025.53 29.3291
3033.10 20.9996
3040.68 16.2840
3048.25 13.3191
3055.82 11.3112
3063.40 9.87432
3078.54 7.97187
3093.69 6.77681
3108.83 5.95608
3116.41 5.63374
3120.19 5.48926
3122.09 5.42228
3123.03 5.39628
3123.51 5.40882
3123.74 5.50632
3123.86 5.84616
3123.92 6.76983
3123.95 8.65127
3123.97 11.1878
3123.98 16.5314
3123.99 23.5140
3124.00 27.7136
3124.01 23.5167
3124.02 16.5344
3124.04 10.1121
3124.06 7.75051
3124.10 6.27694
3124.18 5.64444
3124.34 5.42516
3124.66 5.35218
3125.29 5.31374
3126.56 5.26665
3129.11 5.18260
3134.19 5.02584
3144.36 4.74440
3164.70 4.27201
3185.04 3.86977
3205.38 3.48915
3225.72 3.07493
3235.89 2.82730
3246.06 2.52418
3251.15 2.33978
3256.23 2.12385
3261.32 1.86685
3266.40 1.56171
3271.49 1.23079
3274.03 1.10471
3276.57 1.11883
3277.85 1.26341
3279.12 1.61188
3280.39 2.36426
3281.02 3.01676
3281.66 3.97780
3282.30 5.42218
3282.93 7.64515
3283.57 11.1862
3284.20 17.0822
3284.84 27.5573
3285.47 47.6811
3285.79 64.8807
3286.11 90.6062
3286.43 129.932
3286.74 189.915
3287.22 328.607
3287.70 443.395
3288.18 382.088
3288.66 256.778
3289.19 162.358
3289.72 109.806
3290.25 79.5709
3290.78 60.9835
3291.32 48.7665
3291.85 40.3228
3292.91 29.6871
3293.97 23.4249
3295.04 19.3919
3297.16 14.5994
3299.29 11.9075
3301.42 10.2082
3303.55 9.04713
3305.67 8.20732
3309.93 7.07633
3314.18 6.35096
3318.43 5.84474
3322.69 5.46984
3331.19 4.94613
3339.70 4.59083
3356.71 4.11887
3373.73 3.79413
3390.74 3.53041
3407.76 3.28418
3416.26 3.15746
3420.52 3.09539
3422.64 3.08173
3423.71 3.14591
3423.97 3.22354
3424.24 3.44356
3424.37 3.73858
3424.51 4.51580
3424.57 5.50282
3424.64 7.85183
3424.67 10.4937
3424.70 15.9732
3424.72 21.3644
3424.74 29.9154
3424.75 46.4178
3424.77 75.6806
3424.79 119.157
3424.80 148.080
3424.82 119.113
3424.83 75.6262
3424.85 46.3676
3424.86 30.5797
3424.88 21.7383
3424.89 16.7075
3424.93 10.9244
3424.96 8.19174
3425.02 5.68503
3425.08 4.63388
3425.21 3.78771
3425.33 3.46355
3425.58 3.21340
3425.84 3.11892
3426.84 3.01134
3428.85 2.95195
3432.87 2.86950
3436.88 2.78508
3440.90 2.69281
3444.92 2.58978
3448.94 2.47275
3452.96 2.33918
3454.97 2.27407
3455.97 2.28097
3456.47 2.44220
3456.60 2.61584
3456.72 3.07817
3456.79 3.66935
3456.85 5.11666
3456.88 6.81346
3456.91 10.3070
3456.93 13.8133
3456.94 19.4628
3456.96 30.7553
3456.97 40.1877
3456.97 53.1872
3456.99 84.0269
3457.00 104.174
3457.01 84.0724
3457.03 53.2436
3457.04 32.8561
3457.05 22.2511
3457.07 16.0950
3457.08 12.3086
3457.11 8.06303
3457.13 6.04975
3457.19 4.18081
3457.24 3.40140
3457.34 2.75732
3457.45 2.50521
3457.66 2.30643
3457.87 2.22748
3458.71 2.11791
3460.39 2.01482
3463.76 1.81567
3467.12 1.57979
3470.48 1.29844
3473.85 0.997917
3475.53 0.893134
3477.21 0.937677
3478.05 1.10345
3478.89 1.47979
3479.73 2.26970
3480.16 2.94603
3480.58 3.93370
3481.00 5.40873
3481.42 7.65652
3481.84 11.2171
3482.26 17.0881
3482.68 27.4109
3483.10 46.9228
3483.31 63.4166
3483.52 87.6458
3483.73 124.063
3483.94 178.795
3484.27 310.220
3484.60 419.023
3484.93 361.471
3485.26 243.365
3485.51 177.521
3485.76 133.072
3486.01 103.183
3486.26 82.5739
3486.76 57.1453
3487.25 42.7694
3487.75 33.8165
3488.25 27.8491
3489.24 20.5741
3490.24 16.4042
3491.23 13.7567
3492.23 11.9445
3493.23 10.6383
3495.22 8.89264
3497.21 7.78889
3499.20 7.03198
3501.19 6.48218
3505.17 5.73697
3509.15 5.25492
3517.11 4.66316
3525.08 4.30716
3533.04 4.06369
3537.02 3.96735
3541.00 3.88363
3544.99 3.81527
3546.98 3.81034
3547.97 3.91065
3548.22 4.02392
3548.47 4.33962
3548.60 4.76047
3548.72 5.84422
3548.78 7.17686
3548.84 10.2997
3548.87 13.7042
3548.91 20.4870
3548.92 26.8860
3548.94 36.5377
3548.95 54.0619
3548.97 84.1055
3548.98 132.890
3549.00 164.343
3549.02 132.955
3549.03 84.1878
3549.04 62.0371
3549.05 46.3694
3549.07 35.8004
3549.08 28.5216
3549.10 19.6232
3549.12 14.6955
3549.16 9.79835
3549.21 7.56044
3549.30 5.64726
3549.38 4.87557
3549.56 4.26946
3549.74 4.04054
3550.09 3.86432
3550.44 3.79689
3551.84 3.71318
3554.66 3.65507
3560.28 3.57330
3565.90 3.50188
3571.52 3.43641
3594.02 3.20964
3616.51 3.00871
3639.00 2.80978
3661.49 2.59850
3672.74 2.48761
3683.98 2.37963
3695.23 2.29631
3706.47 2.31554
3712.09 2.44278
3717.72 2.79044
3720.53 3.15387
3723.34 3.83303
3724.75 4.45501
3725.45 4.92862
3726.15 5.61925
3726.85 6.76200
3727.21 7.69013
3727.56 9.11537
3727.91 11.6054
3728.09 13.6848
3728.26 16.8883
3728.44 22.4024
3728.52 26.8347
3728.61 33.2615
3728.70 43.3954
3728.79 60.4874
3728.88 91.9884
3728.92 117.681
3728.96 152.436
3729.03 225.607
3729.10 260.975
3729.17 193.285
3729.24 112.110
3729.31 65.3025
3729.37 40.2544
3729.44 26.4293
3729.51 18.3586
3729.57 13.3906
3729.64 10.1936
3729.77 6.59730
3729.91 4.83709
3730.04 3.92259
3730.31 3.18790
3730.58 3.04076
3730.85 3.10943
3731.38 3.46432
3732.45 4.38349
3733.52 5.40553
3735.67 7.99264
3737.81 12.0228
3739.95 19.0527
3742.10 32.6628
3743.17 44.4515
3744.24 62.3464
3745.31 90.2666
3746.38 134.034
3747.89 229.206
3749.40 306.347
3750.91 261.983
3752.42 175.079
3753.42 132.001
3754.42 101.612
3756.43 65.2225
3758.43 45.9367
3760.43 34.7001
3762.44 27.5967
3764.44 22.8172
3768.45 16.9431
3772.46 13.5697
3776.46 11.4277
3784.48 8.91689
3792.49 7.52122
3800.50 6.64452
3808.52 6.04646
3816.53 5.61351
3832.56 5.02873
3848.59 4.65042
3864.62 4.38337
3880.64 4.18271
3912.70 3.89544
3944.76 3.69249
3976.81 3.53465
3992.84 3.46650
4000.85 3.43557
4004.86 3.42546
4006.86 3.43986
4007.87 3.52123
4008.12 3.60548
4008.37 3.83509
4008.49 4.13665
4008.62 4.91512
4008.68 5.88229
4008.74 8.11130
4008.77 10.6332
4008.81 15.5317
4008.82 20.1406
4008.84 27.0708
4008.85 39.5892
4008.87 59.9964
4008.88 94.9098
4008.90 116.525
4008.92 94.8935
4008.93 59.9760
4008.94 45.1835
4008.95 34.0345
4008.98 21.2600
4009.00 14.8621
4009.02 11.3112
4009.06 7.77749
4009.11 6.16155
4009.20 4.78038
4009.28 4.22395
4009.46 3.78823
4009.64 3.62417
4010.34 3.45519
4011.75 3.40607
4014.56 3.38421
4020.19 3.36031
4031.45 3.31847
4042.72 3.27840
4048.35 3.25929
4051.16 3.25213
4052.57 3.25780
4053.27 3.29637
4053.62 3.44739
4053.80 3.96731
4053.84 4.42569
4053.89 5.49289
4053.91 6.64704
4053.93 8.92179
4053.95 14.1945
4053.97 19.5772
4053.98 28.3666
4053.99 43.6672
4054.00 53.5515
4054.01 43.6888
4054.02 28.3937
4054.04 17.8414
4054.05 12.5490
4054.08 7.69261
4054.11 5.79928
4054.13 4.89051
4054.19 4.08504
4054.24 3.75068
4054.46 3.38101
4054.89 3.27411
4055.75 3.24282
4057.48 3.22945
4060.94 3.21563
4067.85 3.19145
4081.67 3.14418
4109.31 3.04913
4164.59 2.84167
4192.23 2.71814
4219.87 2.56933
4233.69 2.48059
4247.51 2.37842
4254.42 2.32116
4261.33 2.25949
4268.24 2.19752
4271.69 2.18872
4272.56 2.20816
4273.42 2.27973
4273.85 2.38542
4274.28 2.68230
4274.50 3.07764
4274.72 4.10958
4274.82 5.39078
4274.88 6.54733
4274.93 8.43387
4274.99 11.8046
4275.01 14.5696
4275.04 18.6560
4275.07 25.0014
4275.09 35.4430
4275.12 53.6983
4275.15 86.4439
4275.17 136.096
4275.20 170.719
4275.23 136.148
4275.25 86.5099
4275.27 59.5064
4275.29 42.9727
4275.32 31.8023
4275.34 24.7524
4275.38 16.2145
4275.42 11.7471
4275.46 9.03493
4275.50 7.34997
4275.58 5.38408
4275.66 4.33434
4275.74 3.72300
4275.90 3.06631
4276.23 2.55229
4276.55 2.35835
4277.20 2.20837
4277.85 2.14913
4280.45 2.06600
4285.64 1.98463
4290.84 1.90807
4296.03 1.82659
4306.42 1.64334
4316.81 1.43508
4322.01 1.33050
4327.20 1.24376
4332.40 1.21585
4337.59 1.35854
4340.19 1.58193
4342.79 2.01877
4345.38 2.86299
4347.98 4.54290
4349.28 5.98241
4350.58 8.13397
4351.88 11.4592
4353.18 16.8189
4354.48 25.9615
4355.77 42.6502
4356.42 56.2521
4357.07 75.7188
4357.72 104.009
4358.37 144.997
4359.49 250.248
4360.60 337.156
4361.72 290.653
4362.83 195.584
4363.81 135.702
4364.79 97.9785
4365.77 74.0204
4366.75 58.2340
4368.71 39.5783
4370.67 29.4363
4372.62 23.2841
4374.58 19.2487
4378.50 14.3888
4382.42 11.6353
4386.33 9.89380
4390.25 8.70525
4394.17 7.84775
4402.00 6.70024
4409.84 5.97101
4417.67 5.46727
4425.50 5.09777
4441.17 4.58837
4456.84 4.24774
4488.18 3.79802
4519.51 3.47785
4550.85 3.18692
4566.52 3.02965
4582.18 2.85038
4590.02 2.74866
4597.85 2.63799
4605.69 2.52613
4607.65 2.50511
4609.60 2.50273
4610.58 2.52679
4611.56 2.62080
4612.05 2.76038
4612.54 3.14681
4612.79 3.65261
4612.91 4.13004
4613.03 4.93499
4613.15 6.47826
4613.22 7.81771
4613.28 9.92630
4613.34 13.5026
4613.40 20.1990
4613.43 25.9989
4613.46 34.4508
4613.49 48.0337
4613.52 69.2442
4613.56 108.945
4613.60 136.148
4613.64 108.971
4613.68 69.2778
4613.71 46.4608
4613.75 32.4901
4613.78 23.8918
4613.81 18.5098
4613.88 12.1731
4613.95 8.94311
4614.02 7.04732
4614.08 5.87693
4614.22 4.54030
4614.35 3.84298
4614.49 3.43417
4614.76 2.99822
4615.30 2.65854
4615.84 2.52840
4616.92 2.42363
4618.00 2.37880
4620.16 2.33670
4622.32 2.32114
4626.63 2.36251
4630.95 2.59076
4635.27 3.32785
4637.43 4.17435
4639.59 5.76572
4641.74 8.99602
4642.82 11.8781
4643.90 16.3837
4644.98 23.7967
4646.06 36.7153
4647.14 60.7474
4648.22 107.235
4649.26 183.456
4650.30 245.911
4651.34 211.496
4652.38 142.326
4653.58 88.8723
4654.79 59.8597
4655.99 43.4631
4657.19 33.4912
4658.39 27.0034
4659.59 22.5514
4662.00 16.9740
4664.40 13.7116
4666.81 11.6175
4671.62 9.13776
4676.42 7.74676
4681.23 6.86784
4686.04 6.26509
4690.85 5.82600
4700.47 5.22250
4710.09 4.80576
4714.89 4.62242
4717.30 4.52694
4719.70 4.42048
4722.11 4.28803
4723.31 4.20170
4724.51 4.08919
4725.71 3.92769
4726.31 3.81363
4726.92 3.66100
4727.52 3.44631
4728.12 3.13967
4728.42 2.97236
4728.72 2.98359
4728.87 3.36447
4729.02 4.88084
4729.09 7.00088
4729.13 8.94366
4729.17 11.9021
4729.21 16.8602
4729.24 25.1215
4729.28 40.4259
4729.32 68.5931
4729.36 120.039
4729.40 164.425
4729.44 145.395
4729.48 100.393
4729.52 66.9606
4729.57 47.3723
4729.61 35.7722
4729.65 28.4769
4729.70 23.6138
4729.74 20.2081
4729.82 15.8506
4729.91 13.2449
4730.00 11.5434
4730.17 9.50250
4730.34 8.33004
4730.51 7.58194
4730.85 6.69338
4731.20 6.18483
4731.54 5.85819
4732.23 5.46122
4732.92 5.22790
4733.60 5.07283
4734.98 4.87595
4736.35 4.75245
4737.72 4.66486
4740.47 4.54317
4743.22 4.45742
4745.97 4.39022
4751.46 4.28543
4762.46 4.13182
4773.45 4.01150
4784.44 3.90306
4795.43 3.78574
4800.93 3.70865
4803.68 3.65786
4806.42 3.59065
4809.17 3.49142
4810.55 3.41882
4811.92 3.31743
4813.29 3.16354
4813.98 3.05172
4814.67 2.90068
4815.35 2.68980
4816.04 2.40679
4816.39 2.28941
4816.73 2.47658
4816.90 3.12138
4816.99 3.89499
4817.07 5.35692
4817.16 8.38917
4817.20 11.1093
4817.24 15.3740
4817.29 22.3811
4817.33 34.5584
4817.37 57.0296
4817.41 98.8548
4817.46 170.665
4817.50 231.342
4817.54 200.706
4817.59 136.360
4817.63 90.1216
4817.68 62.7534
4817.72 46.5640
4817.76 36.5875
4817.81 29.7788
4817.85 25.1209
4817.94 19.0969
4818.03 15.5119
4818.12 13.1835
4818.30 10.3999
4818.48 8.82166
4818.66 7.83013
4818.83 7.15242
4819.01 6.66269
4819.37 6.00478
4819.72 5.58791
4820.08 5.30058
4820.44 5.09093
4821.15 4.80559
4821.86 4.62098
4823.29 4.39522
4824.71 4.26151
4826.14 4.17221
4828.99 4.05839
4831.84 3.98684
4834.69 3.93617
4840.39 3.86597
4846.09 3.81672
4851.79 3.77826
4863.19 3.71847
4885.99 3.63123
4908.79 3.56426
4954.40 3.45893
5000.00 3.37327
5041.49 3.30335
5082.99 3.23491
5103.73 3.19871
5124.48 3.15832
5134.85 3.13489
5145.23 3.10722
5155.60 3.07132
5160.79 3.04817
5163.38 3.03842
5164.68 3.05086
5165.32 3.12659
5165.65 3.41555
5165.81 4.36922
5165.85 5.18943
5165.89 6.96401
5165.93 12.2703
5165.95 19.2300
5165.97 34.9605
5165.99 54.1409
5166.00 66.9377
5166.01 54.1642
5166.03 34.9896
5166.05 19.7703
5166.07 12.7736
5166.10 7.41884
5166.14 5.47653
5166.18 4.57715
5166.33 3.48145
5166.62 3.13824
5167.22 3.03790
5168.41 3.00195
5170.80 2.97012
5173.18 2.93572
5175.56 2.88887
5177.94 2.81756
5179.14 2.76496
5180.33 2.69237
5181.52 2.58611
5182.71 2.42378
5183.31 2.32204
5183.90 2.27954
5184.20 2.42201
5184.50 3.14209
5184.65 4.28221
5184.72 5.40602
5184.80 7.27517
5184.87 10.6846
5184.95 17.2794
5184.98 22.9890
5185.02 31.6416
5185.06 45.0850
5185.09 66.4075
5185.15 113.595
5185.20 152.092
5185.25 131.402
5185.31 88.7248
5185.36 59.9622
5185.41 42.5615
5185.46 31.9959
5185.51 25.3517
5185.57 20.7793
5185.62 17.6172
5185.72 13.5078
5185.82 11.0315
5185.93 9.43867
5186.13 7.53370
5186.34 6.45618
5186.55 5.78068
5186.96 4.98776
5187.37 4.54526
5187.78 4.26572
5188.61 3.93527
5189.44 3.74709
5190.26 3.62608
5191.91 3.47921
5193.56 3.39296
5195.21 3.33574
5198.52 3.26334
5201.82 3.21810
5205.12 3.18603
5211.72 3.14103
5218.33 3.10820
5224.93 3.08093
5238.14 3.03293
5251.35 2.98609
5264.56 2.93511
5277.77 2.87520
5284.37 2.84047
5287.67 2.82389
5289.32 2.82552
5290.15 2.86667
5290.56 3.03721
5290.77 3.63134
5290.82 4.16681
5290.87 5.40086
5290.90 6.77776
5290.92 9.55989
5290.95 16.3017
5290.96 23.5374
5290.97 36.1388
5290.99 56.2870
5291.00 69.4442
5291.01 56.3039
5291.03 36.1599
5291.04 22.1551
5291.06 14.7914
5291.09 8.47300
5291.12 6.04252
5291.15 4.88407
5291.21 3.86265
5291.27 3.44524
5291.50 2.97706
5291.98 2.84045
5292.93 2.79811
5294.84 2.77522
5298.65 2.74355
5306.27 2.67374
5313.90 2.58449
5321.52 2.46424
5325.33 2.38682
5329.14 2.29350
5332.95 2.18037
5336.76 2.04627
5340.58 1.90930
5342.48 1.87077
5344.39 1.91919
5346.29 2.24579
5347.25 2.69297
5348.20 3.60936
5349.15 5.61703
5349.63 7.50773
5350.10 10.5872
5350.58 15.9172
5351.06 25.7904
5351.29 33.9331
5351.53 45.7383
5351.77 63.1270
5352.01 88.6922
5352.40 152.892
5352.80 206.381
5353.20 178.486
5353.59 120.681
5353.93 84.7182
5354.28 61.8912
5354.62 47.2488
5354.96 37.5599
5355.64 26.0253
5356.32 19.7213
5357.01 15.8775
5357.69 13.3514
5359.05 10.2989
5360.42 8.56431
5361.78 7.46679
5363.15 6.71743
5364.51 6.17693
5367.25 5.45449
5369.98 4.99737
5372.71 4.68349
5375.44 4.45517
5380.90 4.14555
5386.36 3.94520
5391.82 3.80445
5397.28 3.69965
5408.20 3.55236
5419.12 3.45171
5430.04 3.37640
5440.96 3.31589
5462.81 3.21710
5484.65 3.12214
5495.57 3.06234
5501.03 3.02332
5506.49 2.97187
5511.95 2.89598
5514.69 2.84040
5517.42 2.76270
5520.15 2.64432
5521.51 2.55795
5522.88 2.44060
5524.24 2.27487
5525.61 2.04482
5526.29 1.93613
5526.97 2.02947
5527.31 2.46294
5527.48 3.00355
5527.65 4.05388
5527.83 6.26317
5527.91 8.25698
5528.00 11.4074
5528.08 16.7111
5528.17 25.9608
5528.25 43.3173
5528.29 57.6618
5528.34 77.1980
5528.42 133.458
5528.50 180.818
5528.58 157.107
5528.66 106.760
5528.74 73.8114
5528.81 53.5657
5528.89 40.8114
5528.96 32.4362
5529.11 22.5296
5529.26 17.1955
5529.41 13.9410
5529.56 11.8187
5529.85 9.24930
5530.15 7.78983
5530.45 6.86459
5530.74 6.23202
5531.04 5.77646
5531.63 5.16437
5532.23 4.77624
5532.82 4.50948
5533.41 4.31566
5534.60 4.05261
5535.79 3.88306
5536.98 3.76451
5538.16 3.67698
5540.54 3.55588
5542.91 3.47561
5545.29 3.41805
5547.66 3.37444
5552.41 3.31180
5557.16 3.26805
5566.66 3.20840
5576.16 3.16715
5585.66 3.13501
5604.66 3.08415
5642.65 3.00243
5680.65 2.92340
5718.65 2.82908
5737.64 2.76788
5756.64 2.68787
5775.64 2.57193
5785.14 2.48876
5794.64 2.37474
5799.39 2.29945
5804.14 2.20570
5808.89 2.08540
5813.64 1.92578
5816.01 1.82538
5818.39 1.70757
5820.76 1.57112
5823.14 1.42330
5825.51 1.31175
5826.70 1.33016
5827.89 1.51397
5828.48 1.74653
5829.07 2.17055
5829.67 2.95061
5830.26 4.43971
5830.56 5.68355
5830.85 7.50695
5831.15 10.2659
5831.45 14.5913
5831.74 21.7649
5832.04 34.3669
5832.34 58.0177
5832.63 104.040
5832.92 179.377
5833.20 241.608
5833.48 208.135
5833.77 139.973
5833.95 106.799
5834.13 83.0338
5834.49 54.0378
5834.86 38.3797
5835.22 29.1471
5835.59 23.2332
5835.95 19.2180
5836.68 14.2365
5837.40 11.3268
5838.13 9.44817
5839.59 7.15947
5841.04 5.74789
5842.50 4.62098
5843.22 4.02124
5843.59 3.67612
5843.95 3.28145
5844.31 2.82920
5844.68 2.43534
5844.86 2.52122
5845.04 3.65596
5845.13 5.58171
5845.18 7.45622
5845.22 10.4331
5845.27 15.5697
5845.31 24.4538
5845.34 31.5526
5845.36 40.8821
5845.38 54.3763
5845.40 72.5926
5845.45 130.481
5845.50 184.375
5845.52 184.141
5845.55 165.878
5845.60 116.685
5845.63 92.3139
5845.66 73.9625
5845.71 51.0861
5845.77 38.1661
5845.83 30.2701
5845.89 25.0218
5845.95 21.4507
5846.07 16.9012
5846.19 14.1582
5846.31 12.3731
5846.54 10.1916
5846.78 8.91298
5847.02 8.07932
5847.49 7.04483
5847.96 6.41876
5848.44 5.99212
5849.38 5.42895
5850.33 5.05665
5851.27 4.77991
5853.17 4.36510
5855.06 4.02307
5856.95 3.65193
5857.90 3.39880
5858.85 3.01243
5859.32 2.70926
5859.79 2.26707
5860.03 1.99901
5860.27 1.88630
5860.38 2.22465
5860.50 3.83506
5860.56 6.21045
5860.62 11.8673
5860.65 17.7304
5860.68 27.5755
5860.71 46.2662
5860.74 80.3069
5860.77 142.599
5860.80 197.890
5860.83 175.628
5860.86 121.592
5860.88 95.5609
5860.90 76.3299
5860.94 52.4697
5860.97 38.8981
5861.01 30.5760
5861.05 24.9956
5861.09 21.2458
5861.16 16.4813
5861.24 13.6142
5861.31 11.7728
5861.46 9.53709
5861.61 8.25828
5861.76 7.43817
5862.05 6.45418
5862.35 5.88646
5862.65 5.51659
5863.25 5.06065
5863.84 4.78663
5864.44 4.60061
5865.63 4.35801
5866.82 4.20075
5868.01 4.08678
5870.40 3.92652
5872.78 3.81579
5875.16 3.73850
5877.55 3.72569
5878.14 3.76912
5878.74 3.91651
5879.04 4.12439
5879.34 4.67997
5879.48 5.37887
5879.63 7.05894
5879.71 8.96065
5879.78 12.8325
5879.82 16.4631
5879.86 22.5186
5879.89 33.3151
5879.93 53.5929
5879.97 83.4309
5880.00 103.643
5880.04 83.4587
5880.07 53.6271
5880.09 39.0278
5880.12 29.4210
5880.14 22.9754
5880.17 18.5519
5880.22 13.0802
5880.26 10.1355
5880.36 7.18765
5880.46 5.85692
5880.65 4.70728
5880.84 4.24532
5881.23 3.87777
5881.62 3.73487
5882.39 3.61781
5883.16 3.56568
5886.25 3.47298
5892.44 3.37115
5898.62 3.29461
5904.81 3.23030
5917.18 3.12051
5929.55 3.01784
5941.92 2.90124
5948.10 2.82693
5954.29 2.72961
5957.38 2.66620
5960.47 2.58694
5963.57 2.48338
5966.66 2.34047
5968.20 2.24588
5969.75 2.12850
5971.30 1.97941
5972.84 1.78664
5974.39 1.54092
5975.93 1.30154
5976.71 1.35175
5977.09 1.56873
5977.48 2.13777
5977.67 2.69719
5977.87 3.59680
5978.06 5.09022
5978.25 7.67706
5978.45 12.4722
5978.54 16.4055
5978.64 22.0411
5978.74 30.5277
5978.83 43.4243
5978.93 63.9620
5979.03 96.1358
5979.16 168.195
5979.30 229.755
5979.44 200.646
5979.57 136.701
5979.73 86.6913
5979.89 59.0525
5980.05 43.2318
5980.20 33.5621
5980.36 27.1741
5980.51 22.7799
5980.83 17.2026
5981.14 13.8980
5981.45 11.7658
5982.08 9.21738
5982.71 7.77347
5983.33 6.85876
5983.96 6.23046
5984.59 5.77563
5985.84 5.16249
5987.09 4.77030
5988.35 4.49853
5989.60 4.29927
5992.10 4.02658
5994.61 3.84837
5997.12 3.72234
5999.62 3.62812
6004.63 3.49565
6009.65 3.40582
6019.67 3.28889
6029.69 3.21321
6039.72 3.15803
6059.76 3.07845
6079.81 3.01938
6099.86 2.97041
6119.91 2.92699
6129.93 2.90742
6134.94 2.90196
6137.45 2.91595
6138.70 2.98761
6139.33 3.25991
6139.48 3.52034
6139.64 4.17892
6139.72 4.98531
6139.80 6.80639
6139.84 8.72656
6139.87 12.3956
6139.91 20.4735
6139.93 28.5491
6139.95 41.5891
6139.98 64.4216
6140.00 80.3711
6140.02 64.4827
6140.05 41.6650
6140.07 26.6682
6140.10 18.2557
6140.14 10.5201
6140.19 7.36248
6140.24 5.80829
6140.34 4.40384
6140.43 3.81141
6140.62 3.33249
6140.81 3.14821
6141.58 2.95390
6143.11 2.89852
6146.18 2.87857
6152.31 2.86275
6164.58 2.83749
6189.11 2.78795
6238.17 2.67857
6262.71 2.61194
6287.24 2.52715
6299.50 2.47032
6311.77 2.38936
6317.90 2.32704
6320.97 2.28357
6324.03 2.22441
6327.10 2.13532
6328.63 2.06955
6330.17 1.97734
6331.70 1.83696
6332.47 1.73465
6333.23 1.59632
6334.00 1.40202
6334.77 1.13743
6335.15 1.01922
6335.53 1.15368
6335.73 1.68616
6335.82 2.33359
6335.92 3.56231
6336.01 6.10292
6336.06 8.37072
6336.11 11.9043
6336.16 17.6564
6336.20 27.5187
6336.25 45.3702
6336.30 78.2623
6336.35 137.034
6336.40 186.609
6336.45 162.981
6336.50 110.774
6336.53 86.2785
6336.56 68.5956
6336.62 46.1806
6336.68 33.4204
6336.74 25.8281
6336.80 20.8169
6336.86 17.4320
6336.98 13.1425
6337.11 10.6249
6337.23 9.00097
6337.47 7.07291
6337.71 5.97932
6337.95 5.28872
6338.43 4.46980
6338.92 4.00533
6339.40 3.70879
6340.37 3.35224
6341.33 3.14530
6342.30 3.00993
6344.23 2.84192
6346.16 2.73995
6348.10 2.66994
6351.96 2.57644
6355.83 2.51284
6359.69 2.46348
6367.42 2.38420
6382.88 2.24852
6398.35 2.10757
6406.08 2.02996
6413.81 1.94794
6421.54 1.86721
6429.27 1.80924
6433.13 1.80849
6437.00 1.85439
6440.86 1.99897
6444.73 2.36690
6448.60 3.30119
6450.53 4.26638
6452.46 5.96164
6454.39 9.16457
6455.36 11.8570
6456.33 15.8630
6457.29 22.0601
6458.26 32.0376
6459.22 48.7735
6460.19 77.2800
6461.35 131.935
6462.50 176.555
6463.66 151.623
6464.81 101.908
6465.54 78.0665
6466.28 60.9368
6467.74 39.9561
6469.21 28.5878
6470.67 21.8607
6472.14 17.5653
6473.61 14.6507
6476.54 11.0388
6479.47 8.94369
6482.40 7.60134
6488.27 6.00578
6494.13 5.09619
6499.99 4.50346
6505.86 4.07664
6511.72 3.74242
6523.45 3.20004
6529.31 2.94221
6535.18 2.66285
6541.04 2.33531
6543.97 2.14726
6546.91 1.95260
6549.84 1.81072
6551.30 1.83155
6552.77 2.04580
6554.24 2.78533
6554.97 3.63262
6555.70 5.19094
6556.43 8.21657
6556.80 10.7896
6557.17 14.6082
6557.53 20.4881
6557.90 29.8051
6558.27 45.0661
6558.63 70.2916
6559.12 124.205
6559.60 171.654
6560.08 151.785
6560.57 104.760
6560.86 82.3089
6561.16 65.7235
6561.75 44.7582
6562.34 32.9777
6562.93 25.8174
6563.52 21.1431
6564.10 17.9243
6565.28 13.8590
6566.46 11.4501
6567.64 9.88492
6570.00 7.99908
6572.35 6.91840
6574.71 6.22296
6577.07 5.73900
6579.42 5.38270
6584.14 4.89185
6588.85 4.56742
6598.28 4.15843
6607.71 3.90446
6617.14 3.72629
6635.99 3.48236
6654.85 3.31246
6673.70 3.17812
6711.41 2.95279
6749.13 2.72768
6767.98 2.59507
6786.84 2.43264
6796.27 2.33368
6805.69 2.21769
6815.12 2.07969
6824.55 1.91597
6833.98 1.73817
6838.69 1.66910
6843.41 1.67061
6848.12 1.90950
6850.48 2.27504
6852.83 3.04944
6855.19 4.76624
6856.37 6.38100
6857.55 8.99774
6858.73 13.4639
6859.90 21.5679
6861.08 37.3769
6861.67 50.6953
6862.26 69.7480
6863.33 121.756
6864.40 166.352
6865.47 145.566
6866.54 99.5184
6867.51 69.3677
6868.48 50.4805
6869.45 38.5534
6870.41 30.7058
6872.35 21.4395
6874.29 16.3918
6876.22 13.3175
6878.16 11.2911
6882.03 8.83244
6885.90 7.42324
6889.78 6.52190
6893.65 5.89931
6897.52 5.44467
6905.27 4.82414
6913.01 4.41698
6920.76 4.12394
6928.50 3.89697
6943.99 3.54375
6951.74 3.38663
6959.48 3.22331
6967.23 3.03099
6971.10 2.91017
6974.97 2.75723
6978.85 2.54542
6980.78 2.40064
6982.72 2.21202
6984.66 1.95444
6985.62 1.78917
6986.59 1.59738
6987.56 1.40404
6988.04 1.34658
6988.53 1.39830
6989.01 1.78873
6989.25 2.32042
6989.50 3.39407
6989.62 4.31420
6989.74 5.68255
6989.86 7.77651
6989.98 11.1010
6990.10 16.6303
6990.22 26.3630
6990.34 44.5881
6990.40 59.5458
6990.46 80.0150
6990.58 140.142
6990.70 190.948
6990.82 166.517
6990.94 113.608
6991.05 78.7021
6991.15 57.0621
6991.26 43.3909
6991.37 34.3913
6991.58 23.7254
6991.80 17.9382
6992.01 14.3940
6992.22 12.0626
6992.65 9.21091
6993.08 7.55614
6993.51 6.47562
6994.37 5.12235
6995.23 4.26739
6996.09 3.72695
6996.51 3.72618
6996.73 3.93986
6996.94 4.50144
6997.16 5.87371
6997.27 7.20225
6997.37 9.38544
6997.48 13.1819
6997.59 20.0476
6997.69 33.4121
6997.75 44.7477
6997.80 60.6354
6997.90 105.714
6998.00 144.742
6998.10 128.114
6998.20 88.6838
6998.26 69.8417
6998.32 55.7938
6998.45 38.2971
6998.57 28.5373
6998.69 22.6311
6998.81 18.7901
6998.94 16.1427
6999.18 12.7982
6999.43 10.8067
6999.68 9.51197
7000.17 7.93888
7000.66 7.02247
7001.15 6.42457
7002.14 5.68450
7003.12 5.23890
7004.11 4.93678
7006.08 4.54565
7008.05 4.29699
7010.02 4.12109
7013.96 3.88197
7017.90 3.72085
7021.84 3.60046
7029.71 3.42265
7037.59 3.28698
7045.47 3.17112
7053.35 3.06938
7057.29 3.04907
7058.27 3.07075
7059.26 3.15600
7059.75 3.28348
7060.24 3.63958
7060.49 4.10904
7060.74 5.31357
7060.86 6.77635
7060.98 10.1418
7061.04 13.7700
7061.11 20.6845
7061.14 26.8653
7061.17 36.5514
7061.20 52.3929
7061.23 78.5598
7061.26 123.327
7061.30 154.206
7061.34 123.364
7061.37 78.6060
7061.41 48.1211
7061.45 31.6439
7061.49 22.4288
7061.52 17.0304
7061.60 11.1521
7061.67 8.28044
7061.82 5.69949
7061.97 4.61502
7062.27 3.73768
7062.57 3.39933
7063.17 3.13648
7063.77 3.03442
7064.98 2.94745
7066.18 2.90425
7070.98 2.80174
7075.79 2.70992
7080.59 2.60694
7085.40 2.48080
7087.80 2.40274
7090.20 2.30792
7092.61 2.18588
7095.01 2.01858
7096.21 1.91579
7097.41 1.84662
7098.01 1.92101
7098.31 2.06536
7098.61 2.39960
7098.91 3.20843
7099.06 4.02039
7099.21 5.42358
7099.36 8.02921
7099.44 10.1928
7099.51 13.3794
7099.59 18.2452
7099.66 25.9765
7099.74 38.7263
7099.81 60.2824
7099.91 102.047
7100.00 136.194
7100.09 116.500
7100.19 78.3071
7100.26 57.2003
7100.32 43.1333
7100.39 33.6730
7100.46 27.1505
7100.60 19.0661
7100.74 14.5384
7100.88 11.7143
7101.02 9.85166
7101.29 7.58453
7101.57 6.28694
7101.85 5.46760
7102.40 4.50257
7102.95 3.96039
7103.51 3.61571
7104.61 3.19915
7105.72 2.95061
7106.82 2.77967
7109.04 2.54404
7111.25 2.37205
7113.46 2.22711
7117.89 1.97170
7120.10 1.85911
7122.32 1.77036
7124.53 1.74102
7126.74 1.86614
7128.95 2.42510
7130.06 3.10897
7131.17 4.40521
7132.27 6.99127
7132.83 9.22446
7133.38 12.5916
7133.93 17.8491
7134.49 26.3312
7135.04 40.5102
7135.59 64.4915
7136.30 114.493
7137.00 158.846
7137.70 141.012
7138.41 97.7273
7139.01 70.0485
7139.62 52.1083
7140.22 40.4740
7140.83 32.6730
7142.04 23.2540
7143.25 18.0166
7144.46 14.7797
7145.66 12.6243
7148.08 9.98051
7150.50 8.44898
7152.92 7.46313
7155.34 6.77965
7157.76 6.28016
7162.59 5.60065
7167.43 5.16071
7172.27 4.85231
7177.10 4.62354
7186.78 4.30484
7196.45 4.09095
7215.80 3.81487
7235.15 3.63655
7254.50 3.50492
7293.20 3.30426
7331.89 3.12760
7351.24 3.03205
7370.59 2.92042
7389.94 2.77674
7399.61 2.68356
7409.29 2.56661
7418.96 2.41203
7423.80 2.31313
7428.64 2.19292
7433.47 2.04277
7438.31 1.84971
7443.15 1.62431
7444.36 1.61072
7444.96 1.64830
7445.57 1.76807
7446.17 2.10411
7446.47 2.47101
7446.77 3.14974
7447.08 4.53737
7447.23 5.79520
7447.38 7.81946
7447.53 11.3053
7447.68 17.8640
7447.76 23.4465
7447.83 31.6507
7447.91 44.3450
7447.98 63.7911
7448.09 105.219
7448.20 136.197
7448.31 113.348
7448.42 73.9469
7448.54 44.2161
7448.67 28.7127
7448.80 20.2277
7448.93 15.2271
7449.06 12.0128
7449.18 9.84483
7449.44 7.19499
7449.69 5.67695
7449.95 4.72472
7450.46 3.61894
7450.97 3.00865
7451.48 2.62618
7452.50 2.17350
7453.52 1.91342
7454.55 1.75070
7456.59 1.63152
7458.63 1.91951
7459.65 2.41026
7460.67 3.43060
7461.70 5.59091
7462.21 7.52222
7462.72 10.4939
7463.23 15.2396
7463.74 23.0826
7464.25 36.5913
7464.76 60.1118
7465.38 107.948
7466.00 151.329
7466.62 135.545
7467.24 94.6114
7467.89 63.7940
7468.54 45.5254
7469.19 34.5035
7469.84 27.4809
7470.49 22.7379
7471.14 19.3859
7472.43 15.0540
7473.73 12.4301
7475.03 10.7012
7477.62 8.59479
7480.22 7.37702
7482.81 6.59125
7485.41 6.04467
7488.00 5.64339
7493.19 5.09335
7498.38 4.73303
7503.57 4.47655
7508.76 4.28219
7519.14 3.99616
7529.52 3.76717
7534.71 3.64470
7537.30 3.57131
7539.89 3.47999
7542.49 3.35295
7543.79 3.26414
7545.08 3.14468
7546.38 2.97241
7547.68 2.70647
7548.98 2.39664
7549.30 2.51692
7549.46 2.76284
7549.62 3.33418
7549.79 4.69093
7549.87 6.02552
7549.95 8.26897
7550.03 12.2607
7550.11 19.9185
7550.15 26.5061
7550.19 36.0354
7550.23 50.8065
7550.27 72.8565
7550.34 126.242
7550.40 172.229
7550.46 150.439
7550.53 103.040
7550.58 75.1877
7550.63 56.7537
7550.68 44.4704
7550.73 36.0562
7550.83 25.7307
7550.93 19.9042
7551.03 16.2857
7551.13 13.8709
7551.33 10.9156
7551.53 9.21518
7551.73 8.12899
7551.93 7.38276
7552.13 6.84198
7552.53 6.11432
7552.93 5.65269
7553.73 5.10241
7554.53 4.78651
7555.33 4.58190
7556.93 4.33099
7558.53 4.18115
7560.13 4.08008
7563.33 3.94920
7566.54 3.86497
7569.74 3.80401
7576.14 3.71752
7588.95 3.60693
7601.75 3.53163
7627.36 3.42511
7640.17 3.38378
7646.57 3.36561
7649.77 3.35944
7651.37 3.36643
7652.17 3.40854
7652.57 3.57182
7652.77 4.13422
7652.87 5.79217
7652.92 9.55614
7652.95 15.4351
7652.96 21.8639
7652.97 32.6452
7652.99 50.5374
7653.00 61.8664
7653.01 50.5552
7653.03 32.6679
7653.04 20.0608
7653.06 13.7852
7653.09 8.23363
7653.15 5.15058
7653.27 3.90441
7653.52 3.50102
7654.01 3.38547
7654.98 3.35223
7656.94 3.33905
7660.85 3.32682
7668.68 3.30674
7684.34 3.27015
7715.65 3.20450
7778.27 3.08419
7809.59 3.02000
7840.90 2.94159
7856.55 2.88878
7872.21 2.81125
7880.04 2.74963
7883.95 2.70595
7887.86 2.64604
7891.78 2.55580
7893.73 2.48975
7895.69 2.39862
7897.65 2.26459
7899.61 2.05385
7900.58 1.91080
7901.56 1.80215
7902.05 1.89542
7902.30 2.09232
7902.54 2.55296
7902.79 3.66461
7902.91 4.76522
7903.03 6.63174
7903.15 10.0306
7903.27 16.6332
7903.34 22.3321
7903.40 30.9279
7903.46 44.1924
7903.52 65.0516
7903.61 112.365
7903.70 152.842
7903.79 132.887
7903.88 90.6331
7903.94 69.6100
7904.00 54.6992
7904.11 36.3734
7904.23 26.3954
7904.35 20.4625
7904.46 16.6569
7904.58 14.0640
7904.81 10.8346
7905.04 8.94539
7905.28 7.73791
7905.74 6.30409
7906.20 5.49526
7906.67 4.98427
7907.13 4.63336
7907.60 4.37947
7908.53 4.03683
7909.46 3.81721
7911.31 3.55240
7913.17 3.39773
7915.03 3.29561
7918.74 3.16677
7922.46 3.08624
7926.17 3.02888
7933.60 2.94694
7948.46 2.82973
7963.32 2.72037
7978.19 2.58671
7985.62 2.49899
7993.05 2.38574
8000.48 2.22854
8007.91 1.98460
8011.62 1.79558
8015.34 1.50696
8017.19 1.28874
8019.05 0.980481
8019.98 0.793596
8020.91 0.690810
8021.37 0.867952
8021.61 1.16434
8021.84 1.80427
8022.07 3.22564
8022.19 4.55195
8022.30 6.67857
8022.42 10.2394
8022.53 16.5279
8022.65 28.2965
8022.71 37.8392
8022.77 51.3100
8022.88 91.1941
8023.00 126.766
8023.12 112.164
8023.23 77.4694
8023.32 57.9244
8023.40 44.5149
8023.49 35.2880
8023.57 28.8046
8023.75 20.5977
8023.92 15.8768
8024.26 10.8619
8024.60 8.35938
8025.28 5.97701
8025.96 4.89029
8027.33 4.00673
8028.69 3.91586
8030.05 4.59990
8030.74 5.45945
8031.42 7.00153
8032.10 9.84498
8032.78 15.4240
8033.12 20.2132
8033.46 27.3765
8033.80 38.2984
8034.14 54.8956
8034.67 94.7228
8035.20 128.845
8035.73 112.889
8036.26 77.5725
8036.82 51.3679
8037.38 36.2596
8037.94 27.3021
8038.50 21.6810
8039.06 17.9283
8039.63 15.3054
8040.75 11.9460
8041.87 9.93620
8042.99 8.62235
8045.24 7.03623
8047.49 6.12685
8049.73 5.54340
8051.98 5.13884
8054.22 4.84267
8058.71 4.43825
8063.20 4.17491
8067.69 3.98932
8072.19 3.85103
8081.17 3.65740
8090.15 3.52678
8099.13 3.43135
8108.11 3.35754
8126.08 3.24818
8144.04 3.16834
8153.02 3.13576
8162.01 3.10886
8166.50 3.10011
8170.99 3.10285
8173.23 3.11944
8175.48 3.17859
8176.60 3.26524
8177.72 3.50837
8178.29 3.83325
8178.57 4.14465
8178.85 4.68386
8179.13 5.74889
8179.27 6.71232
8179.41 8.29170
8179.55 11.1631
8179.62 13.5268
8179.69 17.0509
8179.76 22.5889
8179.83 31.8578
8179.90 48.4668
8179.97 79.8988
8180.04 126.109
8180.10 156.810
8180.17 126.164
8180.23 79.9682
8180.28 57.8716
8180.32 42.9663
8180.37 32.9769
8180.41 26.2568
8180.50 17.9321
8180.59 13.3206
8180.68 10.5347
8180.77 8.73431
8180.94 6.63650
8181.12 5.51195
8181.30 4.84155
8181.66 4.11707
8182.01 3.75409
8182.37 3.54759
8183.08 3.33237
8184.51 3.16843
8185.93 3.10623
8188.78 3.05549
8191.63 3.03220
8203.03 2.98573
8225.83 2.92083
8248.63 2.85830
8271.43 2.79121
8294.23 2.71250
8317.03 2.60607
8328.43 2.52767
8334.13 2.47447
8339.82 2.40373
8345.52 2.30013
8348.37 2.22546
8351.22 2.12299
8354.07 1.97162
8355.50 1.86498
8356.92 1.72603
8358.35 1.54466
8359.77 1.34553
8360.49 1.33103
8360.84 1.43008
8361.20 1.72964
8361.56 2.53518
8361.73 3.37293
8361.91 4.82580
8362.09 7.48201
8362.18 9.63189
8362.27 12.7070
8362.36 17.2138
8362.45 23.9835
8362.53 34.3555
8362.62 50.2660
8362.76 89.1964
8362.90 123.347
8363.04 109.128
8363.18 75.5070
8363.33 49.6828
8363.48 34.9328
8363.63 26.1736
8363.78 20.7132
8363.93 17.0515
8364.08 14.5046
8364.38 11.2316
8364.68 9.27217
8364.98 7.99077
8365.58 6.44568
8366.19 5.56004
8366.79 4.99410
8367.39 4.60254
8367.99 4.31734
8369.19 3.92959
8370.40 3.67930
8371.60 3.50416
8372.80 3.37448
8375.21 3.19421
8377.62 3.07362
8382.43 2.91834
8387.24 2.81802
8392.05 2.74388
8401.68 2.63190
8420.93 2.45443
8440.18 2.27246
8449.80 2.16645
8459.43 2.04378
8469.05 1.89909
8478.68 1.72949
8488.30 1.55167
8493.12 1.49071
8497.93 1.51633
8502.74 1.82127
8505.15 2.25683
8507.55 3.15463
8509.96 5.10104
8511.16 6.90033
8512.37 9.77866
8513.57 14.6047
8514.77 23.1779
8515.98 39.4100
8516.58 52.7380
8517.18 71.3833
8518.34 125.067
8519.50 171.272
8520.66 150.144
8521.82 102.801
8522.99 68.9360
8524.17 48.8276
8525.34 36.6643
8526.51 28.9029
8527.68 23.6784
8528.85 19.9952
8531.20 15.2548
8533.54 12.4060
8535.89 10.5424
8540.58 8.29427
8545.26 7.01056
8549.95 6.19035
8554.64 5.62398
8559.33 5.21020
8568.71 4.64539
8578.08 4.27501
8587.46 4.00910
8596.84 3.80418
8615.59 3.48926
8634.34 3.21130
8643.72 3.04807
8648.41 2.94623
8653.10 2.81750
8657.78 2.63956
8660.13 2.51879
8662.47 2.36423
8664.82 2.16407
8667.16 1.93871
8668.33 1.90475
8668.92 1.99112
8669.50 2.27542
8670.09 3.06365
8670.38 3.89355
8670.68 5.34266
8670.97 8.00824
8671.26 13.2839
8671.41 17.8745
8671.56 24.7484
8671.70 35.3974
8671.85 51.6905
8672.07 91.2502
8672.30 126.365
8672.53 112.194
8672.75 77.8629
8673.00 51.1366
8673.25 35.9241
8673.51 27.0229
8673.76 21.4834
8674.01 17.7891
8674.26 15.2172
8674.76 11.9221
8675.26 9.94798
8675.76 8.66022
8676.76 7.10486
8677.77 6.21380
8678.77 5.64425
8679.77 5.25140
8680.77 4.96698
8682.78 4.59264
8684.78 4.39715
8685.79 4.38507
8686.79 4.53842
8687.29 4.81719
8687.54 5.10327
8687.79 5.61403
8688.04 6.64746
8688.17 7.59594
8688.29 9.16874
8688.42 12.0733
8688.48 14.5195
8688.54 18.1557
8688.61 24.0691
8688.67 34.0503
8688.73 52.8916
8688.79 89.0687
8688.85 140.176
8688.90 174.281
8688.95 140.250
8689.01 89.1577
8689.04 65.3090
8689.08 49.0730
8689.15 30.5843
8689.22 21.1905
8689.29 15.9188
8689.37 12.6695
8689.44 10.5906
8689.58 8.14871
8689.72 6.82085
8689.86 6.02986
8690.15 5.16507
8690.72 4.46567
8691.29 4.18631
8692.43 3.94752
8693.56 3.83451
8695.84 3.70796
8698.12 3.62615
8702.68 3.51067
8707.23 3.42567
8711.79 3.35719
8716.34 3.29920
8725.46 3.20261
8743.68 3.04861
8761.90 2.91453
8780.13 2.78204
8798.35 2.63934
8807.46 2.56084
8816.58 2.47633
8825.69 2.39158
8830.24 2.38422
8831.38 2.41647
8832.52 2.52989
8833.09 2.69417
8833.66 3.14460
8833.95 3.72976
8834.23 5.19939
8834.37 6.94599
8834.45 8.44826
8834.52 10.7888
8834.59 14.6991
8834.66 21.8528
8834.69 27.8836
8834.73 36.5066
8834.77 49.8842
8834.80 69.4873
8834.85 109.869
8834.90 136.830
8834.95 109.960
8835.00 69.6020
8835.04 48.6487
8835.08 35.4364
8835.11 26.6110
8835.15 20.8639
8835.23 13.9336
8835.30 10.2052
8835.38 7.99598
8835.45 6.58729
8835.60 4.96655
8835.90 3.59907
8836.20 3.05185
8836.80 2.62149
8837.40 2.45562
8838.60 2.32149
8839.80 2.26237
8844.59 2.15210
8854.19 1.99077
8863.78 1.81702
8873.37 1.63200
8882.96 1.49149
8887.76 1.50800
8892.56 1.71206
8894.95 1.96902
8897.35 2.42997
8899.75 3.25672
8902.15 4.77891
8904.55 7.73035
8905.75 10.2291
8906.94 13.9348
8908.14 19.5968
8909.34 28.5310
8910.54 43.0405
8911.74 66.7852
8913.37 118.918
8915.00 165.358
8916.63 146.886
8918.26 101.742
8919.44 76.7533
8920.61 59.3249
8921.79 47.2794
8922.96 38.7920
8925.31 28.0480
8927.67 21.7971
8930.02 17.8326
8932.37 15.1457
8937.07 11.8046
8941.77 9.85043
8946.47 8.58723
8951.18 7.71127
8955.88 7.07161
8965.28 6.20474
8974.69 5.64732
8984.09 5.25973
8993.49 4.97477
9012.30 4.58332
9031.11 4.32601
9049.92 4.14283
9068.73 4.00485
9106.34 3.80841
9143.96 3.67263
9162.77 3.61856
9181.57 3.57122
9200.38 3.53092
9209.79 3.52083
9214.49 3.54963
9215.66 3.58625
9216.84 3.69163
9217.43 3.83490
9218.02 4.21857
9218.31 4.70976
9218.60 5.92921
9218.75 7.35462
9218.90 10.4670
9218.97 13.6175
9219.04 19.2097
9219.12 30.3197
9219.15 40.1586
9219.19 54.6664
9219.25 85.1163
9219.30 105.885
9219.36 85.1761
9219.41 54.7415
9219.45 37.7576
9219.50 27.1972
9219.54 20.5874
9219.59 16.3716
9219.68 11.3878
9219.77 8.80797
9219.95 6.34200
9220.12 5.26291
9220.48 4.36100
9220.84 4.00468
9221.55 3.72850
9222.27 3.62476
9223.69 3.54579
9225.12 3.51544
9230.83 3.47722
9242.26 3.44941
9265.11 3.40921
9287.96 3.37456
9299.38 3.36278
9305.10 3.37569
9307.95 3.45543
9308.67 3.53893
9309.38 3.76900
9309.74 4.07316
9310.10 4.86365
9310.27 5.84503
9310.45 8.14980
9310.54 10.7190
9310.63 15.8503
9310.68 20.6210
9310.72 28.2146
9310.77 41.6142
9310.81 65.3813
9310.86 102.749
9310.90 127.563
9310.95 102.880
9310.99 65.5465
9311.03 45.0811
9311.06 32.2691
9311.10 24.2318
9311.14 19.1176
9311.21 13.0840
9311.28 9.90710
9311.43 6.87792
9311.58 5.54121
9311.87 4.42610
9312.16 3.98483
9312.74 3.64261
9313.33 3.51430
9314.50 3.41739
9315.66 3.38115
9320.34 3.33998
9329.68 3.31808
9348.38 3.29107
9385.76 3.24381
9460.53 3.15532
9535.30 3.06407
9572.68 3.01194
9591.38 2.98213
9600.72 2.96607
9605.40 2.95937
9607.73 2.96345
9608.90 2.99507
9609.48 3.12202
9609.78 3.57372
9609.92 4.98214
9610.00 8.48972
9610.03 14.8289
9610.05 22.0900
9610.07 36.9653
9610.08 56.9280
9610.10 71.0741
9610.12 56.9530
9610.13 36.9961
9610.15 22.6790
9610.17 15.4500
9610.20 8.91572
9610.27 5.18233
9610.41 3.64041
9610.69 3.14047
9611.24 2.99666
9612.35 2.95608
9614.58 2.94134
9619.02 2.92881
9627.91 2.90600
9636.80 2.87935
9645.69 2.84539
9654.58 2.79718
9659.03 2.76271
9663.47 2.71486
9667.92 2.64125
9670.14 2.58593
9672.36 2.50731
9674.58 2.38538
9676.81 2.17006
9677.92 1.98824
9679.03 1.71435
9679.58 1.54729
9680.14 1.48409
9680.42 1.71116
9680.70 2.77148
9680.83 4.32320
9680.97 7.99202
9681.04 11.7211
9681.11 18.0614
9681.18 29.5119
9681.25 50.8526
9681.33 90.1918
9681.40 125.454
9681.48 111.550
9681.55 77.5205
9681.64 50.1343
9681.72 34.8824
9681.81 25.9914
9681.90 20.5628
9681.98 16.9419
9682.07 14.4535
9682.24 11.2802
9682.41 9.37660
9682.59 8.13533
9682.93 6.64267
9683.28 5.78649
9683.62 5.24002
9684.31 4.58679
9685.00 4.21251
9685.69 3.97165
9687.07 3.67999
9688.46 3.51004
9689.84 3.39858
9692.60 3.26051
9695.36 3.17739
9698.12 3.12104
9703.65 3.04755
9709.17 2.99963
9714.70 2.96414
9725.74 2.91100
9747.84 2.83101
9758.89 2.79664
9764.41 2.78943
9767.17 2.82640
9768.56 3.00066
9768.90 3.17670
9769.25 3.64735
9769.42 4.25276
9769.59 5.74770
9769.68 7.52048
9769.76 11.3600
9769.81 15.2125
9769.85 22.1472
9769.89 35.9994
9769.92 48.4722
9769.94 66.4572
9769.97 104.445
9770.00 130.232
9770.03 104.559
9770.06 66.5995
9770.09 45.3101
9770.12 31.9157
9770.14 23.6345
9770.17 18.4681
9770.22 12.3116
9770.28 9.17584
9770.38 6.18412
9770.49 4.88607
9770.70 3.79866
9770.92 3.37280
9771.34 3.04236
9771.77 2.91864
9773.48 2.78819
9776.89 2.74270
9783.71 2.70824
9797.36 2.64929
9811.01 2.58184
9824.66 2.49766
9838.31 2.38327
9845.13 2.30617
9851.96 2.20633
9858.78 2.06941
9862.19 1.97991
9865.61 1.87251
9869.02 1.75358
9870.72 1.70504
9872.43 1.69952
9874.14 1.84233
9874.99 2.06950
9875.84 2.55798
9876.69 3.65451
9877.12 4.69626
9877.55 6.39487
9877.97 9.32638
9878.40 14.7053
9878.61 19.1160
9878.83 25.4145
9879.04 34.5638
9879.25 47.8128
9879.63 82.9188
9880.00 112.812
9880.37 98.6539
9880.75 67.5335
9881.17 43.3113
9881.60 29.9020
9882.02 22.1970
9882.45 17.4505
9882.87 14.3323
9883.30 12.1716
9884.15 9.43652
9885.00 7.81749
9885.85 6.76700
9887.55 5.50781
9889.25 4.79092
9890.95 4.33272
9892.65 4.01531
9894.35 3.78227
9897.75 3.46113
9901.15 3.24727
9907.95 2.96916
9914.75 2.78204
9921.55 2.63354
9935.16 2.37251
9941.96 2.23934
9948.76 2.09514
9955.56 1.93515
9962.36 1.76106
9969.16 1.60474
9972.56 1.57741
9975.96 1.66909
9979.36 2.09839
9981.06 2.62575
9982.76 3.62259
9984.46 5.58966
9985.31 7.26965
9986.16 9.77221
9987.01 13.6079
9987.86 19.6715
9988.71 29.5243
9989.56 45.6437
9990.73 81.6687
9991.90 114.352
9993.07 102.522
9994.24 71.7541
9995.11 54.0714
9995.98 41.8358
9996.85 33.4342
9997.72 27.5395
9999.46 20.1155
10001.2 15.8099
10003.0 13.0685
10004.7 11.2218
10008.2 8.91947
10011.7 7.56335
10015.1 6.68477
10022.1 5.62089
10029.1 5.00270
10036.0 4.59907
10043.0 4.31294
10046.5 4.20117
10048.2 4.16080
10049.1 4.17965
10049.5 4.32821
10049.8 4.86859
10049.9 6.46117
10049.9 9.45877
10049.9 14.7642
10050.0 29.8019
10050.0 55.5267
10050.0 29.7634
10050.1 14.7311
10050.1 10.6697
10050.1 7.23577
10050.2 5.26536
10050.4 4.45254
10050.7 4.17605
10051.3 4.08525
10052.7 4.03220
10055.3 3.96440
10060.5 3.85139
10065.7 3.75563
10068.4 3.72114
10069.7 3.74172
10070.3 3.89111
10070.6 4.46799
10070.8 6.20807
10070.9 10.3252
10070.9 17.0995
10070.9 24.5032
10071.0 38.9049
10071.0 59.8057
10071.0 74.9000
10071.0 59.9229
10071.0 39.0481
10071.1 20.3790
10071.1 11.5426
10071.2 6.83424
10071.3 4.70257
10071.6 3.94994
10072.2 3.72660
10073.3 3.65114
10075.7 3.60142
10080.3 3.53298
10089.5 3.41551
10108.0 3.21112
10126.5 3.01760
10144.9 2.80690
10163.4 2.54317
10172.7 2.37413
10181.9 2.16734
10191.1 1.91780
10195.7 1.78943
10200.4 1.69811
10205.0 1.77159
10207.3 1.99699
10209.6 2.55119
10211.9 3.88362
10213.1 5.18962
10214.2 7.32760
10215.4 11.0530
10216.5 17.8054
10217.7 30.9465
10218.3 42.0687
10218.8 57.6285
10219.9 102.839
10221.0 143.509
10222.1 127.949
10223.2 88.9837
10224.4 57.7685
10225.7 40.2689
10226.9 30.1413
10228.2 23.9013
10229.4 19.7366
10230.7 16.8544
10233.2 13.1564
10235.7 10.9369
10238.1 9.49045
10243.1 7.73798
10248.1 6.72749
10253.1 6.07759
10258.1 5.62511
10263.1 5.29211
10273.0 4.83331
10283.0 4.53024
10288.0 4.41358
10293.0 4.31479
10297.9 4.24113
10300.4 4.26289
10301.7 4.48270
10302.0 4.70879
10302.3 5.30394
10302.5 6.07847
10302.6 7.79684
10302.7 9.81788
10302.8 14.0303
10302.8 18.0339
10302.9 24.7968
10302.9 37.0244
10302.9 56.8954
10303.0 85.7211
10303.0 109.509
10303.0 85.8641
10303.1 57.0663
10303.1 37.1819
10303.2 24.9303
10303.2 18.1460
10303.2 14.9564
10303.3 10.2534
10303.4 8.24387
10303.5 6.26030
10303.7 5.42638
10304.0 4.75206
10304.3 4.49578
10304.9 4.28883
10305.4 4.20665
10307.8 4.09839
10312.5 4.01519
10322.0 3.89456
10340.9 3.67638
10350.3 3.54974
10355.0 3.47053
10359.8 3.36931
10364.5 3.22562
10366.8 3.12488
10369.2 2.99021
10371.6 2.80021
10373.9 2.52433
10375.1 2.36473
10376.3 2.32691
10376.9 2.57995
10377.2 2.94628
10377.5 3.65964
10377.8 5.20428
10377.9 6.59276
10378.1 8.57107
10378.2 11.9213
10378.4 17.5042
10378.5 27.1590
10378.6 42.6134
10378.8 75.1313
10379.0 104.515
10379.2 94.2203
10379.4 66.6193
10379.6 43.7486
10379.8 31.3538
10380.0 23.7288
10380.2 19.1970
10380.4 16.0314
10380.6 13.9230
10381.0 11.1951
10381.4 9.50877
10381.8 8.40471
10382.6 7.07984
10383.4 6.30668
10384.3 5.81486
10385.1 5.47252
10385.9 5.22108
10387.5 4.87532
10389.1 4.65025
10390.8 4.49171
10392.4 4.37425
10395.6 4.20873
10398.9 4.09739
10405.4 3.95295
10411.9 3.86005
10418.4 3.79273
10431.4 3.69673
10444.5 3.62681
10457.5 3.57022
10483.5 3.47625
10509.5 3.38946
10522.6 3.34250
10535.6 3.28762
10548.6 3.21502
10555.1 3.16526
10561.6 3.09795
10568.1 2.99714
10571.4 2.92303
10574.6 2.82039
10577.9 2.66650
10579.5 2.55718
10581.1 2.41497
10582.8 2.22712
10584.4 2.01828
10585.2 1.99336
10585.6 2.08466
10586.0 2.36118
10586.4 3.12272
10586.6 3.88748
10586.8 5.18424
10587.0 7.63616
10587.2 12.0953
10587.3 15.7844
10587.4 21.1190
10587.5 28.9320
10587.6 40.3513
10587.8 72.3018
10588.0 101.680
10588.2 91.1339
10588.4 63.7596
10588.5 46.6386
10588.7 35.3654
10588.8 27.9521
10589.0 23.2003
10589.3 16.9291
10589.5 13.5009
10589.8 11.2834
10590.1 9.84365
10590.7 8.05067
10591.3 6.98332
10591.9 6.29433
10592.5 5.81645
10593.1 5.47229
10594.2 4.99620
10595.4 4.69185
10596.6 4.47801
10597.8 4.32201
10600.1 4.10676
10602.5 3.96564
10604.8 3.86561
10607.2 3.79095
10611.9 3.68511
10616.5 3.61303
10625.9 3.51764
10635.3 3.45377
10644.7 3.40467
10663.5 3.32453
10682.3 3.24586
10691.7 3.19900
10701.1 3.13951
10710.4 3.05392
10715.1 2.99188
10719.8 2.90568
10724.5 2.77435
10726.9 2.67832
10729.2 2.54794
10731.6 2.36105
10733.9 2.09076
10735.1 1.94020
10736.3 1.93436
10736.9 2.23117
10737.2 2.61999
10737.4 3.37784
10737.7 4.98471
10737.9 6.40587
10738.0 8.40444
10738.2 11.7356
10738.3 16.7190
10738.5 25.5643
10738.6 39.3271
10738.8 71.7565
10739.0 99.9790
10739.1 99.6493
10739.2 89.2002
10739.4 63.0025
10739.6 46.3639
10739.7 35.3175
10739.9 28.0031
10740.0 23.2724
10740.3 17.0272
10740.7 13.5885
10741.0 11.3615
10741.3 9.90904
10741.9 8.09671
10742.5 7.01673
10743.2 6.32753
10743.8 5.83999
10744.4 5.48850
10745.7 5.00284
10746.9 4.69226
10748.2 4.47573
10749.4 4.31635
10751.9 4.09688
10754.4 3.95389
10756.9 3.85244
10759.4 3.77705
10764.4 3.67125
10769.5 3.60003
10774.5 3.54823
10779.5 3.50850
10789.5 3.45026
10799.5 3.40854
10819.5 3.34978
10839.6 3.30739
10859.6 3.27314
10899.7 3.21612
10979.8 3.11238
10999.9 3.08375
11019.9 3.05208
11039.9 3.01586
11049.9 2.99645
11054.9 2.99168
11057.4 3.01262
11058.7 3.11379
11059.3 3.49767
11059.6 4.73498
11059.7 5.81107
11059.8 8.23795
11059.8 10.7614
11059.9 15.4881
11059.9 25.4925
11059.9 45.4761
11060.0 67.8388
11060.0 87.7739
11060.0 67.9572
11060.1 45.6159
11060.1 29.7296
11060.1 19.6035
11060.2 10.8418
11060.2 7.46695
11060.3 5.86038
11060.4 4.44624
11060.5 3.89666
11061.0 3.23019
11061.9 3.03736
11063.8 2.98103
11067.6 2.95719
11075.0 2.93189
11090.0 2.87906
11105.0 2.80933
11112.5 2.76404
11116.2 2.73825
11118.1 2.72688
11119.0 2.73158
11119.5 2.77513
11119.7 2.93676
11119.9 3.48065
11119.9 4.94741
11120.0 7.79352
11120.0 16.3036
11120.0 29.9298
11120.0 16.3335
11120.1 7.81629
11120.1 5.57946
11120.1 3.75917
11120.2 3.02891
11120.4 2.79410
11120.8 2.72519
11121.6 2.70021
11123.2 2.68098
11126.3 2.64850
11132.6 2.57304
11138.8 2.47406
11145.1 2.33751
11148.2 2.24768
11151.4 2.13773
11154.5 2.00039
11157.6 1.82980
11160.8 1.62936
11162.4 1.53789
11163.9 1.50191
11165.5 1.66881
11166.3 1.97126
11167.1 2.62836
11167.8 4.12304
11168.2 5.50574
11168.6 7.71563
11169.0 11.3927
11169.4 17.8176
11169.8 29.6430
11170.2 52.0302
11170.6 92.6748
11171.0 129.201
11171.4 115.538
11171.8 80.6658
11172.3 52.0924
11172.8 36.1959
11173.3 27.0549
11173.7 21.4115
11174.2 17.6918
11174.7 15.1046
11175.7 11.8366
11176.6 9.86200
11177.6 8.57289
11179.5 7.02256
11181.4 6.12857
11183.3 5.55786
11185.2 5.16062
11187.1 4.87175
11191.0 4.47764
11194.8 4.22261
11198.6 4.04416
11202.5 3.91217
11210.1 3.72948
11217.8 3.60823
11225.4 3.52111
11233.1 3.45493
11248.4 3.35902
11263.7 3.29078
11294.4 3.19332
11325.0 3.11809
11355.6 3.04846
11386.3 2.97374
11401.6 2.93208
11409.2 2.91554
11413.1 2.93321
11415.0 3.04232
11415.5 3.15410
11415.9 3.45202
11416.2 3.82947
11416.4 4.74967
11416.5 5.80004
11416.7 8.01757
11416.7 10.1563
11416.8 13.8289
11416.8 20.6333
11416.9 32.0419
11417.0 50.7344
11417.0 61.4952
11417.1 50.7855
11417.1 32.1081
11417.2 20.6939
11417.2 14.7349
11417.3 10.6770
11417.3 8.65382
11417.4 6.22681
11417.5 5.12790
11417.7 4.05543
11418.0 3.59826
11418.4 3.22529
11418.8 3.07964
11420.5 2.92241
11423.8 2.86822
11430.6 2.82934
11444.0 2.76062
11457.5 2.67464
11470.9 2.55666
11477.7 2.47821
11484.4 2.37989
11491.1 2.25286
11497.8 2.08340
11501.2 1.97608
11504.6 1.85037
11511.3 1.54816
11514.7 1.43143
11516.3 1.45106
11518.0 1.63625
11519.7 2.26656
11520.5 2.97934
11521.4 4.27024
11522.2 6.71828
11522.6 8.74772
11523.1 11.6996
11523.5 16.1009
11523.9 22.8347
11524.3 33.3596
11524.7 49.8534
11525.4 90.0148
11526.0 125.962
11526.6 112.729
11527.3 78.9913
11527.9 55.3273
11528.5 40.5660
11529.1 31.2931
11529.7 25.2900
11530.9 18.0628
11532.1 14.1363
11533.3 11.7088
11534.4 10.1104
11536.8 8.15009
11539.2 7.00934
11541.6 6.27695
11544.0 5.76670
11546.4 5.39501
11551.1 4.88840
11555.9 4.56110
11560.7 4.33258
11565.4 4.16401
11575.0 3.93144
11584.5 3.77828
11594.1 3.66904
11603.6 3.58665
11622.7 3.46914
11641.8 3.38767
11660.9 3.32644
11670.4 3.30193
11675.2 3.29578
11677.6 3.31360
11678.8 3.40102
11679.4 3.72980
11679.7 4.81602
11679.8 7.77388
11679.9 12.9859
11679.9 20.6447
11679.9 35.1188
11680.0 52.1728
11680.0 66.5272
11680.0 52.2196
11680.1 35.1747
11680.1 23.8173
11680.1 16.1064
11680.2 10.0708
11680.3 6.03692
11680.5 4.14950
11680.9 3.52784
11681.7 3.34145
11683.3 3.28700
11686.6 3.26612
11693.2 3.24826
11706.3 3.22057
11732.5 3.17214
11785.0 3.08405
11811.3 3.03749
11837.5 2.98245
11863.7 2.90541
11876.9 2.84613
11883.4 2.80482
11886.7 2.77927
11888.3 2.76515
11889.2 2.75898
11889.6 2.76109
11889.8 2.77983
11889.9 2.83958
11889.9 2.97788
11890.0 4.60949
11890.0 6.47429
11890.0 4.61332
11890.1 2.97829
11890.1 2.83824
11890.2 2.77589
11890.4 2.75224
11890.9 2.74173
11891.7 2.73084
11893.4 2.71040
11896.7 2.66221
11900.1 2.59855
11903.4 2.50908
11906.7 2.37195
11908.4 2.27104
11910.1 2.13240
11911.7 1.93180
11913.4 1.63179
11914.3 1.44903
11915.1 1.37959
11915.5 1.61907
11915.7 1.98062
11915.9 2.73050
11916.1 4.33539
11916.2 5.87509
11916.3 8.05767
11916.5 11.9540
11916.6 17.9199
11916.7 28.1277
11916.8 47.0506
11916.9 85.2614
11917.0 118.298
11917.1 106.670
11917.2 74.1443
11917.3 58.6259
11917.4 46.4559
11917.6 31.4016
11917.7 23.1548
11917.9 18.4674
11918.0 15.1995
11918.2 12.9651
11918.5 10.2308
11918.8 8.55826
11919.1 7.50428
11919.8 6.20918
11920.4 5.46696
11921.0 4.99015
11922.3 4.42063
11923.5 4.08895
11924.8 3.87354
11927.3 3.61054
11929.8 3.45345
11932.3 3.34826
11937.4 3.21179
11942.4 3.12204
11947.4 3.05376
11957.5 2.94059
11967.5 2.82266
11972.5 2.74821
11977.6 2.65057
11982.6 2.50686
11985.1 2.40303
11987.6 2.26073
11990.1 2.05201
11992.6 1.72862
11995.1 1.34356
11995.8 1.45937
11996.1 1.71713
11996.4 2.28855
11996.7 3.63964
11996.9 4.92417
11997.0 6.83869
11997.2 10.2153
11997.3 15.6664
11997.5 26.1923
11997.7 45.3946
11997.8 82.4702
11998.0 115.654
11998.2 104.578
11998.3 73.2148
11998.5 54.3823
11998.6 41.3105
11998.8 32.6046
11998.9 26.6413
11999.2 19.3090
11999.5 15.1487
11999.7 12.5463
12000.0 10.7958
12000.6 8.62980
12001.1 7.36504
12001.7 6.54650
12002.3 5.97762
12002.8 5.56115
12003.9 4.99481
12005.1 4.62917
12006.2 4.37419
12007.3 4.18637
12009.5 3.92805
12011.8 3.75830
12014.0 3.63768
12016.3 3.54743
12020.7 3.41895
12025.2 3.33088
12034.2 3.21299
12043.1 3.13244
12052.1 3.06896
12061.0 3.01402
12065.5 2.99080
12067.7 2.99149
12068.8 3.03933
12069.4 3.23821
12069.7 3.92254
12069.8 5.89167
12069.9 10.1436
12069.9 15.0649
12070.0 29.0453
12070.0 46.2252
12070.0 55.1921
12070.0 46.2710
12070.0 29.1060
12070.1 15.1157
12070.1 9.16888
12070.2 5.38273
12070.4 3.73377
12070.7 3.17745
12071.3 3.01290
12072.6 2.96083
12075.1 2.93369
12080.2 2.89927
12090.3 2.83024
12100.4 2.74834
12110.5 2.64188
12115.6 2.57339
12120.6 2.48948
12125.7 2.38311
12130.7 2.24463
12135.8 2.06069
12140.8 1.84261
12143.4 1.78912
12144.6 1.84423
12145.9 2.05712
12147.2 2.67848
12147.8 3.33338
12148.4 4.47154
12149.0 6.53896
12149.7 10.5353
12150.0 13.9759
12150.3 18.8770
12150.6 26.4309
12150.9 37.3248
12151.5 66.8382
12152.0 93.2104
12152.5 83.8053
12153.1 59.2466
12153.6 41.7324
12154.1 30.8032
12154.6 23.9411
12155.1 19.5116
12155.6 16.3947
12156.1 14.1620
12157.1 11.2593
12158.2 9.46099
12159.2 8.27788
12161.2 6.82480
12163.2 5.97710
12165.2 5.43010
12167.3 5.05018
12169.3 4.77307
12173.4 4.39329
12177.4 4.14752
12181.5 3.97504
12185.5 3.84710
12193.6 3.66898
12201.7 3.55001
12209.8 3.46367
12217.9 3.39740
12234.1 3.29974
12250.4 3.22827
12282.8 3.11999
12315.2 3.02420
12331.4 2.97131
12347.6 2.90728
12363.8 2.81902
12371.9 2.75664
12380.0 2.67090
12384.1 2.61345
12388.2 2.54093
12392.2 2.44558
12396.3 2.31396
12400.3 2.12023
12402.3 1.98639
12404.4 1.81881
12408.4 1.46460
12409.4 1.58450
12409.9 1.83576
12410.4 2.39442
12411.0 3.69325
12411.2 4.89213
12411.5 6.80565
12411.7 10.1425
12412.0 15.7733
12412.2 26.0477
12412.5 45.2664
12412.7 81.0320
12413.0 113.596
12413.3 102.271
12413.5 71.8915
12413.8 49.5908
12414.1 35.9987
12414.4 27.6256
12414.6 22.3712
12414.9 18.6317
12415.2 15.9739
12415.7 12.5683
12416.2 10.4514
12416.8 9.07620
12417.8 7.37767
12418.9 6.39569
12420.0 5.76302
12421.0 5.32419
12422.1 5.00573
12424.2 4.56801
12426.4 4.28621
12428.5 4.08832
12430.6 3.94290
12434.9 3.74172
12439.2 3.60894
12443.4 3.51419
12447.7 3.44271
12456.3 3.34070
12464.8 3.27008
12481.9 3.17437
12499.0 3.10769
12516.1 3.05423
12550.2 2.96106
12584.4 2.86171
12601.5 2.79974
12618.6 2.71967
12627.1 2.66802
12635.6 2.60404
12644.2 2.52128
12652.7 2.40835
12657.0 2.33440
12661.3 2.24335
12665.5 2.12897
12669.8 1.98322
12678.3 1.63410
12680.5 1.67711
12681.6 1.83090
12682.6 2.20858
12683.7 3.11904
12684.2 4.00791
12684.8 5.42940
12685.3 7.88306
12685.8 12.1574
12686.4 20.1000
12686.9 35.2730
12687.4 63.3337
12688.0 89.2841
12688.6 80.8007
12689.1 57.1291
12689.5 44.9928
12689.8 36.2915
12690.5 25.2585
12691.2 18.9751
12691.9 15.2066
12692.7 12.7073
12693.4 11.0017
12694.8 8.81843
12696.2 7.51674
12697.6 6.66492
12700.4 5.63185
12703.2 5.03576
12706.0 4.65077
12708.9 4.38256
12711.7 4.18528
12717.3 3.91461
12723.0 3.73731
12728.6 3.61169
12734.2 3.51770
12745.5 3.38465
12756.8 3.29361
12779.3 3.17227
12801.9 3.08980
12824.4 3.02544
12869.5 2.91907
12914.7 2.81815
12959.8 2.70331
12982.3 2.63355
13004.9 2.54950
13016.1 2.49972
13027.4 2.44296
13038.7 2.37736
13044.3 2.34206
13047.2 2.33071
13048.6 2.35499
13049.3 2.48095
13049.6 2.94114
13049.8 4.46793
13049.9 8.53827
13049.9 14.8834
13049.9 21.8241
13050.0 35.7787
13050.0 69.2617
13050.0 35.8600
13050.1 17.9125
13050.1 9.64630
13050.2 4.96000
13050.4 3.10714
13050.7 2.51894
13051.3 2.34873
13052.6 2.29440
13055.1 2.26204
13060.3 2.21447
13070.5 2.11052
13080.7 1.98222
13090.9 1.82020
13111.3 1.41261
13116.4 1.42303
13119.0 1.55403
13121.5 1.91123
13124.1 2.82220
13125.4 3.73767
13126.6 5.26653
13127.9 7.98461
13129.2 13.0412
13129.8 17.2460
13130.5 23.3282
13131.1 32.2397
13131.7 45.0154
13132.9 80.1521
13134.0 111.657
13135.1 99.4662
13136.3 69.1393
13137.2 50.3812
13138.1 38.0817
13138.6 33.6143
13139.0 29.9894
13139.5 27.2034
13139.7 26.6782
13139.8 28.2453
13139.9 32.3372
13139.9 37.9862
13140.0 48.2541
13140.0 72.0457
13140.0 47.8613
13140.1 32.9006
13140.1 28.3826
13140.2 24.8740
13140.4 22.8027
13140.8 20.9395
13141.5 18.4334
13142.2 16.4782
13142.9 14.9254
13144.3 12.5694
13145.8 10.9051
13148.6 8.71580
13151.5 7.36225
13154.3 6.44468
13157.2 5.78352
13162.9 4.87024
13168.6 4.21653
13174.3 3.61020
13177.1 3.24302
13178.5 3.01278
13180.0 2.72926
13181.4 2.35675
13182.8 1.87469
13183.5 1.64091
13184.2 1.71425
13184.6 2.27730
13184.8 2.95263
13185.0 4.09594
13185.1 6.32346
13185.3 10.6740
13185.4 14.3380
13185.5 19.6821
13185.6 27.5532
13185.7 38.4866
13185.8 71.1750
13186.0 104.736
13186.1 105.858
13186.2 96.7688
13186.3 70.1195
13186.4 55.9852
13186.6 45.0952
13186.8 31.8747
13187.0 24.0559
13187.2 19.4959
13187.4 16.3521
13187.6 14.2633
13188.0 11.5631
13188.5 9.88762
13188.9 8.78084
13189.8 7.43194
13190.6 6.62712
13191.5 6.10274
13192.3 5.72916
13193.2 5.44831
13194.9 5.04888
13196.6 4.77763
13198.3 4.57738
13199.1 4.49597
13199.6 4.46260
13199.8 4.46177
13199.9 4.50930
13200.0 6.09508
13200.0 7.77391
13200.0 6.09671
13200.1 4.52245
13200.2 4.43705
13200.4 4.39870
13200.7 4.36404
13201.4 4.31107
13202.8 4.21979
13205.6 4.06857
13211.2 3.84329
13216.8 3.67412
13222.3 3.53586
13233.5 3.30435
13244.6 3.09065
13255.8 2.85222
13261.4 2.70444
13266.9 2.51842
13272.5 2.26302
13275.3 2.09247
13278.1 1.88058
13283.7 1.38253
13285.1 1.43811
13285.8 1.64566
13286.4 2.15053
13286.8 2.62597
13287.1 3.36210
13287.5 4.52074
13287.8 6.32410
13288.2 9.40347
13288.5 14.7657
13288.9 24.5214
13289.2 41.9458
13289.6 76.2951
13290.0 108.468
13290.4 98.8468
13290.8 70.2124
13291.2 46.3992
13291.7 32.8340
13292.1 24.9001
13292.6 20.0278
13293.0 16.6967
13293.5 14.4068
13294.4 11.4157
13295.3 9.59015
13296.1 8.39979
13297.9 6.94141
13299.7 6.08722
13301.5 5.53440
13303.3 5.14407
13305.1 4.85626
13308.6 4.45485
13312.2 4.18620
13319.3 3.83991
13326.5 3.61485
13333.6 3.44568
13347.9 3.17472
13362.2 2.90975
13369.3 2.75227
13376.5 2.55543
13380.0 2.43267
13383.6 2.28529
13387.2 2.10354
13390.7 1.87423
13394.3 1.58638
13397.9 1.29269
13399.7 1.29263
13400.6 1.45440
13401.4 1.89854
13401.9 2.33270
13402.3 2.99935
13402.8 4.08419
13403.2 5.80875
13403.7 8.77329
13404.1 13.8415
13404.6 23.3172
13405.0 40.5988
13405.5 74.9191
13406.0 107.730
13406.5 98.5773
13407.0 70.1225
13407.4 54.2614
13407.7 42.9000
13408.1 34.8721
13408.4 29.1079
13409.1 21.6646
13409.8 17.2862
13410.5 14.4122
13411.2 12.4623
13412.6 9.97314
13414.0 8.47977
13415.4 7.50731
13418.1 6.31836
13420.9 5.62093
13423.7 5.16533
13426.5 4.84122
13429.3 4.59895
13434.9 4.25420
13440.4 4.01424
13451.6 3.67600
13462.7 3.40245
13468.3 3.26006
13473.8 3.09587
13479.4 2.88766
13482.2 2.75640
13485.0 2.60233
13487.8 2.43323
13490.6 2.35000
13491.9 2.51858
13492.6 2.78778
13493.3 3.33921
13494.0 4.52520
13494.4 5.58823
13494.7 7.16956
13495.1 9.74050
13495.4 13.9695
13495.8 21.1586
13496.1 33.0601
13496.6 59.2800
13497.0 83.0327
13497.5 75.1188
13497.9 53.5701
13498.3 38.2174
13498.7 28.7451
13499.1 22.5815
13499.6 18.6014
13500.4 13.7919
13501.2 11.1357
13502.0 9.49757
13502.9 8.40399
13504.5 7.06239
13506.2 6.27311
13507.8 5.76049
13509.5 5.40218
13511.2 5.13939
13514.5 4.77538
13517.8 4.53669
13521.1 4.36682
13524.4 4.23901
13531.0 4.05744
13537.7 3.93285
13544.3 3.84051
13550.9 3.76838
13564.2 3.66040
13577.4 3.58139
13603.9 3.46839
13630.4 3.38717
13657.0 3.32294
13683.5 3.26890
13696.7 3.24451
13703.4 3.23293
13706.7 3.22773
13708.3 3.22706
13709.2 3.23421
13709.6 3.26508
13709.8 3.37868
13709.9 3.70349
13709.9 4.43339
13710.0 5.98761
13710.0 10.9709
13710.0 18.7058
13710.0 10.9784
13710.1 5.99326
13710.1 4.43720
13710.1 3.70569
13710.2 3.36663
13710.5 3.26246
13710.9 3.23090
13711.7 3.22125
13713.5 3.21622
13716.9 3.20993
13723.8 3.19848
13737.5 3.17650
13765.0 3.13464
13792.4 3.09506
13806.2 3.07834
13813.0 3.08010
13816.5 3.11855
13818.2 3.27854
13818.6 3.43648
13819.1 3.85456
13819.3 4.40113
13819.5 5.67137
13819.6 7.19015
13819.7 10.0399
13819.8 13.3448
13819.8 18.1096
13819.9 26.5706
13819.9 34.8293
13819.9 45.3764
13820.0 68.6425
13820.0 87.5494
13820.1 68.7747
13820.1 45.5355
13820.1 31.8735
13820.2 22.6970
13820.3 13.4495
13820.3 9.36178
13820.4 7.46007
13820.6 5.37192
13820.7 4.51855
13821.0 3.77904
13821.3 3.49487
13822.5 3.18539
13825.0 3.11334
13827.4 3.18945
13828.1 3.28126
13828.7 3.52999
13829.0 3.85589
13829.3 4.63409
13829.4 5.60981
13829.6 7.61980
13829.7 9.78439
13829.7 13.1402
13829.8 20.7314
13829.9 27.5384
13829.9 36.8466
13829.9 55.7012
13830.0 70.4715
13830.1 55.7179
13830.1 36.8668
13830.2 25.5819
13830.2 18.2628
13830.3 11.4740
13830.4 8.06244
13830.5 6.47485
13830.7 4.87183
13830.9 4.19941
13831.2 3.60527
13831.6 3.37781
13833.1 3.13057
13836.1 3.05791
13842.1 3.03004
13854.1 3.00658
13878.1 2.96814
13926.0 2.88721
13950.0 2.84128
13973.9 2.78956
13997.9 2.73020
14009.9 2.70070
14015.9 2.70371
14018.9 2.77992
14019.6 2.86321
14020.4 3.09144
14020.8 3.39354
14021.1 4.13263
14021.3 5.03104
14021.5 6.89046
14021.6 8.99920
14021.7 12.4881
14021.8 19.4207
14021.8 26.3189
14021.9 36.2189
14021.9 55.3777
14022.0 70.1616
14022.1 55.5085
14022.1 36.3774
14022.2 24.8324
14022.3 17.5362
14022.4 10.7667
14022.5 7.67019
14022.6 6.03954
14022.8 4.48246
14023.0 3.79356
14023.5 3.21665
14023.9 2.98685
14024.8 2.80523
14025.7 2.73621
14029.2 2.65549
14036.3 2.60982
14050.4 2.54259
14064.5 2.46518
14078.7 2.36628
14092.8 2.22923
14099.9 2.13575
14106.9 2.01397
14114.0 1.84499
14117.5 1.73297
14121.0 1.59511
14124.6 1.43085
14128.1 1.30006
14129.9 1.37615
14130.8 1.55298
14131.6 1.96728
14132.5 2.95348
14133.0 3.89588
14133.4 5.44072
14133.9 8.09103
14134.3 12.9086
14134.7 22.2597
14135.0 30.0818
14135.2 41.2074
14135.6 73.4458
14136.0 101.264
14136.4 89.5614
14136.8 62.2892
14137.1 46.5911
14137.5 35.7979
14137.8 28.4321
14138.1 23.4297
14138.7 17.0038
14139.3 13.2787
14139.9 10.8892
14140.5 9.30145
14141.7 7.32460
14143.0 6.15739
14144.2 5.40681
14146.6 4.49756
14149.1 3.96606
14151.5 3.61710
14156.4 3.17288
14161.3 2.88624
14166.2 2.66894
14176.0 2.31002
14185.7 1.95081
14190.6 1.74780
14195.5 1.52572
14200.4 1.31469
14202.9 1.25799
14205.3 1.32098
14207.8 1.72608
14209.0 2.24032
14210.2 3.21361
14211.4 5.13079
14212.0 6.72952
14212.6 9.06504
14213.3 12.5522
14213.9 17.8784
14214.5 26.1639
14215.1 39.0669
14216.0 71.7856
14217.0 102.855
14218.0 93.8827
14218.9 66.6539
14220.0 45.1122
14221.0 32.5179
14222.0 24.8671
14223.1 20.0371
14224.1 16.7451
14225.1 14.4360
14227.2 11.4320
14229.3 9.59156
14231.3 8.37016
14235.5 6.87080
14239.6 5.98992
14243.7 5.41470
14247.9 5.00747
14252.0 4.70420
14260.3 4.27675
14268.5 3.98364
14285.1 3.58165
14301.6 3.27049
14309.9 3.11265
14318.2 2.93060
14326.4 2.69147
14330.6 2.52970
14334.7 2.31785
14338.8 2.02132
14340.9 1.82491
14343.0 1.58883
14345.0 1.32427
14346.1 1.21354
14347.1 1.18546
14348.1 1.43189
14348.7 1.82683
14349.2 2.62069
14349.7 4.29414
14350.0 5.75627
14350.2 7.85140
14350.5 11.1745
14350.7 16.4069
14351.0 24.8170
14351.2 37.7103
14351.6 70.5672
14352.0 101.435
14352.2 102.485
14352.4 93.4754
14352.8 67.4237
14353.2 44.8647
14353.7 31.9694
14354.1 24.4093
14354.6 19.7543
14355.0 16.5627
14355.5 14.3199
14356.4 11.4522
14357.3 9.69110
14358.1 8.53679
14359.9 7.10859
14361.7 6.27295
14363.5 5.72745
14365.3 5.34401
14367.1 5.06113
14370.7 4.66652
14374.2 4.40462
14381.4 4.07455
14388.6 3.86970
14395.7 3.72654
14410.0 3.53059
14424.3 3.39336
14438.6 3.28390
14467.2 3.09731
14495.8 2.90759
14510.1 2.79491
14524.4 2.65664
14531.6 2.57230
14538.8 2.47376
14545.9 2.35702
14553.1 2.21974
14560.2 2.07320
14563.8 2.01827
14567.4 2.02210
14570.9 2.21185
14572.7 2.48915
14574.5 3.04675
14576.3 4.21127
14577.2 5.24635
14578.1 6.80693
14579.0 9.28677
14579.9 13.2694
14580.8 19.9239
14581.7 31.1530
14582.8 55.6426
14584.0 78.3760
14585.2 70.9291
14586.3 50.2387
14587.3 37.1510
14588.3 28.4422
14589.3 22.6716
14590.2 18.7650
14592.1 13.9329
14594.1 11.1886
14596.0 9.46173
14597.9 8.30489
14601.8 6.86812
14605.7 6.02278
14609.5 5.47401
14613.4 5.08998
14617.3 4.80670
14625.0 4.41624
14632.7 4.15912
14640.4 3.97554
14648.2 3.83669
14663.6 3.63615
14679.1 3.49351
14694.5 3.38181
14702.3 3.33315
14706.1 3.31042
14708.0 3.30054
14709.0 3.30054
14709.5 3.31894
14709.7 3.39170
14709.9 3.61806
14709.9 4.17171
14709.9 5.14070
14710.0 10.6954
14710.0 18.1042
14710.0 10.7141
14710.1 4.70561
14710.1 3.80335
14710.2 3.44464
14710.4 3.32939
14710.8 3.29508
14711.6 3.28177
14713.2 3.27062
14716.3 3.25270
14722.5 3.21880
14735.0 3.15377
14760.0 3.02617
14785.0 2.88880
14797.5 2.81076
14803.7 2.76801
14806.9 2.74558
14808.4 2.73428
14809.2 2.72950
14809.6 2.73068
14809.8 2.74418
14809.9 2.79137
14810.0 3.94316
14810.0 5.16925
14810.0 3.94800
14810.1 2.80414
14810.2 2.74635
14810.4 2.72685
14810.7 2.71851
14811.4 2.71154
14812.8 2.70021
14815.6 2.67763
14821.2 2.62978
14832.3 2.52049
14843.4 2.38626
14854.6 2.21657
14865.7 1.99893
14876.8 1.75373
14882.4 1.70456
14885.2 1.77452
14888.0 2.01844
14890.8 2.68577
14892.1 3.36157
14893.5 4.49167
14894.9 6.44450
14896.3 9.97095
14897.7 16.6608
14899.1 29.7108
14900.6 54.1997
14902.0 77.4084
14903.5 71.0012
14904.9 50.9311
14905.9 40.0146
14906.9 32.1359
14908.8 22.3065
14910.8 16.8911
14912.7 13.6283
14914.7 11.5060
14916.6 10.0394
14920.5 8.18029
14924.4 7.06418
14928.3 6.33135
14936.1 5.43207
14943.9 4.90389
14951.7 4.55660
14959.5 4.30916
14967.3 4.12239
14982.8 3.85416
14998.4 3.66424
15029.6 3.38843
15060.8 3.15766
15076.4 3.03669
15091.9 2.89835
15107.5 2.72327
15115.3 2.61009
15123.1 2.46598
15130.9 2.26682
15134.8 2.13117
15138.7 1.95483
15142.6 1.71122
15146.5 1.35991
15148.4 1.14243
15150.4 1.00547
15151.4 1.15866
15151.9 1.42858
15152.3 1.98317
15152.8 3.16852
15153.1 4.18455
15153.3 5.70285
15153.6 8.14040
15153.8 11.8286
15154.0 17.7061
15154.3 27.0896
15154.6 50.9332
15155.0 73.5079
15155.2 74.3697
15155.4 67.8892
15155.7 49.0631
15156.0 38.8170
15156.2 31.2571
15156.7 21.8991
15157.2 16.5293
15157.6 13.3215
15158.1 11.1691
15158.6 9.70217
15159.5 7.81545
15160.5 6.66105
15161.4 5.89570
15163.3 4.95200
15165.2 4.38569
15167.1 4.00742
15170.9 3.51649
15174.7 3.19497
15178.5 2.95125
15186.0 2.56493
15193.6 2.24175
15197.4 2.11866
15201.2 2.07982
15205.0 2.29257
15206.9 2.64283
15208.8 3.36399
15210.7 4.87681
15211.6 6.20636
15212.6 8.19219
15213.5 11.3005
15214.5 16.1969
15215.4 24.2775
15216.3 37.3999
15217.7 67.9800
15219.0 97.0053
15220.3 88.6766
15221.7 63.2567
15222.5 49.8925
15223.4 40.0916
15225.1 27.8936
15226.9 21.1006
15228.6 16.9805
15230.3 14.2893
15232.1 12.4246
15235.5 10.0511
15239.0 8.62515
15242.4 7.68950
15249.4 6.54406
15256.3 5.87345
15263.2 5.43535
15270.1 5.12620
15277.1 4.89600
15290.9 4.57462
15304.7 4.35967
15318.6 4.20426
15332.4 4.08583
15360.1 3.91475
15387.8 3.79465
15443.2 3.63046
15498.6 3.51576
15554.0 3.42300
15609.3 3.33745
15637.0 3.29623
15650.9 3.28992
15654.3 3.30248
15657.8 3.34919
15659.5 3.41813
15661.3 3.60999
15662.1 3.86369
15663.0 4.50095
15663.4 5.28635
15663.9 7.02834
15664.1 8.89630
15664.3 12.2427
15664.4 15.2222
15664.5 19.7692
15664.6 26.9400
15664.7 37.4131
15664.9 57.7219
15665.0 71.6981
15665.1 57.8350
15665.3 37.5541
15665.4 24.7725
15665.5 17.5673
15665.7 13.2894
15665.8 10.6167
15666.1 7.65207
15666.3 6.15555
15666.6 5.27876
15666.9 4.75912
15667.4 4.17456
15668.4 3.69059
15669.5 3.50251
15671.6 3.35437
15673.6 3.29651
15677.8 3.24746
15682.0 3.22350
15698.8 3.16664
15715.5 3.11136
15732.2 3.04032
15740.6 2.99393
15749.0 2.93567
15757.3 2.85901
15765.7 2.75187
15769.9 2.67981
15774.1 2.58899
15778.3 2.47018
15782.4 2.30937
15786.6 2.08154
15790.8 1.76072
15792.9 1.59201
15794.0 1.54890
15795.0 1.61098
15796.0 1.97835
15796.6 2.43813
15797.1 3.30434
15797.6 5.02911
15797.9 6.45208
15798.1 8.52513
15798.4 11.6098
15798.7 16.3005
15798.9 23.5573
15799.2 34.7855
15799.6 63.9679
15800.0 90.9677
15800.4 83.1639
15800.8 59.6606
15801.3 41.3355
15801.7 30.2360
15802.1 23.4345
15802.5 19.1270
15803.0 16.1133
15803.4 13.9683
15804.3 11.1967
15805.1 9.47958
15806.0 8.35103
15807.7 6.95397
15809.4 6.13940
15811.1 5.61071
15812.8 5.24165
15814.5 4.97013
15817.9 4.59823
15821.4 4.35580
15824.8 4.18523
15828.2 4.05884
15835.0 3.88244
15841.9 3.76483
15848.7 3.67975
15855.5 3.61481
15869.2 3.52000
15882.9 3.45158
15910.2 3.35044
15937.6 3.26402
15951.2 3.21739
15964.9 3.16160
15978.6 3.08516
15985.4 3.03113
15992.2 2.95657
15999.1 2.84239
16002.5 2.75737
16005.9 2.63842
16009.3 2.45808
16012.7 2.15655
16014.5 1.92439
16016.2 1.63758
16017.0 1.54666
16017.9 1.79747
16018.3 2.43820
16018.5 3.10059
16018.7 4.22814
16018.9 6.33572
16019.2 10.0879
16019.4 17.3800
16019.5 23.7963
16019.6 32.9381
16019.8 60.5074
16020.0 86.8363
16020.2 79.9015
16020.4 57.2253
16020.6 39.6879
16020.9 29.0383
16021.1 22.5299
16021.3 18.3353
16021.5 15.4833
16021.7 13.4526
16022.2 10.8491
16022.6 9.21206
16023.0 8.14587
16023.9 6.81374
16024.8 6.03510
16025.7 5.52889
16027.4 4.91467
16029.1 4.55614
16030.9 4.32403
16034.4 4.03971
16037.9 3.87139
16041.3 3.76013
16048.3 3.62032
16055.3 3.53441
16062.2 3.47507
16076.2 3.39552
16090.1 3.34143
16104.0 3.29979
16118.0 3.26658
16124.9 3.26103
16128.4 3.29690
16130.2 3.45952
16130.6 3.62338
16131.0 4.04468
16131.3 4.58545
16131.5 5.90710
16131.6 7.42169
16131.7 10.6382
16131.8 14.1359
16131.8 19.1724
16131.9 28.0987
16131.9 47.3917
16132.0 72.1834
16132.0 91.8175
16132.1 72.2587
16132.1 47.4826
16132.1 33.6100
16132.2 25.9345
16132.2 15.8984
16132.3 11.1473
16132.4 8.60262
16132.5 6.14500
16132.6 5.10549
16132.9 4.14914
16133.2 3.78193
16134.3 3.37856
16136.5 3.26099
16140.9 3.22103
16149.6 3.19314
16167.1 3.14921
16184.6 3.10110
16202.1 3.04099
16219.6 2.95533
16228.4 2.89374
16237.1 2.80835
16245.9 2.67890
16250.3 2.58453
16254.6 2.45638
16259.0 2.27327
16263.4 2.00846
16265.6 1.85745
16267.8 1.82487
16268.9 2.05797
16269.4 2.37737
16270.0 2.98621
16270.5 4.21776
16271.1 6.74594
16271.3 9.09528
16271.6 12.5847
16271.9 18.0156
16272.1 26.4741
16272.6 48.3081
16273.0 69.4241
16273.4 63.9736
16273.9 46.0341
16274.3 33.0477
16274.7 24.8421
16275.1 19.6404
16275.5 16.1997
16275.9 13.8170
16276.3 12.0979
16277.1 9.82557
16278.0 8.41948
16278.8 7.47775
16280.4 6.31815
16282.1 5.63338
16283.7 5.18784
16285.3 4.87639
16287.0 4.64827
16290.2 4.33351
16293.5 4.12888
16296.8 3.98486
16300.1 3.87790
16306.6 3.72911
16313.2 3.63016
16319.7 3.55909
16326.2 3.50523
16339.3 3.42777
16352.4 3.37367
16378.6 3.29983
16404.8 3.24843
16431.0 3.20787
16483.4 3.14139
16535.7 3.08128
16588.1 3.01790
16614.3 2.98161
16640.5 2.93909
16666.7 2.88601
16679.7 2.85921
16686.3 2.87654
16687.9 2.91087
16689.6 3.01570
16690.4 3.16194
16691.2 3.55627
16691.6 4.06101
16692.0 5.30767
16692.2 6.80255
16692.4 9.87043
16692.5 12.8561
16692.6 18.0510
16692.7 27.9276
16692.8 36.1992
16692.8 50.3427
16692.9 79.3628
16693.0 98.1558
16693.1 79.4884
16693.2 50.5009
16693.2 36.3500
16693.3 28.0666
16693.4 18.1656
16693.5 12.9509
16693.6 9.94994
16693.8 6.86064
16694.0 5.40228
16694.4 4.12337
16694.8 3.59583
16695.6 3.17089
16696.4 3.00923
16698.0 2.88109
16699.6 2.82899
16706.0 2.74663
16712.5 2.68892
16718.9 2.61816
16725.3 2.51385
16728.5 2.43751
16731.7 2.33222
16735.0 2.17574
16738.2 1.92532
16741.4 1.56690
16742.2 1.58269
16743.0 2.03111
16743.4 2.83085
16743.6 3.61093
16743.8 4.88927
16744.0 7.06268
16744.2 10.9349
16744.4 18.1964
16744.6 32.3137
16744.8 58.2725
16745.0 82.6769
16745.2 74.9962
16745.4 53.1769
16745.7 35.2139
16745.9 24.7437
16746.2 18.7417
16746.4 15.1607
16746.7 12.6838
16746.9 10.9629
16747.4 8.80465
16747.9 7.48291
16748.4 6.63268
16749.4 5.59425
16750.4 4.98685
16751.3 4.59815
16753.3 4.12538
16755.3 3.85101
16757.2 3.67185
16761.2 3.45106
16765.1 3.31874
16769.1 3.22911
16776.9 3.11160
16784.8 3.03332
16792.7 2.97293
16808.5 2.87239
16824.2 2.76986
16832.1 2.70759
16840.0 2.62843
16847.9 2.51606
16851.8 2.43646
16855.8 2.32841
16859.7 2.17066
16863.6 1.91875
16867.6 1.54158
16868.6 1.53171
16869.5 1.90961
16870.0 2.65153
16870.3 3.40095
16870.5 4.59692
16870.8 6.75346
16871.0 10.5112
16871.3 18.0497
16871.4 24.0431
16871.5 32.4204
16871.8 59.1262
16872.0 82.8259
16872.3 74.6992
16872.5 53.1896
16872.8 34.7998
16873.1 24.5419
16873.4 18.6288
16873.7 14.9669
16873.9 12.5451
16874.2 10.8546
16874.8 8.69175
16875.4 7.39288
16876.0 6.53904
16877.1 5.50592
16878.3 4.90117
16879.4 4.50974
16881.8 4.03643
16884.1 3.75808
16886.4 3.57491
16891.0 3.34302
16895.6 3.19706
16900.3 3.09098
16909.5 2.92898
16918.8 2.77846
16923.4 2.69073
16928.0 2.58085
16932.7 2.42678
16935.0 2.31899
16937.3 2.17659
16939.6 1.97787
16941.9 1.70191
16943.1 1.55721
16944.2 1.57453
16944.8 1.88977
16945.1 2.28997
16945.4 3.05059
16945.7 4.54273
16946.0 7.65407
16946.1 10.5576
16946.3 14.7294
16946.4 21.1839
16946.6 31.7182
16946.8 57.9040
16947.0 82.1158
16947.2 75.1146
16947.4 53.3467
16947.7 35.9744
16947.9 25.7449
16948.2 19.7098
16948.4 15.9146
16948.7 13.3783
16948.9 11.5948
16949.4 9.29627
16949.9 7.90655
16950.4 6.98907
16951.4 5.86771
16952.4 5.21631
16953.4 4.79389
16955.4 4.28317
16957.4 3.98338
16959.4 3.78747
16963.4 3.54331
16967.4 3.39503
16971.4 3.29386
16979.4 3.15993
16987.4 3.07053
16995.4 3.00297
17011.3 2.89882
17043.2 2.73174
17075.2 2.56016
17091.1 2.45898
17107.1 2.33933
17123.1 2.19193
17139.0 2.00380
17147.0 1.88909
17155.0 1.75859
17171.0 1.47036
17179.0 1.39382
17182.9 1.45206
17186.9 1.69286
17190.9 2.38147
17192.9 3.09680
17194.9 4.30071
17196.9 6.41458
17198.9 10.2546
17200.9 17.6694
17201.9 23.7815
17202.9 32.2671
17205.0 59.4969
17207.0 85.5506
17209.1 78.6126
17211.1 56.3165
17213.5 37.6549
17215.8 26.9832
17218.2 20.6718
17220.5 16.7207
17222.9 14.0668
17225.2 12.2061
17229.9 9.80071
17234.7 8.33765
17239.4 7.36851
17248.8 6.17907
17258.2 5.48224
17267.6 5.02729
17277.0 4.70639
17286.4 4.46786
17305.3 4.13431
17324.1 3.90947
17333.5 3.82191
17342.9 3.74806
17352.3 3.70000
17357.0 3.74913
17358.2 3.82114
17359.4 4.02189
17360.0 4.28252
17360.6 4.92268
17360.9 5.67299
17361.2 7.20682
17361.3 8.73951
17361.5 11.1778
17361.6 16.0139
17361.7 25.4594
17361.9 38.1533
17362.0 47.3854
17362.1 38.2127
17362.3 25.5315
17362.3 19.1628
17362.4 15.2260
17362.6 10.3853
17362.8 7.96195
17362.9 6.61562
17363.3 5.27289
17363.6 4.66941
17364.3 4.13054
17365.0 3.91338
17366.3 3.73584
17367.7 3.66371
17373.1 3.56618
17383.9 3.48860
17405.5 3.37437
17448.7 3.16258
17470.3 3.03757
17481.1 2.95960
17491.9 2.86093
17502.7 2.72316
17508.1 2.62744
17513.5 2.50018
17518.9 2.32056
17524.3 2.05391
17527.0 1.88612
17529.7 1.78075
17531.0 1.90518
17531.7 2.12526
17532.4 2.58469
17533.0 3.57411
17533.4 4.45337
17533.7 5.74430
17534.0 7.80673
17534.4 10.9895
17534.7 16.3302
17535.0 24.7939
17535.5 45.0491
17536.0 64.5988
17536.5 59.7427
17537.0 43.2130
17537.4 31.5106
17537.8 24.0773
17538.3 19.1431
17538.7 15.9023
17539.6 11.9258
17540.4 9.71362
17541.3 8.31470
17542.2 7.38269
17543.9 6.21474
17545.6 5.52280
17547.4 5.07318
17549.1 4.75714
17550.8 4.52313
17554.3 4.19885
17557.8 3.98515
17561.2 3.83226
17564.7 3.71651
17571.6 3.54995
17578.5 3.43285
17592.4 3.26877
17606.2 3.14751
17620.1 3.04395
17633.9 2.95455
17640.9 2.95869
17642.6 3.00413
17644.3 3.15327
17645.2 3.36398
17646.1 3.91742
17646.5 4.62801
17646.9 6.28747
17647.1 8.17669
17647.4 11.8180
17647.5 15.3230
17647.6 21.1321
17647.7 31.3809
17647.8 49.3715
17647.9 76.3768
17648.0 96.0790
17648.1 76.5341
17648.2 49.5640
17648.3 37.1147
17648.3 29.2058
17648.5 19.3678
17648.6 13.6395
17648.7 10.5750
17649.0 7.23342
17649.2 5.69536
17649.7 4.29025
17650.2 3.70364
17651.2 3.22840
17652.1 3.04046
17654.1 2.88585
17656.1 2.81638
17663.9 2.68013
17671.8 2.56645
17679.6 2.42939
17687.5 2.24157
17691.4 2.11491
17695.3 1.95502
17699.2 1.75172
17703.2 1.53516
17705.1 1.51580
17706.1 1.61062
17707.1 1.89360
17708.1 2.62590
17708.5 3.35617
17709.0 4.56817
17709.5 6.65300
17710.0 10.4111
17710.5 17.5485
17711.0 31.5222
17711.5 57.4723
17712.0 81.3235
17712.5 73.8775
17713.0 52.6455
17713.3 42.0198
17713.6 34.0770
17714.2 24.0231
17714.9 18.1826
17715.5 14.6441
17716.1 12.2717
17716.7 10.6453
17717.9 8.54572
17719.2 7.28399
17720.4 6.45298
17722.9 5.43686
17725.3 4.84374
17727.8 4.45584
17730.2 4.18173
17732.7 3.97680
17737.6 3.68763
17742.5 3.48906
17752.4 3.22077
17762.2 3.03103
17772.0 2.87413
17791.7 2.58445
17811.4 2.25728
17821.2 2.05648
17831.1 1.81831
17840.9 1.54441
17845.8 1.41326
17850.7 1.33419
17855.7 1.44576
17858.1 1.69704
17860.6 2.25715
17863.0 3.47280
17864.3 4.55721
17865.5 6.20696
17866.7 8.77206
17868.0 12.8587
17869.2 19.5101
17870.4 30.2588
17872.2 56.6221
17874.0 82.4238
17875.8 76.5942
17877.6 55.4021
17879.1 41.5269
17880.5 32.1523
17882.0 25.7917
17883.5 21.4195
17886.4 15.9503
17889.4 12.7947
17892.3 10.7904
17895.3 9.42260
17901.2 7.69746
17907.1 6.65689
17913.0 5.96021
17924.8 5.06035
17936.6 4.45229
17948.4 3.91626
17954.3 3.61239
17960.1 3.23313
17963.1 3.00886
17966.0 2.84072
17967.5 2.92638
17968.3 3.12087
17969.0 3.54638
17969.7 4.47965
17970.5 6.54260
17970.8 8.49981
17971.2 11.6262
17971.6 16.7319
17971.9 24.8147
17972.5 44.9379
17973.0 64.2400
17973.5 59.4948
17974.1 43.4245
17974.4 35.4211
17974.7 29.3421
17975.3 21.4974
17976.0 16.8487
17976.6 13.9876
17977.3 12.0471
17977.9 10.7028
17979.1 8.95712
17980.4 7.88203
17981.7 7.16926
17984.2 6.27614
17986.7 5.73831
17989.3 5.37770
17994.3 4.91126
17999.4 4.60792
18004.5 4.38202
18014.6 4.02760
18024.7 3.69525
18029.8 3.50392
18034.8 3.26990
18039.9 2.95356
18042.4 2.74366
18045.0 2.48129
18050.0 1.82661
18051.3 1.81550
18051.9 1.97064
18052.6 2.39227
18053.2 3.42130
18053.5 4.38853
18053.8 5.84783
18054.2 8.24103
18054.5 12.0032
18054.8 18.4438
18055.1 28.8065
18055.6 54.8676
18056.0 80.7675
18056.2 82.6793
18056.5 76.2282
18056.9 56.2023
18057.3 43.4578
18057.6 34.6782
18058.0 28.3668
18058.3 24.0071
18059.0 18.3275
18059.7 14.9652
18060.4 12.7958
18061.1 11.3013
18062.4 9.40242
18063.8 8.26123
18065.2 7.50585
18067.9 6.57553
18070.7 6.02224
18073.5 5.65600
18076.2 5.39474
18079.0 5.19877
18084.5 4.92017
18090.0 4.73025
18101.0 4.48140
18112.1 4.32043
18123.1 4.20417
18145.1 4.04116
18167.2 3.92697
18189.3 3.83914
18233.4 3.70628
18277.5 3.60396
18321.6 3.51676
18365.7 3.43633
18387.8 3.39938
18398.8 3.39489
18404.3 3.45078
18405.7 3.51589
18407.1 3.69942
18407.8 3.94412
18408.4 4.58142
18408.8 5.38472
18409.1 7.21727
18409.3 9.19597
18409.5 13.0867
18409.6 16.8196
18409.6 22.0730
18409.7 31.9325
18409.8 47.2043
18409.9 74.9048
18410.0 91.4945
18410.1 75.1110
18410.2 47.4691
18410.3 32.1807
18410.4 23.1392
18410.4 17.0100
18410.5 13.5907
18410.7 9.48800
18410.9 7.50280
18411.2 5.52988
18411.5 4.70547
18412.2 4.01379
18412.9 3.74540
18414.2 3.53322
18415.5 3.45305
18420.9 3.36251
18431.5 3.31859
18452.9 3.26483
18474.3 3.20845
18495.6 3.13990
18517.0 3.04643
18527.6 2.98178
18538.3 2.89471
18549.0 2.76598
18554.3 2.67330
18559.7 2.54766
18565.0 2.36657
18570.3 2.09242
18573.0 1.91593
18575.7 1.79353
18577.0 1.90196
18577.7 2.10763
18578.4 2.54206
18579.0 3.47896
18579.7 5.51832
18580.0 7.47220
18580.4 10.4755
18580.7 15.2972
18581.0 23.0536
18581.5 42.4892
18582.0 61.1477
18582.5 56.8429
18583.0 41.4984
18583.5 28.8146
18584.1 21.2498
18584.6 16.6729
18585.2 13.7411
18585.7 11.7545
18586.2 10.3422
18587.3 8.51333
18588.4 7.38092
18589.5 6.62672
18591.6 5.69943
18593.8 5.15230
18595.9 4.79632
18598.1 4.54581
18600.2 4.36005
18604.5 4.10215
18608.8 3.93129
18613.2 3.80888
18617.5 3.71630
18626.1 3.58281
18634.7 3.48889
18651.9 3.35753
18669.1 3.26103
18686.4 3.17911
18703.6 3.10478
18712.2 3.08074
18716.5 3.12089
18717.6 3.17638
18718.7 3.33325
18719.2 3.54239
18719.8 4.07724
18720.0 4.72095
18720.3 6.17815
18720.4 7.77501
18720.6 10.5650
18720.7 16.3686
18720.8 22.1769
18720.8 30.2538
18720.9 46.4172
18721.0 57.7666
18721.1 46.5348
18721.2 30.3989
18721.3 21.3084
18721.3 15.2647
18721.5 9.59103
18721.6 7.04309
18721.8 5.71740
18722.1 4.43874
18722.4 3.90202
18723.0 3.44767
18723.6 3.26980
18726.0 3.06940
18730.9 2.99325
18740.6 2.92931
18760.0 2.81391
18779.4 2.67690
18798.8 2.50016
18808.5 2.38881
18818.2 2.25597
18827.9 2.09498
18837.6 1.90034
18847.3 1.67915
18852.2 1.58035
18857.0 1.53894
18861.9 1.69252
18864.3 1.96433
18866.7 2.53623
18869.2 3.74542
18870.4 4.80347
18871.6 6.39704
18872.8 8.87675
18874.0 12.7665
18875.2 19.0401
18876.4 29.1909
18878.2 54.0112
18880.0 78.0339
18881.8 72.1417
18883.6 52.0174
18885.2 37.9443
18886.8 28.7826
18888.4 22.8332
18890.0 18.8278
18893.2 13.9699
18896.5 11.2346
18899.7 9.52311
18902.9 8.36662
18909.3 6.91959
18915.8 6.05658
18922.2 5.48266
18935.1 4.75559
18948.0 4.29185
18960.8 3.94463
18967.3 3.79460
18973.7 3.66229
18976.9 3.61430
18980.2 3.61587
18981.8 3.68158
18983.4 3.91568
18984.2 4.23781
18985.0 5.01657
18985.4 5.88077
18985.8 7.61929
18986.0 9.20530
18986.2 11.7698
18986.4 16.1432
18986.6 23.9365
18986.8 36.2698
18987.0 44.6915
18987.2 36.3492
18987.4 24.0278
18987.6 16.2158
18987.8 11.8186
18988.0 9.23147
18988.2 7.62486
18988.6 5.85048
18989.0 4.95523
18989.8 4.12193
18990.6 3.75289
18992.2 3.42436
18993.8 3.26736
18997.0 3.08440
19000.2 2.94699
19006.6 2.68110
19013.0 2.37584
19019.4 2.00399
19025.8 1.61121
19029.0 1.54916
19030.6 1.66798
19032.2 2.04070
19033.8 2.97440
19034.6 3.85919
19035.4 5.24796
19036.2 7.46223
19037.0 11.0638
19037.8 17.0302
19038.6 26.9336
19039.8 51.9307
19041.0 77.9995
19041.6 80.2554
19042.2 74.4209
19043.4 55.0161
19044.3 42.3090
19045.2 33.5056
19046.2 27.3677
19047.1 23.0882
19049.0 17.6192
19050.8 14.4030
19052.7 12.3341
19054.6 10.9103
19058.3 9.10417
19062.1 8.01312
19065.8 7.28915
19073.3 6.39254
19080.7 5.85803
19088.2 5.50299
19095.7 5.24874
19103.2 5.05690
19118.1 4.78462
19133.1 4.59888
19162.9 4.35766
19192.8 4.20444
19222.7 4.09651
19282.5 3.95127
19342.3 3.85566
19402.1 3.78654
19521.7 3.69097
19641.3 3.62622
19760.8 3.57833
20000.0 3.51035
20000.0 6.03380
25000.0 5.78510
30000.0 5.60123
35000.0 5.45675
40000.0 5.33890
50000.0 5.15527
60000.0 5.01594
70000.0 4.90448
80000.0 4.81194
99999.9 4.66418
100000 4.66422
125000 4.71803
150000 4.79595
167100 4.86179
167105 4.86179
200000 5.00341
225000 5.11275
250000 5.21979
300000 5.41843
350000 5.59368
400000 5.74726
450000 5.88010
500000 5.99132
600000 6.17548
700000 6.33647
800000 6.49658
900000 6.65663
1.00000E+06 6.81662
1.21780E+06 7.06822
1.22790E+06 7.07505
1.26590E+06 7.09746
1.26593E+06 7.09745
1.39130E+06 7.13478
1.39133E+06 7.13473
1.43030E+06 7.13599
1.43031E+06 7.13598
1.43080E+06 7.13584
1.43082E+06 7.13583
1.48700E+06 7.12976
1.48702E+06 7.12973
1.54260E+06 7.11555
1.54890E+06 7.11349
1.54910E+06 7.11336
1.56970E+06 7.10593
1.56972E+06 7.10592
1.75000E+06 7.00583
2.01560E+06 6.78326
2.25000E+06 6.55472
2.50000E+06 6.30556
2.75000E+06 6.06279
3.00000E+06 5.83024
3.25000E+06 5.60848
3.50000E+06 5.39887
3.75000E+06 5.20314
4.05970E+06 4.98172
4.25000E+06 4.85825
4.50000E+06 4.71165
4.75000E+06 4.58342
5.00000E+06 4.47442
5.25000E+06 4.38489
5.50000E+06 4.31523
5.75000E+06 4.26462
6.00000E+06 4.23227
6.30030E+06 4.21545
6.43110E+06 4.21504
6.75000E+06 4.22857
7.00000E+06 4.25163
7.25000E+06 4.28295
7.59640E+06 4.33623
7.75000E+06 4.36229
8.00000E+06 4.40672
8.25000E+06 4.45233
8.50000E+06 4.49800
8.84190E+06 4.55934
8.84195E+06 4.55935
9.00000E+06 4.58678
9.25000E+06 4.62872
9.50000E+06 4.66860
9.75000E+06 4.70596
1.00000E+07 4.74099
1.02500E+07 4.77327
1.05000E+07 4.80278
1.07500E+07 4.82958
1.09270E+07 4.84678
1.12500E+07 4.87446
1.15000E+07 4.89269
1.17500E+07 4.90799
1.20000E+07 4.92037
1.22500E+07 4.93012
1.25000E+07 4.93709
1.27500E+07 4.94145
1.30000E+07 4.94322
1.32500E+07 4.94237
1.35000E+07 4.93923
1.37500E+07 4.93359
1.40000E+07 4.92585
1.42500E+07 4.91577
1.45000E+07 4.90366
1.47500E+07 4.88948
1.50000E+07 4.87352
1.52500E+07 4.85558
1.55000E+07 4.83595
1.57500E+07 4.81467
1.60000E+07 4.79178
1.63680E+07 4.75561
1.63680E+07 4.75561
1.65000E+07 4.74190
1.67500E+07 4.71507
1.70000E+07 4.68713
1.72500E+07 4.65812
1.75000E+07 4.62829
1.77500E+07 4.59773
1.80000E+07 4.56641
1.82500E+07 4.53473
1.85000E+07 4.50250
1.87500E+07 4.47007
1.90000E+07 4.43760
1.92500E+07 4.40511
1.95000E+07 4.37261
1.97500E+07 4.34036
2.00000E+07 4.30855