Nd-142(n,tot) ENDF/B-VII.1
Energy(eV) XS(b)
1.00000E-05 950.742
1.25000E-05 851.208
1.50000E-05 777.735
2.00000E-05 674.602
2.75000E-05 576.471
3.50000E-05 511.889
4.25000E-05 465.266
5.00000E-05 429.574
6.25000E-05 385.060
7.50000E-05 352.202
0.000100000 306.079
0.000125000 274.603
0.000150000 251.369
0.000200000 218.755
0.000275000 187.722
0.000350000 167.299
0.000425000 152.555
0.000500000 141.268
0.000625000 127.191
0.000750000 116.799
0.00100000 102.213
0.00125000 92.2579
0.00150000 84.9094
0.00200000 74.5942
0.00275000 64.7785
0.00350000 58.3179
0.00425000 53.6536
0.00500000 50.0824
0.00625000 45.6281
0.00750000 42.3396
0.0100000 37.7224
0.0125000 34.5705
0.0150000 32.2430
0.0200000 28.9742
0.0253000 26.6293
0.0314750 24.6828
0.0376500 23.2361
0.0500000 21.1912
0.0625000 19.7716
0.0750000 18.7215
0.100000 17.2424
0.125000 16.2282
0.150000 15.4757
0.200000 14.4114
0.275000 13.3849
0.350000 12.6974
0.500000 11.7978
0.750000 10.9098
1.00000 10.3453
1.50000 9.61307
2.00000 9.12235
2.75000 8.59293
3.50000 8.19513
5.00000 7.60465
7.50000 6.92827
10.0000 6.45062
12.5000 6.08733
15.0000 5.79900
20.0000 5.36695
27.5000 4.93212
35.0000 4.63916
42.5000 4.42782
50.0000 4.26793
62.5000 4.07304
75.0000 3.93392
87.5000 3.82941
100.000 3.74787
125.000 3.62843
150.000 3.54466
175.000 3.48225
187.500 3.45658
200.000 3.43389
204.644 3.42629
209.288 3.41955
211.610 3.41705
212.771 3.41643
213.932 3.41682
215.093 3.41973
215.673 3.42355
216.254 3.43128
216.544 3.43812
216.834 3.44885
217.125 3.46679
217.415 3.49984
217.560 3.52782
217.705 3.57056
217.850 3.64057
217.995 3.76692
218.068 3.87223
218.140 4.03092
218.213 4.28696
218.285 4.73802
218.322 5.10590
218.358 5.64930
218.394 6.49982
218.431 7.93384
218.467 10.6484
218.485 13.0162
218.503 16.7081
218.521 22.9697
218.539 34.5240
218.549 44.2931
218.558 58.6841
218.567 80.9717
218.576 114.796
218.588 181.427
218.600 225.764
218.612 180.854
218.625 114.353
218.633 83.7657
218.641 62.7962
218.657 38.4761
218.673 26.1111
218.688 19.2060
218.704 14.9665
218.720 12.2114
218.752 8.99155
218.784 7.25045
218.816 6.21244
218.880 5.08696
218.944 4.52239
219.008 4.20036
219.072 3.99956
219.136 3.86617
219.263 3.70503
219.391 3.61532
219.519 3.56018
219.647 3.52393
219.902 3.48059
220.158 3.45658
220.413 3.44185
220.669 3.43210
221.180 3.42027
221.691 3.41348
222.712 3.40602
223.734 3.40184
224.756 3.39901
226.800 3.39514
228.844 3.39281
230.888 3.39315
231.910 3.39656
232.421 3.40076
232.932 3.40907
233.443 3.42773
233.698 3.44667
233.954 3.48142
234.082 3.51076
234.209 3.55551
234.337 3.62868
234.465 3.76026
234.529 3.86962
234.593 4.03422
234.657 4.29851
234.720 4.76148
234.752 5.13780
234.784 5.68897
234.816 6.54493
234.848 7.97726
234.880 10.6497
234.896 12.9370
234.912 16.4379
234.928 22.2319
234.944 32.5189
234.960 52.9661
234.968 70.6903
234.976 96.2523
234.988 151.982
235.000 189.140
235.012 151.990
235.024 96.2623
235.032 70.1677
235.040 52.4350
235.049 40.4121
235.057 32.0928
235.073 21.8668
235.089 16.1979
235.105 12.7351
235.121 10.4928
235.154 7.88126
235.186 6.47387
235.218 5.63663
235.251 5.09628
235.283 4.72971
235.348 4.27653
235.412 4.01829
235.477 3.85737
235.542 3.75039
235.671 3.62143
235.801 3.54961
235.930 3.50551
236.059 3.47651
236.318 3.44181
236.577 3.42257
237.094 3.40289
237.612 3.39332
238.130 3.38777
239.165 3.38154
241.235 3.37534
243.305 3.37145
247.445 3.36539
251.585 3.36005
259.866 3.35020
268.146 3.34100
301.268 3.30847
367.512 3.25724
433.756 3.21724
500.000 3.18385
568.188 3.15373
602.282 3.13979
619.329 3.13319
627.852 3.13062
632.114 3.13203
633.179 3.13479
634.245 3.14337
634.778 3.15563
635.310 3.19042
635.577 3.23823
635.710 3.28541
635.843 3.37024
635.976 3.54695
636.043 3.71757
636.109 4.01743
636.143 4.26077
636.176 4.61878
636.209 5.17618
636.243 6.11233
636.276 7.86106
636.293 9.36904
636.309 11.6906
636.326 15.5621
636.342 22.5178
636.351 28.2067
636.359 36.4693
636.367 48.7316
636.376 66.9031
636.388 105.235
636.400 130.817
636.412 105.238
636.424 66.9077
636.434 46.1412
636.444 33.1127
636.454 24.8746
636.464 19.4811
636.483 13.2207
636.503 9.93651
636.522 8.00541
636.542 6.79170
636.581 5.40373
636.620 4.67513
636.659 4.24675
636.698 3.97401
636.737 3.78982
636.816 3.56431
636.894 3.43680
637.050 3.30544
637.207 3.24259
637.363 3.20776
637.676 3.17245
638.302 3.14656
638.927 3.13720
640.179 3.13014
641.430 3.12733
646.435 3.12314
656.446 3.11873
676.468 3.11099
716.512 3.09605
796.600 3.06695
876.688 3.03817
916.731 3.02371
936.753 3.01654
946.764 3.01333
951.770 3.01332
954.272 3.01963
954.898 3.02681
955.524 3.04743
955.837 3.07595
956.150 3.15516
956.306 3.26183
956.384 3.36538
956.462 3.54846
956.541 3.91909
956.580 4.26619
956.619 4.85580
956.658 5.97670
956.677 6.96088
956.697 8.50702
956.717 11.1557
956.736 16.1244
956.746 20.3949
956.756 26.8781
956.765 37.0479
956.775 52.8916
956.788 82.9511
956.800 102.778
956.813 82.6962
956.825 52.8937
956.836 35.9078
956.846 25.6180
956.857 19.1873
956.867 15.0852
956.888 10.3740
956.909 7.93174
956.930 6.51910
956.952 5.63342
956.994 4.63272
957.036 4.10939
957.078 3.80313
957.162 3.47808
957.247 3.31803
957.331 3.22784
957.500 3.13508
957.837 3.06621
958.174 3.04132
958.849 3.02305
959.523 3.01640
962.222 3.00916
967.619 3.00559
978.413 3.00119
1000.00 2.99305
1059.49 2.97040
1089.23 2.95883
1104.10 2.95307
1111.54 2.95066
1115.26 2.95139
1117.12 2.95939
1117.58 2.96816
1118.05 2.99299
1118.28 3.02720
1118.51 3.12085
1118.63 3.24520
1118.74 3.57223
1118.80 3.98370
1118.83 4.35992
1118.86 4.98242
1118.89 6.11934
1118.90 7.11375
1118.92 8.51722
1118.93 10.9356
1118.95 14.8238
1118.96 22.6599
1118.97 28.7172
1118.98 38.0090
1118.99 59.4682
1119.00 73.1830
1119.01 59.4709
1119.02 38.0125
1119.04 25.0106
1119.05 17.8231
1119.06 13.4817
1119.07 10.7334
1119.08 8.77451
1119.09 7.55022
1119.11 6.01518
1119.14 5.10045
1119.16 4.55851
1119.20 3.94450
1119.25 3.61849
1119.29 3.42935
1119.38 3.23152
1119.56 3.07906
1119.74 3.02300
1120.10 2.98119
1120.45 2.96611
1121.88 2.95081
1124.74 2.94589
1130.46 2.94262
1141.90 2.93772
1164.77 2.92821
1210.51 2.90875
1302.00 2.86727
1393.49 2.82151
1439.23 2.79665
1462.10 2.78367
1473.54 2.77713
1479.26 2.77425
1482.12 2.77448
1483.55 2.78121
1484.26 2.80999
1484.44 2.83905
1484.62 2.91745
1484.71 3.02134
1484.80 3.28594
1484.84 3.61384
1484.89 4.35720
1484.91 5.20099
1484.93 6.80080
1484.94 8.22572
1484.95 10.4787
1484.96 14.2145
1484.98 21.1416
1484.99 32.2257
1485.00 39.4398
1485.01 32.2276
1485.02 21.0684
1485.04 13.7898
1485.05 9.98541
1485.06 7.63642
1485.07 6.32689
1485.10 4.84634
1485.12 4.14259
1485.17 3.47705
1485.22 3.20271
1485.32 2.97827
1485.42 2.89250
1485.62 2.82666
1485.81 2.80238
1486.60 2.77767
1488.18 2.77044
1491.34 2.76694
1497.65 2.76272
1510.27 2.75488
1535.51 2.73895
1585.99 2.70524
1611.23 2.68741
1636.47 2.66904
1661.71 2.65165
1668.02 2.64894
1674.33 2.65055
1677.49 2.65737
1680.64 2.68157
1682.22 2.71759
1683.01 2.75426
1683.80 2.82172
1684.58 2.96664
1684.98 3.11102
1685.37 3.37235
1685.57 3.59246
1685.77 3.92495
1685.97 4.46455
1686.16 5.42667
1686.26 6.22362
1686.36 7.40077
1686.46 9.28890
1686.56 12.5155
1686.66 18.8764
1686.70 24.5450
1686.75 33.7375
1686.80 50.4818
1686.83 64.2662
1686.85 83.7086
1686.88 114.965
1686.90 163.833
1686.93 251.822
1686.95 405.741
1686.98 645.120
1687.00 809.109
1687.03 645.165
1687.05 405.808
1687.07 276.606
1687.09 196.435
1687.11 144.775
1687.13 110.440
1687.16 69.9588
1687.20 48.3124
1687.24 35.2755
1687.28 27.2427
1687.36 18.0134
1687.43 13.0839
1687.51 10.2177
1687.59 8.36533
1687.66 7.12938
1687.81 5.60260
1687.97 4.73845
1688.12 4.20249
1688.27 3.84931
1688.58 3.42193
1688.88 3.18549
1689.49 2.94517
1690.11 2.83159
1690.72 2.76910
1691.94 2.70582
1694.38 2.65873
1696.83 2.64074
1701.72 2.62509
1706.61 2.61683
1716.39 2.60535
1726.17 2.59560
1745.73 2.57688
1765.29 2.55789
1804.41 2.51781
1843.53 2.47414
1921.76 2.37317
2000.00 2.24793
2107.74 2.01429
2161.61 1.85647
2215.48 1.65648
2269.35 1.39526
2323.22 1.04325
2350.16 0.821231
2377.09 0.564520
2404.03 0.284656
2417.49 0.154355
2420.86 0.127293
2424.23 0.107304
2425.91 0.104858
2427.60 0.121758
2428.44 0.155919
2429.28 0.262050
2429.70 0.412314
2429.91 0.562263
2430.12 0.831929
2430.33 1.39807
2430.44 1.94336
2430.54 2.90173
2430.65 4.82264
2430.70 6.62321
2430.75 9.58686
2430.80 15.2288
2430.83 19.9861
2430.86 27.3160
2430.88 39.9882
2430.91 62.1218
2430.92 80.1532
2430.94 106.256
2430.95 144.859
2430.96 204.562
2430.98 329.027
2431.00 409.214
2431.02 329.111
2431.04 204.671
2431.06 116.646
2431.08 71.1144
2431.11 46.9797
2431.13 33.5401
2431.15 24.7404
2431.17 19.1673
2431.22 12.3329
2431.27 8.52159
2431.31 6.27679
2431.40 3.81431
2431.49 2.55667
2431.58 1.84348
2431.76 1.09399
2431.94 0.731120
2432.12 0.528155
2432.49 0.320925
2433.21 0.166238
2433.93 0.109152
2435.38 0.0648175
2436.83 0.0471258
2439.72 0.0338380
2442.61 0.0337539
2445.51 0.0436915
2448.40 0.0642404
2451.29 0.0971495
2454.18 0.144897
2457.08 0.210709
2459.97 0.298594
2465.76 0.562517
2471.54 0.997016
2477.33 1.70299
2483.12 2.85700
2488.90 4.78442
2494.69 8.13200
2500.48 14.3030
2503.37 19.3711
2506.26 26.7563
2509.16 37.9230
2512.05 55.6012
2514.94 85.2580
2517.83 138.745
2519.28 181.976
2520.73 243.648
2522.17 333.055
2523.62 462.051
2526.06 782.340
2528.50 1032.78
2530.94 871.686
2533.38 574.367
2536.26 345.839
2539.14 224.948
2542.02 157.962
2544.91 117.834
2547.79 92.0533
2550.67 74.5331
2556.43 52.8544
2562.19 40.3637
2567.96 32.4454
2579.48 23.2162
2591.01 18.1444
2602.53 15.0003
2614.06 12.8857
2625.58 11.3777
2648.63 9.38595
2671.68 8.14018
2694.73 7.29213
2717.78 6.67931
2763.88 5.85430
2809.98 5.32432
2856.08 4.95383
2902.18 4.67866
2994.37 4.29151
3086.57 4.02224
3178.77 3.80765
3224.87 3.70535
3247.92 3.65150
3259.45 3.62400
3265.21 3.61460
3268.09 3.62969
3268.81 3.65127
3269.53 3.71556
3269.89 3.80556
3270.25 4.05652
3270.43 4.39463
3270.52 4.72254
3270.61 5.30150
3270.70 6.47066
3270.75 7.56250
3270.79 9.41129
3270.84 12.9088
3270.86 16.0379
3270.88 20.7379
3270.90 29.0662
3270.93 43.9120
3270.94 57.7132
3270.95 76.8725
3270.96 106.263
3270.97 154.099
3270.99 242.789
3271.00 304.659
3271.02 242.827
3271.03 154.145
3271.04 99.9621
3271.06 69.0074
3271.07 49.0125
3271.08 37.3714
3271.11 23.8024
3271.14 16.9409
3271.16 13.0347
3271.19 10.6122
3271.24 7.93340
3271.30 6.51667
3271.35 5.70586
3271.46 4.83684
3271.67 4.16878
3271.89 3.92298
3272.32 3.73984
3272.75 3.67318
3273.60 3.62314
3274.46 3.60378
3277.89 3.57729
3284.75 3.55227
3298.48 3.50471
3312.20 3.44805
3325.93 3.37393
3339.65 3.26488
3346.52 3.18458
3353.38 3.07079
3356.81 2.99292
3360.24 2.89248
3363.67 2.75721
3367.10 2.56416
3368.82 2.43272
3370.54 2.26537
3372.25 2.04523
3373.97 1.74503
3374.82 1.55160
3375.68 1.32014
3376.54 1.04528
3377.40 0.736325
3378.26 0.477869
3378.68 0.484957
3378.79 0.524431
3378.90 0.587768
3379.11 0.818247
3379.33 1.27292
3379.54 2.12540
3379.65 2.80912
3379.76 3.74769
3379.86 5.06175
3379.97 6.93179
3380.08 9.68182
3380.19 13.7636
3380.29 20.0916
3380.40 30.3652
3380.51 48.0688
3380.61 80.9938
3380.67 108.590
3380.72 148.081
3380.78 207.827
3380.83 294.757
3380.91 506.744
3381.00 679.012
3381.09 580.477
3381.17 386.852
3381.25 266.886
3381.32 191.425
3381.40 143.629
3381.47 112.496
3381.62 75.4144
3381.77 55.2654
3381.92 43.0727
3382.07 35.0901
3382.37 25.5150
3382.66 20.1198
3382.96 16.7262
3383.26 14.4230
3383.56 12.7706
3384.15 10.5779
3384.75 9.20192
3385.35 8.26459
3385.94 7.58788
3387.13 6.67947
3388.33 6.10105
3389.52 5.70123
3390.71 5.40872
3393.10 5.00957
3395.48 4.75013
3397.86 4.56766
3400.25 4.43219
3405.02 4.24375
3409.79 4.11813
3414.56 4.02770
3419.32 3.95895
3428.86 3.85995
3438.40 3.79058
3457.47 3.69579
3476.55 3.63007
3495.63 3.57880
3533.78 3.49771
3610.08 3.36941
3686.38 3.25189
3762.68 3.12484
3800.83 3.05034
3838.98 2.96062
3877.13 2.84130
3896.21 2.76023
3915.29 2.65172
3924.82 2.58036
3934.36 2.49061
3943.90 2.37245
3953.44 2.20695
3958.21 2.09537
3962.97 1.95372
3967.74 1.76742
3972.51 1.51144
3974.90 1.34440
3977.28 1.14121
3979.67 0.892275
3982.05 0.593111
3984.43 0.279384
3985.63 0.183389
3986.22 0.190784
3986.82 0.275764
3987.41 0.501400
3987.71 0.701463
3988.01 0.990354
3988.31 1.40453
3988.61 1.99870
3988.90 2.85724
3989.20 4.11470
3989.50 5.99402
3989.80 8.88241
3990.10 13.4917
3990.39 21.2255
3990.69 35.1033
3990.84 46.2917
3990.99 62.3525
3991.14 86.1172
3991.29 122.418
3991.44 179.401
3991.59 269.310
3991.79 462.418
3992.00 618.892
3992.21 528.995
3992.41 352.550
3992.56 258.346
3992.71 194.070
3992.86 150.424
3993.01 120.109
3993.31 82.4543
3993.61 61.0316
3993.91 47.7030
3994.21 38.8213
3994.81 28.0075
3995.41 21.8439
3996.01 17.9465
3996.61 15.2956
3997.21 13.3955
3998.41 10.8713
3999.61 9.29194
4000.81 8.21800
4002.01 7.44532
4004.41 6.41173
4006.81 5.75541
4009.21 5.30295
4011.61 4.97247
4016.41 4.52192
4021.20 4.22860
4026.00 4.02157
4030.80 3.86688
4040.40 3.64900
4049.99 3.50036
4069.19 3.30323
4088.38 3.17018
4107.57 3.06725
4117.17 3.02231
4126.77 2.98057
4136.36 2.94383
4141.16 2.93911
4143.56 2.98874
4144.16 3.04694
4144.76 3.21367
4145.06 3.44174
4145.36 4.06256
4145.51 4.87582
4145.58 5.64550
4145.66 6.96773
4145.73 9.52477
4145.77 11.8412
4145.81 15.4694
4145.85 22.0028
4145.88 34.5054
4145.90 45.9607
4145.92 63.0123
4145.94 92.6254
4145.96 139.344
4145.98 221.258
4146.00 275.903
4146.02 221.340
4146.04 139.448
4146.07 83.3532
4146.09 54.5368
4146.11 38.2257
4146.13 28.3749
4146.15 22.0556
4146.18 17.7907
4146.22 12.6027
4146.26 9.70404
4146.31 7.92831
4146.40 5.96131
4146.48 4.95581
4146.57 4.37441
4146.75 3.76315
4147.10 3.29699
4147.45 3.12543
4148.16 2.99687
4148.86 2.94887
4151.68 2.89305
4157.32 2.85930
4168.60 2.81235
4191.16 2.72379
4236.28 2.53778
4281.39 2.31904
4326.51 2.03866
4371.63 1.64892
4394.18 1.38764
4416.74 1.06118
4439.30 0.653872
4461.86 0.195923
4467.50 0.100076
4470.32 0.0628063
4473.14 0.0367896
4475.96 0.0265658
4478.78 0.0384574
4481.60 0.0812999
4484.42 0.167592
4487.24 0.315472
4490.06 0.551479
4492.88 0.915506
4495.70 1.46878
4498.52 2.30927
4501.34 3.59759
4504.16 5.61088
4505.57 7.03574
4506.27 7.90526
4506.62 8.43895
4506.80 8.91117
4506.89 9.69623
4506.93 11.2181
4506.95 13.4505
4506.98 19.4300
4506.99 26.0480
4507.00 30.0616
4507.01 26.0911
4507.02 19.5131
4507.04 15.0769
4507.05 12.6786
4507.08 10.7190
4507.14 9.71868
4507.26 9.46506
4507.50 9.69728
4507.97 10.4500
4508.91 12.2533
4510.80 17.0747
4512.69 24.2744
4514.58 35.4296
4516.47 53.5310
4518.35 84.5004
4520.24 140.608
4522.13 245.484
4524.07 426.057
4526.00 575.778
4527.94 496.785
4529.87 334.074
4531.71 225.068
4533.54 158.859
4535.38 118.075
4537.22 91.7692
4540.89 61.3159
4544.56 45.0440
4548.24 35.2774
4551.91 28.9062
4559.25 21.2717
4566.60 16.9605
4573.95 14.2378
4581.29 12.3810
4588.64 11.0425
4603.33 9.25332
4618.02 8.11974
4632.71 7.34034
4647.40 6.77262
4676.79 6.00121
4706.17 5.50047
4735.55 5.14752
4764.94 4.88369
4823.70 4.51047
4882.47 4.25209
4941.23 4.05490
4970.62 3.97028
5000.00 3.89190
5027.98 3.82186
5041.97 3.79016
5048.97 3.78362
5052.46 3.81653
5053.34 3.85687
5054.21 3.97394
5054.65 4.13604
5055.09 4.58481
5055.30 5.18756
5055.41 5.76685
5055.52 6.78287
5055.63 8.84086
5055.69 10.7548
5055.74 13.9033
5055.80 19.8812
5055.82 24.9152
5055.85 32.6574
5055.88 45.9832
5055.91 69.1883
5055.93 115.171
5055.95 156.946
5055.96 216.532
5055.98 345.907
5056.00 429.377
5056.02 345.948
5056.04 216.586
5056.06 128.233
5056.09 82.5194
5056.11 56.2424
5056.13 41.4212
5056.15 31.6351
5056.18 25.4008
5056.22 17.7129
5056.27 13.4745
5056.31 10.9016
5056.40 8.09781
5056.49 6.65584
5056.58 5.82762
5056.76 4.96560
5057.12 4.31102
5057.48 4.07109
5058.19 3.89365
5058.91 3.82901
5061.78 3.76032
5067.53 3.73080
5079.01 3.69947
5101.98 3.64414
5124.96 3.59099
5136.44 3.57236
5139.31 3.57524
5142.19 3.59667
5143.62 3.63292
5145.06 3.74154
5145.77 3.89367
5146.13 4.04447
5146.49 4.31622
5146.85 4.88155
5147.03 5.42802
5147.21 6.37961
5147.39 8.28729
5147.48 10.0462
5147.57 12.9394
5147.66 18.3285
5147.70 22.9028
5147.75 29.7055
5147.79 40.9585
5147.84 60.7103
5147.88 98.6416
5147.91 129.729
5147.93 175.008
5147.96 278.751
5148.00 346.725
5148.04 278.918
5148.07 175.220
5148.11 114.416
5148.14 77.8444
5148.17 55.8928
5148.20 42.0793
5148.27 26.6624
5148.34 18.9280
5148.40 14.4300
5148.47 11.6388
5148.60 8.52656
5148.73 6.90256
5148.86 5.96341
5149.12 4.96694
5149.39 4.47576
5149.65 4.19979
5150.17 3.91491
5151.22 3.70180
5152.27 3.62324
5154.38 3.56239
5156.48 3.53720
5160.68 3.51199
5164.88 3.49600
5181.68 3.44657
5198.49 3.39927
5215.29 3.35001
5248.90 3.24118
5282.51 3.11115
5316.12 2.94617
5349.73 2.72035
5366.53 2.56936
5383.34 2.37794
5391.74 2.26142
5400.14 2.12764
5408.54 1.98274
5410.64 1.95485
5412.74 1.95637
5413.79 1.99947
5414.84 2.16398
5415.37 2.41018
5415.63 2.65894
5415.89 3.10836
5416.16 4.04948
5416.29 4.95229
5416.42 6.52830
5416.55 9.68519
5416.62 12.5875
5416.68 17.3200
5416.75 26.1123
5416.78 33.5303
5416.81 44.3827
5416.85 62.2902
5416.88 93.3023
5416.91 151.660
5416.94 265.196
5416.97 421.822
5417.00 528.843
5417.03 421.976
5417.06 265.389
5417.09 156.817
5417.12 100.014
5417.15 67.5821
5417.18 48.9983
5417.21 36.8403
5417.24 28.9865
5417.30 19.4631
5417.36 14.0901
5417.42 10.8272
5417.54 7.26241
5417.66 5.43422
5417.78 4.38911
5418.03 3.28625
5418.27 2.74781
5418.51 2.44371
5419.00 2.12732
5419.97 1.87713
5420.94 1.77015
5422.88 1.65650
5424.83 1.57785
5428.71 1.43839
5432.60 1.29575
5440.37 0.972643
5448.14 0.588625
5452.03 0.381258
5455.92 0.185581
5457.86 0.106601
5459.80 0.0561604
5461.74 0.0569269
5462.72 0.0879313
5463.69 0.148574
5464.66 0.249095
5465.63 0.403188
5466.60 0.630599
5467.57 0.958383
5468.55 1.42706
5469.52 2.09443
5470.49 3.05097
5471.46 4.43338
5472.43 6.46831
5473.40 9.52641
5474.37 14.2736
5475.35 21.9235
5476.32 34.9189
5477.29 58.3856
5477.77 77.2662
5478.26 103.943
5478.75 142.231
5479.23 196.742
5480.12 345.711
5481.00 472.545
5481.89 411.671
5482.77 279.214
5483.69 183.015
5484.61 127.005
5485.53 93.5967
5486.45 72.5344
5487.37 58.4548
5488.29 48.6008
5490.13 35.9991
5491.97 28.4759
5493.82 23.5782
5497.50 17.7071
5501.18 14.3791
5504.86 12.2681
5508.54 10.8215
5512.22 9.77374
5519.58 8.36483
5526.95 7.46576
5534.31 6.84384
5541.67 6.38859
5556.40 5.76643
5571.12 5.36012
5585.85 5.07250
5600.57 4.85688
5630.02 4.55127
5659.47 4.33987
5718.37 4.04809
5777.27 3.82472
5806.72 3.71472
5836.17 3.59205
5865.62 3.43798
5880.35 3.33786
5895.07 3.21008
5909.80 3.03554
5917.16 2.91967
5924.52 2.77397
5931.89 2.58383
5939.25 2.32396
5942.93 2.15437
5946.61 1.94681
5950.29 1.68893
5952.13 1.54180
5953.05 1.48849
5953.51 1.56345
5953.74 1.95763
5953.86 3.21260
5953.92 6.27866
5953.94 11.4691
5953.96 17.0088
5953.97 27.8330
5953.99 43.1912
5954.00 54.2558
5954.01 43.2248
5954.03 27.7753
5954.04 16.0342
5954.06 10.1641
5954.10 5.37665
5954.16 2.79904
5954.30 1.76777
5954.57 1.41780
5955.11 1.26880
5956.18 1.12158
5958.34 0.842630
5962.65 0.247948
5963.73 0.149989
5964.81 0.150338
5965.35 0.222719
5965.89 0.378163
5966.43 0.662348
5966.97 1.15016
5967.51 1.97101
5968.05 3.34958
5968.59 5.71640
5969.12 9.94172
5969.39 13.2864
5969.66 17.9553
5969.93 24.6767
5970.20 34.5465
5970.47 49.6151
5970.74 73.2336
5971.01 111.685
5971.28 174.333
5971.64 308.402
5972.00 424.224
5972.36 371.790
5972.72 253.567
5972.97 191.439
5973.22 147.779
5973.46 117.137
5973.71 95.4311
5974.21 67.6827
5974.70 51.4675
5975.19 41.1367
5975.69 34.1479
5976.68 25.4630
5977.67 20.4017
5978.66 17.1510
5979.65 14.9093
5980.63 13.2814
5982.61 11.0917
5984.59 9.69982
5986.57 8.74226
5988.55 8.04565
5992.50 7.10307
5996.46 6.49703
6000.42 6.07508
6004.37 5.76466
6012.29 5.33809
6020.20 5.05821
6028.11 4.85980
6036.03 4.71126
6051.85 4.50230
6067.68 4.36078
6083.50 4.25729
6099.33 4.17740
6130.98 4.05997
6162.63 3.97565
6178.46 3.94136
6194.29 3.91135
6210.11 3.88868
6218.03 3.89762
6220.00 3.91742
6221.98 3.97967
6222.97 4.06877
6223.96 4.32113
6224.46 4.66640
6224.70 5.00430
6224.95 5.60745
6225.20 6.85359
6225.32 8.04227
6225.44 10.0801
6225.57 14.0946
6225.63 17.7202
6225.69 23.5150
6225.75 33.9898
6225.78 42.5748
6225.82 55.2518
6225.85 74.9124
6225.88 107.204
6225.91 163.495
6225.94 262.368
6225.97 416.245
6226.00 521.167
6226.03 416.454
6226.06 262.631
6226.08 187.324
6226.10 137.993
6226.13 104.772
6226.15 81.9026
6226.19 53.9379
6226.23 38.4383
6226.27 28.8959
6226.32 22.8992
6226.40 15.8998
6226.48 12.1080
6226.57 9.87791
6226.74 7.45433
6226.91 6.24554
6227.08 5.55738
6227.41 4.84523
6227.75 4.50109
6228.09 4.30937
6228.76 4.11420
6230.11 3.96962
6231.47 3.91652
6234.17 3.87532
6236.87 3.85807
6247.68 3.82949
6269.29 3.79727
6290.90 3.77022
6312.52 3.74554
6355.75 3.70098
6398.97 3.66098
6485.43 3.58927
6571.88 3.52252
6658.34 3.45368
6701.57 3.41506
6744.79 3.36979
6788.02 3.31066
6809.64 3.27066
6831.25 3.21688
6842.06 3.18123
6852.86 3.13599
6863.67 3.07560
6874.48 2.98927
6879.88 2.92978
6885.29 2.85265
6890.69 2.74803
6896.09 2.59736
6898.79 2.49377
6901.50 2.36051
6904.20 2.18276
6906.90 1.93459
6908.25 1.77020
6909.60 1.56721
6910.95 1.31304
6912.30 0.994731
6913.65 0.619875
6914.33 0.449186
6915.00 0.387577
6915.17 0.414583
6915.34 0.472516
6915.68 0.734849
6916.02 1.35276
6916.19 1.90512
6916.36 2.72443
6916.52 3.96833
6916.69 5.88486
6916.86 8.92304
6917.03 13.8925
6917.20 22.5526
6917.37 38.6003
6917.45 51.8573
6917.54 70.7177
6917.62 98.1762
6917.71 138.034
6917.85 244.566
6918.00 336.011
6918.15 294.578
6918.30 201.467
6918.40 152.537
6918.50 118.214
6918.60 93.8930
6918.70 76.7160
6918.90 54.6128
6919.10 41.6870
6919.30 33.4059
6919.50 27.8106
6919.90 20.8331
6920.30 16.7637
6920.70 14.1443
6921.10 12.3369
6921.50 11.0239
6922.31 9.25793
6923.11 8.13452
6923.91 7.36177
6924.71 6.79978
6926.32 6.03965
6927.92 5.55180
6929.53 5.21281
6931.13 4.96392
6934.34 4.62346
6937.55 4.40315
6940.75 4.25918
6942.36 4.24851
6943.16 4.41857
6943.36 4.60760
6943.56 5.11947
6943.66 5.78596
6943.76 7.42890
6943.81 9.34469
6943.86 13.5110
6943.89 17.6720
6943.91 25.1224
6943.94 39.8891
6943.95 53.3541
6943.96 72.5199
6943.98 113.023
6944.00 141.045
6944.02 113.127
6944.04 72.6472
6944.06 47.6337
6944.07 32.7619
6944.09 24.0430
6944.11 18.8925
6944.14 12.8473
6944.18 9.90153
6944.25 7.14865
6944.32 5.97294
6944.46 5.01297
6944.61 4.63793
6945.17 4.23306
6946.31 4.09593
6948.58 4.01219
6953.12 3.91517
6957.66 3.84461
6962.21 3.78895
6971.29 3.70556
6980.37 3.64516
6998.54 3.56118
7016.71 3.50282
7034.88 3.45733
7053.05 3.41867
7089.38 3.34912
7125.72 3.27460
7143.88 3.22820
7162.05 3.16781
7171.14 3.12838
7180.22 3.07865
7189.30 3.01259
7198.39 2.91841
7202.93 2.85365
7207.47 2.76976
7212.01 2.65622
7216.56 2.49312
7218.83 2.38137
7221.10 2.23809
7223.37 2.04794
7225.64 1.78447
7226.78 1.61155
7227.91 1.40037
7229.05 1.13994
7230.18 0.823411
7231.32 0.477785
7231.89 0.351035
7232.45 0.382714
7232.74 0.550693
7233.02 0.940025
7233.31 1.75803
7233.45 2.45308
7233.59 3.45367
7233.73 4.93541
7233.87 7.16215
7234.01 10.6027
7234.16 16.1148
7234.30 25.3637
7234.44 41.7889
7234.58 72.8347
7234.65 98.2462
7234.72 133.204
7234.86 236.748
7235.00 326.039
7235.14 286.176
7235.28 195.891
7235.38 146.251
7235.48 112.111
7235.58 88.3413
7235.68 71.7903
7235.87 50.7963
7236.07 38.6363
7236.27 30.9558
7236.47 25.7703
7236.87 19.3545
7237.27 15.6262
7237.67 13.2302
7238.06 11.5778
7238.46 10.3799
7239.26 8.76356
7240.05 7.73433
7240.85 7.02558
7241.64 6.51010
7243.24 5.81119
7244.83 5.36168
7246.42 5.04876
7248.01 4.81860
7251.19 4.50277
7254.37 4.29627
7257.56 4.15055
7260.74 4.04209
7267.11 3.89085
7273.47 3.78989
7279.84 3.71718
7286.20 3.66193
7298.93 3.58248
7311.66 3.52693
7337.13 3.45111
7362.59 3.39818
7388.05 3.35598
7438.97 3.28424
7489.90 3.21172
7515.36 3.16844
7540.82 3.11376
7566.28 3.03535
7579.01 2.97830
7591.74 2.89780
7598.11 2.84273
7604.48 2.77157
7610.84 2.67530
7617.21 2.53678
7620.39 2.44149
7623.57 2.31874
7626.76 2.15457
7629.94 1.92422
7631.53 1.77068
7633.12 1.57994
7634.71 1.33856
7636.30 1.03008
7637.89 0.649372
7639.49 0.334065
7639.88 0.358812
7640.28 0.521931
7640.68 0.970556
7641.08 2.03976
7641.28 3.04081
7641.47 4.61196
7641.67 7.14489
7641.87 11.3888
7642.07 18.8829
7642.17 24.8239
7642.27 33.0613
7642.37 44.9709
7642.47 62.2002
7642.57 87.7225
7642.67 125.465
7642.83 223.065
7643.00 307.511
7643.17 270.335
7643.33 185.288
7643.48 129.824
7643.63 94.5915
7643.78 72.1180
7643.92 57.3010
7644.22 39.5800
7644.51 29.8343
7644.81 23.8666
7645.10 19.9150
7645.69 15.1045
7646.29 12.3392
7646.88 10.5751
7647.47 9.36089
7648.06 8.47905
7649.24 7.29037
7650.42 6.53210
7651.60 6.00786
7652.78 5.62531
7655.14 5.10497
7657.50 4.76839
7659.86 4.53308
7662.22 4.35935
7666.94 4.11987
7671.67 3.96231
7676.39 3.85050
7681.11 3.76680
7690.55 3.64916
7700.00 3.56969
7709.44 3.51173
7718.88 3.46709
7737.77 3.40151
7756.66 3.35418
7794.43 3.28633
7832.21 3.23567
7869.98 3.19276
7945.53 3.11466
8021.08 3.03240
8096.63 2.92669
8134.41 2.85145
8153.29 2.80175
8172.18 2.73730
8191.07 2.64548
8200.51 2.58027
8209.96 2.49068
8214.68 2.43081
8219.40 2.35478
8224.12 2.25386
8228.84 2.11152
8231.20 2.01511
8233.57 1.89234
8235.93 1.73031
8238.29 1.50657
8239.47 1.35979
8240.65 1.18023
8241.83 0.957821
8243.01 0.684599
8244.19 0.376876
8244.78 0.252436
8245.37 0.246758
8245.67 0.362005
8245.96 0.652292
8246.26 1.28623
8246.55 2.64062
8246.70 3.84432
8246.85 5.66029
8246.99 8.51878
8247.14 13.1287
8247.29 21.0492
8247.44 35.3267
8247.51 46.9022
8247.58 63.3329
8247.66 86.9196
8247.73 120.099
8247.87 212.187
8248.00 291.690
8248.14 255.867
8248.27 174.743
8248.42 111.363
8248.58 76.1239
8248.73 55.7285
8248.88 43.0992
8249.03 34.7708
8249.18 28.9835
8249.49 21.6360
8249.79 17.2636
8250.10 14.4336
8250.70 11.0398
8251.31 9.10995
8251.92 7.88424
8252.53 7.04058
8253.14 6.42885
8254.36 5.60265
8255.57 5.07307
8256.79 4.70546
8258.01 4.43571
8260.44 4.06545
8262.87 3.82267
8265.31 3.65027
8267.74 3.52072
8272.61 3.33647
8277.48 3.20877
8287.21 3.03395
8296.95 2.90817
8306.68 2.80168
8326.15 2.59458
8335.89 2.47610
8345.62 2.33445
8355.36 2.15421
8365.09 1.90888
8369.96 1.74747
8374.83 1.54743
8379.69 1.29341
8384.56 0.964491
8386.99 0.765063
8389.43 0.542380
8391.86 0.308499
8394.30 0.114119
8395.51 0.0798015
8396.73 0.156073
8397.34 0.271034
8397.95 0.470735
8398.56 0.799142
8399.16 1.32452
8399.77 2.16409
8400.38 3.51496
8400.99 5.74716
8401.60 9.56196
8402.21 16.4599
8402.51 21.9813
8402.81 29.8176
8403.12 41.2017
8403.42 58.1293
8403.73 83.7610
8404.03 122.572
8404.52 218.683
8405.00 303.148
8405.49 267.710
8405.97 183.883
8406.34 135.288
8406.71 102.280
8407.09 79.9942
8407.46 64.5689
8408.20 45.4272
8408.95 34.4982
8409.69 27.6519
8410.43 23.0517
8411.92 17.3795
8413.41 14.0888
8414.90 11.9736
8416.39 10.5132
8417.87 9.45120
8420.85 8.01764
8423.83 7.10144
8426.80 6.46825
8429.78 6.00576
8435.73 5.37632
8441.68 4.96869
8447.63 4.68315
8453.58 4.47181
8465.48 4.17918
8477.39 3.98524
8489.29 3.84644
8501.19 3.74155
8525.00 3.59195
8548.80 3.48862
8596.41 3.35055
8644.02 3.25776
8691.64 3.18757
8715.44 3.15802
8739.25 3.13243
8751.15 3.12262
8763.05 3.11984
8769.00 3.12777
8774.95 3.16213
8777.93 3.21544
8779.42 3.27013
8780.91 3.37091
8782.39 3.58654
8783.14 3.79972
8783.88 4.18354
8784.25 4.50237
8784.63 4.98210
8785.00 5.75197
8785.37 7.10219
8785.74 9.80011
8785.93 12.2906
8786.11 16.4541
8786.30 24.1755
8786.39 30.7590
8786.49 40.8751
8786.58 57.4508
8786.67 86.9095
8786.76 144.569
8786.81 193.371
8786.86 263.896
8786.93 420.462
8787.00 524.885
8787.07 420.553
8787.14 264.016
8787.20 186.035
8787.25 135.478
8787.30 101.354
8787.35 78.6503
8787.45 50.9940
8787.56 35.9030
8787.66 26.8786
8787.76 21.0887
8787.97 14.3900
8788.17 10.8240
8788.38 8.70822
8788.59 7.35248
8788.79 6.43624
8789.20 5.30256
8789.62 4.65845
8790.03 4.25783
8790.44 3.99232
8791.26 3.67166
8792.09 3.49327
8793.73 3.31125
8795.38 3.22449
8797.03 3.17602
8800.32 3.12562
8806.91 3.08494
8813.50 3.06634
8826.67 3.04479
8839.85 3.02911
8866.20 3.00223
8892.55 2.97731
8945.25 2.92935
8971.60 2.90607
8984.77 2.89680
8991.36 2.90302
8994.66 2.95161
8996.30 3.15639
8996.71 3.36494
8997.13 3.93534
8997.33 4.69060
8997.54 6.65773
8997.64 9.09768
8997.74 14.8859
8997.80 21.3708
8997.85 34.2588
8997.87 46.3794
8997.90 65.3707
8997.92 99.5296
8997.95 159.358
8997.97 252.472
8998.00 316.343
8998.03 252.877
8998.05 159.861
8998.08 99.9953
8998.10 66.7595
8998.13 47.3225
8998.15 35.3128
8998.20 21.9562
8998.25 15.4517
8998.35 9.45018
8998.45 6.92035
8998.66 4.84679
8998.86 4.04206
8999.26 3.42601
8999.66 3.19763
9000.47 3.02715
9001.27 2.96485
9004.49 2.89997
9010.92 2.87736
9023.80 2.86091
9049.54 2.83579
9101.03 2.78658
9204.00 2.68021
9306.98 2.55451
9409.95 2.39493
9512.93 2.17337
9564.42 2.02171
9615.90 1.82379
9667.39 1.55108
9693.14 1.37120
9718.88 1.14892
9744.62 0.870172
9770.37 0.523591
9783.24 0.331263
9796.11 0.153376
9802.55 0.0931777
9805.77 0.0808440
9808.98 0.0905075
9812.20 0.141379
9813.81 0.197410
9815.42 0.296700
9817.03 0.494147
9817.83 0.679026
9818.64 0.999891
9819.44 1.64987
9819.84 2.26734
9820.25 3.34392
9820.65 5.49103
9820.85 7.47645
9821.05 10.8080
9821.25 17.0307
9821.35 22.4121
9821.45 30.6705
9821.55 44.5178
9821.65 69.3532
9821.70 90.1836
9821.75 120.011
9821.80 164.403
9821.85 230.879
9821.93 369.009
9822.00 461.639
9822.07 369.087
9822.15 230.987
9822.22 140.969
9822.29 91.2762
9822.37 62.8296
9822.44 45.5285
9822.52 34.3792
9822.59 26.8314
9822.74 17.6252
9822.89 12.4442
9823.04 9.29417
9823.33 5.80590
9823.63 4.02435
9823.92 3.00574
9824.52 1.95352
9825.11 1.46291
9825.70 1.20987
9826.89 1.00597
9828.07 0.979291
9829.26 1.03731
9831.63 1.30512
9834.00 1.74126
9836.37 2.36688
9838.74 3.24229
9841.11 4.46721
9843.48 6.19997
9845.85 8.69085
9848.22 12.3544
9850.59 17.8958
9852.96 26.5680
9855.33 40.6474
9857.70 64.3415
9860.07 104.737
9863.04 187.733
9866.00 261.226
9868.97 231.250
9871.93 159.154
9873.93 121.501
9875.93 94.6258
9877.93 75.6456
9879.94 62.0290
9883.94 44.4943
9887.94 34.1237
9891.94 27.4791
9895.94 22.9487
9903.95 17.2866
9911.95 13.9630
9919.96 11.8125
9935.97 9.23327
9951.97 7.76090
9967.98 6.81662
9983.99 6.16180
10000.0 5.68158
10032.5 5.01686
10064.9 4.58385
10081.1 4.41998
10089.2 4.34870
10097.4 4.28503
10105.5 4.23221
10113.6 4.20588
10117.6 4.22532
10119.7 4.25993
10121.7 4.33504
10123.7 4.51242
10124.7 4.69635
10125.8 5.03083
10126.3 5.31442
10126.8 5.74488
10127.3 6.44175
10127.8 7.64300
10128.0 8.65884
10128.3 10.0990
10128.5 12.3262
10128.8 16.0291
10129.1 23.2183
10129.2 29.4442
10129.3 38.2269
10129.4 53.7589
10129.6 78.9446
10129.7 131.769
10129.7 173.185
10129.8 231.685
10129.9 368.662
10130.0 460.289
10130.1 369.385
10130.2 232.595
10130.3 166.101
10130.3 121.708
10130.4 92.0819
10130.5 71.8432
10130.6 47.2980
10130.8 34.5484
10130.9 26.1588
10131.0 20.7792
10131.3 14.7165
10131.6 11.3378
10131.9 9.39569
10132.4 7.27282
10132.9 6.18432
10133.5 5.57182
10134.0 5.18026
10134.6 4.92283
10135.7 4.60317
10136.8 4.42341
10138.9 4.23294
10141.1 4.13500
10143.3 4.07532
10147.7 4.00252
10156.4 3.91905
10165.1 3.86075
10182.6 3.76699
10200.1 3.68689
10217.6 3.61488
10235.0 3.54881
10252.5 3.48741
10261.2 3.45845
10265.6 3.44663
10267.8 3.45238
10268.9 3.50421
10269.4 3.72274
10269.7 4.48315
10269.8 5.19264
10269.8 6.92170
10269.9 9.30276
10269.9 13.0457
10269.9 21.5119
10270.0 34.1941
10270.0 59.7264
10270.0 116.330
10270.0 60.0342
10270.1 34.6325
10270.1 27.1150
10270.1 18.1279
10270.1 10.5049
10270.2 6.11086
10270.4 4.28874
10270.7 3.68086
10271.3 3.49789
10272.6 3.44328
10275.2 3.42071
10280.4 3.40023
10290.8 3.36723
10311.6 3.30627
10353.1 3.19332
10436.2 2.98531
10519.3 2.77799
10602.4 2.54291
10685.5 2.23458
10727.0 2.02502
10768.5 1.74720
10789.3 1.56874
10810.1 1.35188
10830.9 1.08336
10851.6 0.747820
10862.0 0.552560
10872.4 0.345127
10882.8 0.147220
10888.0 0.0705290
10893.2 0.0314644
10895.8 0.0363225
10898.4 0.0662861
10901.0 0.131358
10903.6 0.245271
10906.2 0.429593
10908.7 0.713383
10911.3 1.14524
10913.9 1.79367
10916.5 2.77947
10919.1 4.29381
10921.7 6.67216
10924.3 10.5074
10926.9 17.0032
10929.5 28.4915
10932.1 50.1516
10933.4 67.7569
10934.7 92.0356
10937.4 167.355
10940.0 235.736
10942.7 210.291
10945.3 145.577
10947.9 99.7776
10950.5 71.8189
10953.0 54.4217
10955.6 43.1566
10958.2 35.4317
10960.8 29.9431
10965.9 22.7791
10971.0 18.4021
10976.2 15.5105
10986.5 11.9762
10996.8 9.93384
11007.1 8.61818
11017.3 7.70538
11027.6 7.03711
11048.2 6.12650
11068.8 5.53561
11079.1 5.31160
11089.4 5.12110
11099.7 4.95911
11104.8 4.89705
11107.4 4.91256
11108.7 5.09743
11109.0 5.29488
11109.3 5.83639
11109.5 6.54419
11109.6 8.34833
11109.7 10.5247
11109.8 15.4894
11109.8 20.7344
11109.9 30.7917
11109.9 53.1342
11109.9 75.0772
11110.0 120.896
11110.0 198.814
11110.0 234.860
11110.0 199.078
11110.0 118.786
11110.1 75.4120
11110.1 45.8483
11110.1 31.0201
11110.2 22.8245
11110.2 14.7205
11110.3 11.0415
11110.4 7.91592
11110.5 6.73486
11110.8 5.70556
11111.0 5.33317
11111.9 4.93074
11113.8 4.80256
11117.5 4.72870
11125.0 4.63540
11140.0 4.48156
11155.0 4.35083
11170.0 4.23732
11185.0 4.13749
11200.0 4.04881
11215.0 3.96967
11222.5 3.93518
11226.2 3.92845
11228.1 3.96609
11229.0 4.14715
11229.5 4.84404
11229.6 5.53837
11229.7 7.13463
11229.8 9.19919
11229.9 14.0183
11229.9 19.2235
11229.9 29.4022
11229.9 52.3219
11230.0 88.8141
11230.0 137.522
11230.0 175.218
11230.0 137.816
11230.0 89.1694
11230.1 52.6420
11230.1 29.6553
11230.1 19.4262
11230.2 14.1853
11230.2 9.32122
11230.3 7.48384
11230.4 5.69668
11230.5 4.97621
11230.9 4.18946
11231.8 3.97025
11233.6 3.90362
11237.2 3.87195
11244.3 3.83692
11258.7 3.77808
11287.3 3.67511
11344.5 3.50679
11401.7 3.37159
11430.4 3.31258
11444.7 3.28529
11451.8 3.27494
11455.4 3.28284
11457.2 3.34055
11458.1 3.57735
11458.3 3.82589
11458.5 4.47317
11458.6 5.30425
11458.7 7.37600
11458.8 10.1297
11458.9 15.1532
11458.9 21.2093
11458.9 32.9368
11458.9 58.8022
11459.0 93.8255
11459.0 148.859
11459.0 185.900
11459.0 149.148
11459.0 94.1858
11459.1 59.1341
11459.1 47.9466
11459.1 33.2031
11459.1 18.9745
11459.2 11.8263
11459.2 9.09465
11459.3 6.25729
11459.4 5.07875
11459.6 4.13537
11459.8 3.78727
11460.5 3.40235
11461.9 3.29301
11464.7 3.25910
11470.3 3.24097
11481.5 3.21869
11504.0 3.17946
11549.0 3.10699
11638.9 2.97652
11818.7 2.74653
12178.4 2.30624
12358.3 2.06010
12538.1 1.77510
12717.9 1.43096
12807.9 1.22966
12852.8 1.12455
12864.1 1.10175
12875.3 1.08993
12880.9 1.09984
12886.5 1.15582
12889.3 1.24699
12890.8 1.34185
12892.2 1.51566
12893.6 1.88796
12894.3 2.24990
12895.0 2.89128
12895.3 3.43316
12895.7 4.21733
12896.0 5.44860
12896.4 7.54000
12896.7 11.5123
12896.9 15.1073
12897.1 20.4583
12897.3 30.1194
12897.4 47.2604
12897.5 62.7101
12897.6 86.4146
12897.7 124.103
12897.8 183.659
12897.9 293.655
12898.0 366.154
12898.1 294.155
12898.2 183.468
12898.4 105.700
12898.5 67.5999
12898.6 44.9975
12898.7 32.7459
12898.9 24.3717
12899.0 19.2323
12899.2 12.7618
12899.5 9.19762
12899.7 7.03440
12900.2 4.69052
12900.7 3.46943
12901.2 2.76737
12902.2 2.03689
12903.2 1.67635
12904.2 1.47499
12906.2 1.26538
12908.2 1.16189
12910.2 1.10208
12914.1 1.03604
12922.1 0.973389
12930.0 0.936534
12945.9 0.880881
12961.8 0.831444
13025.4 0.638216
13152.6 0.245170
13184.4 0.157138
13216.2 0.0838983
13232.1 0.0561733
13248.0 0.0369826
13263.9 0.0290031
13279.8 0.0357252
13295.7 0.0617737
13311.6 0.113310
13327.5 0.198655
13343.4 0.329125
13359.3 0.520831
13375.1 0.796384
13391.0 1.19095
13399.0 1.45534
13403.0 1.64091
13405.0 1.88207
13405.5 2.06989
13405.9 2.53894
13406.2 3.15197
13406.4 4.73854
13406.6 6.82134
13406.7 11.3863
13406.8 16.2988
13406.8 25.9444
13406.8 34.5705
13406.9 48.2928
13406.9 71.3196
13406.9 124.157
13407.0 201.089
13407.0 246.238
13407.0 201.584
13407.1 124.799
13407.1 82.8845
13407.1 62.7803
13407.1 43.4406
13407.2 35.0200
13407.2 22.2721
13407.3 16.6233
13407.4 9.61169
13407.4 6.81179
13407.6 4.28347
13407.8 3.31934
13408.2 2.52709
13408.6 2.24773
13409.3 2.05436
13410.1 2.00501
13413.1 2.06108
13419.0 2.35065
13431.0 3.12586
13443.0 4.19695
13455.0 5.72311
13466.9 8.05807
13478.9 12.1841
13484.9 15.9233
13487.9 18.7724
13490.9 22.8812
13493.9 29.4666
13495.4 34.5123
13496.9 41.6455
13498.4 52.5461
13499.9 70.3775
13501.4 102.955
13502.1 129.378
13502.9 165.174
13503.9 228.228
13505.0 244.516
13506.1 166.897
13507.1 88.8417
13507.7 63.8680
13508.2 46.7704
13508.7 34.8735
13509.3 26.5503
13510.3 16.4780
13511.4 11.2804
13512.5 8.55869
13513.5 7.17031
13515.6 6.35290
13519.9 7.53807
13524.1 9.75082
13532.6 15.0019
13541.1 21.1972
13558.0 38.4074
13575.0 66.6785
13597.5 129.439
13620.0 190.130
13631.3 192.142
13642.5 174.555
13665.0 123.533
13682.5 92.3312
13700.1 70.8499
13717.6 56.2018
13735.1 45.9731
13770.2 33.1307
13805.2 25.6844
13840.3 20.9528
13875.4 17.7311
13945.5 13.6878
14015.6 11.2854
14085.7 9.70417
14155.8 8.58483
14190.9 8.13850
14208.4 7.93715
14217.2 7.84243
14221.6 7.80192
14223.8 7.80562
14224.9 7.90210
14225.4 8.30847
14225.7 9.69799
14225.8 10.9781
14225.8 14.0535
14225.9 18.2013
14225.9 24.5374
14225.9 38.1174
14226.0 56.7331
14226.0 75.3368
14226.0 113.247
14226.0 142.988
14226.0 113.447
14226.0 75.3981
14226.1 46.2084
14226.1 28.0661
14226.1 16.9732
14226.2 12.4418
14226.3 10.7954
14226.5 8.62877
14226.9 7.98039
14227.8 7.79412
14229.6 7.72854
14233.1 7.67983
14240.1 7.60545
14254.2 7.46768
14282.3 7.21206
14338.5 6.76223
14394.7 6.37642
14422.8 6.20302
14436.9 6.12314
14443.9 6.09704
14447.4 6.13812
14449.2 6.37228
14449.6 6.61599
14450.1 7.28478
14450.3 8.16414
14450.5 10.4277
14450.6 13.1890
14450.7 19.5693
14450.8 27.2432
14450.8 39.5780
14450.9 52.4246
14450.9 65.0494
14450.9 94.0377
14450.9 124.973
14451.0 206.334
14451.0 244.419
14451.0 206.705
14451.1 125.481
14451.1 83.1615
14451.1 58.6428
14451.2 39.9311
14451.2 31.5496
14451.3 20.7733
14451.3 16.1243
14451.5 11.3567
14451.6 9.31089
14451.9 7.63598
14452.1 6.98203
14452.6 6.47792
14453.2 6.28868
14455.2 6.08678
14459.4 6.01231
14467.8 5.95234
14484.5 5.85868
14517.9 5.68642
14584.8 5.37129
14718.5 4.81579
14852.2 4.30573
14919.1 4.04857
14952.5 3.91549
14969.3 3.84723
14977.6 3.81287
14981.8 3.79685
14983.9 3.79435
14984.9 3.81511
14985.4 3.90719
14985.7 4.22703
14985.8 5.15499
14985.9 7.53988
14985.9 10.8103
14986.0 24.7129
14986.0 45.7378
14986.0 24.8023
14986.1 10.8769
14986.1 6.98094
14986.2 4.91368
14986.4 4.12122
14986.7 3.87439
14987.3 3.79976
14988.5 3.77451
14991.0 3.75862
14996.0 3.73606
15006.0 3.69402
15016.0 3.65979
15020.9 3.67976
15023.4 3.83880
15024.1 4.01169
15024.7 4.48551
15025.0 5.11315
15025.3 6.74487
15025.5 8.85543
15025.6 13.5129
15025.7 18.9555
15025.8 30.1859
15025.8 40.7220
15025.9 58.2217
15025.9 88.9480
15025.9 126.930
15026.0 200.763
15026.0 250.001
15026.0 201.168
15026.1 127.438
15026.1 89.4313
15026.1 71.8150
15026.2 44.6455
15026.2 30.5007
15026.3 23.7405
15026.4 15.3736
15026.5 11.2834
15026.6 7.59815
15026.8 6.04437
15027.2 4.78629
15027.5 4.29878
15028.3 3.92406
15029.0 3.78312
15031.9 3.62958
15037.6 3.56508
15049.2 3.50034
15072.3 3.38434
15118.5 3.13401
15164.7 2.83877
15210.8 2.46930
15257.0 1.96990
15280.1 1.63885
15303.2 1.22454
15326.3 0.702610
15337.9 0.408340
15349.4 0.136942
15355.2 0.0499002
15358.1 0.0353443
15361.0 0.0523393
15363.9 0.115704
15366.7 0.247439
15369.6 0.481062
15372.5 0.867198
15375.4 1.49219
15378.3 2.49405
15381.2 4.11243
15384.1 6.76690
15387.0 11.2876
15389.8 19.2418
15392.7 33.9547
15395.6 61.5521
15398.8 115.410
15402.0 167.114
15405.2 153.746
15408.4 109.597
15411.6 76.6503
15414.7 56.0859
15417.9 43.1865
15421.0 34.7189
15424.2 28.8860
15427.3 24.6928
15433.6 19.1743
15439.9 15.7593
15446.2 13.4716
15458.8 10.6351
15471.4 8.95734
15484.0 7.85272
15509.2 6.47836
15534.3 5.64139
15559.5 5.06201
15572.1 4.82958
15584.7 4.62419
15597.3 4.44326
15603.6 4.37723
15606.8 4.41930
15607.6 4.49515
15608.3 4.71884
15608.7 5.03299
15609.1 5.84483
15609.3 6.89050
15609.5 9.23787
15609.6 11.9545
15609.7 17.5503
15609.8 22.7943
15609.8 31.5051
15609.9 46.8435
15609.9 68.1930
15610.0 106.262
15610.0 132.440
15610.1 106.518
15610.1 68.5116
15610.1 51.4670
15610.2 39.8935
15610.2 24.4156
15610.3 16.9460
15610.4 13.3562
15610.5 9.15740
15610.6 7.39733
15610.9 5.82310
15611.2 5.19054
15611.7 4.69220
15612.2 4.50279
15614.4 4.28397
15618.7 4.17876
15627.3 4.06180
15644.4 3.86514
15678.8 3.51471
15747.5 2.88586
15816.2 2.26559
15850.5 1.93875
15867.7 1.77584
15876.3 1.72502
15878.4 1.74169
15880.6 1.82897
15881.7 1.96953
15882.7 2.37233
15883.3 2.92225
15883.5 3.45393
15883.8 4.33988
15884.1 6.14287
15884.2 7.86504
15884.3 10.5011
15884.5 15.6821
15884.6 20.0992
15884.6 25.7047
15884.7 35.9591
15884.7 50.5111
15884.8 80.8639
15884.9 137.677
15884.9 221.407
15885.0 275.152
15885.1 221.695
15885.1 138.041
15885.2 81.1934
15885.3 50.7879
15885.3 34.3810
15885.4 24.8087
15885.5 18.8193
15885.5 14.8509
15885.7 10.3601
15885.8 7.65598
15885.9 6.12184
15886.2 4.34291
15886.5 3.40872
15886.8 2.89148
15887.3 2.34321
15888.4 1.91482
15889.5 1.75109
15891.6 1.61428
15893.8 1.54990
15902.5 1.41495
15919.9 1.21209
15954.6 0.811010
15989.3 0.414630
16006.7 0.238017
16015.3 0.162731
16024.0 0.101212
16032.7 0.0589732
16041.4 0.0437260
16050.1 0.0659251
16058.7 0.140261
16063.1 0.203164
16067.4 0.287509
16076.1 0.537471
16084.8 0.933587
16093.5 1.54035
16102.1 2.45549
16110.8 3.83048
16119.5 5.90592
16128.2 9.07375
16136.9 13.9874
16145.5 21.7526
16154.2 34.2191
16162.9 54.2287
16176.5 106.569
16190.0 160.378
16196.8 164.647
16203.6 152.151
16217.1 111.317
16226.2 88.3049
16235.3 71.2121
16244.4 58.7703
16253.5 49.6207
16262.6 42.7574
16271.6 37.5011
16276.2 35.3318
16280.7 33.4407
16283.0 32.6159
16285.3 31.9701
16286.4 31.8340
16287.0 31.8997
16287.6 32.1673
16288.1 32.9250
16288.4 33.7446
16288.7 35.1644
16289.0 38.0835
16289.1 40.6173
16289.3 44.6522
16289.4 51.5767
16289.5 64.7322
16289.6 76.0605
16289.7 93.3618
16289.8 120.769
16289.8 171.172
16289.9 251.436
16290.0 311.954
16290.1 251.805
16290.2 170.767
16290.3 116.328
16290.4 85.1926
16290.4 67.5938
16290.5 57.9361
16290.6 50.8143
16290.7 46.0344
16290.9 40.4820
16291.1 37.1535
16291.2 35.2051
16291.6 32.9624
16291.9 31.7182
16292.3 30.9547
16293.0 30.0620
16293.7 29.5129
16294.3 29.1206
16295.7 28.5268
16298.5 27.6134
16301.3 26.8360
16306.8 25.4654
16312.3 24.2579
16323.4 22.2011
16334.5 20.5107
16356.7 17.9028
16378.8 15.9929
16423.1 13.3987
16467.5 11.7277
16511.8 10.5641
16556.1 9.70749
16644.8 8.52739
16733.4 7.74749
16822.0 7.18917
16866.4 6.96531
16888.5 6.86493
16910.7 6.77276
16932.8 6.69200
16943.9 6.65933
16955.0 6.63776
16966.1 6.64280
16971.6 6.66973
16977.2 6.73677
16979.9 6.80061
16982.7 6.90356
16985.5 7.07838
16988.2 7.40071
16989.6 7.67218
16991.0 8.07871
16992.4 8.73505
16993.8 9.86999
16995.2 12.1204
16995.9 14.1449
16996.6 17.4490
16997.3 23.4693
16997.6 28.4462
16997.9 35.5944
16998.3 47.0373
16998.6 65.3308
16999.0 98.3109
16999.3 156.067
16999.7 246.424
17000.0 307.073
17000.3 247.286
17000.7 157.154
17001.0 107.263
17001.2 77.1654
17001.5 57.4447
17001.8 45.0131
17002.3 30.2703
17002.9 22.6146
17003.4 18.0369
17004.0 15.1905
17005.1 11.8972
17006.1 10.1600
17007.2 9.13354
17008.3 8.47651
17009.4 8.03019
17011.6 7.47668
17013.8 7.16051
17016.0 6.96064
17018.1 6.82512
17022.5 6.65524
17026.9 6.55411
17035.6 6.43671
17044.3 6.36614
17053.1 6.31498
17070.5 6.23741
17088.0 6.17434
17105.4 6.11816
17140.3 6.01681
17175.2 5.92441
17210.1 5.83819
17245.0 5.75654
17262.5 5.71675
17271.2 5.69787
17275.6 5.69699
17277.8 5.74071
17278.9 5.94881
17279.4 6.75866
17279.7 9.35231
17279.7 11.5807
17279.8 16.5040
17279.9 30.5680
17279.9 45.3482
17279.9 62.3441
17279.9 86.6029
17280.0 126.951
17280.0 168.908
17280.0 128.153
17280.1 87.9849
17280.1 54.1341
17280.1 40.4601
17280.1 25.5838
17280.2 17.2014
17280.2 13.7686
17280.3 10.0186
17280.4 8.38684
17280.8 6.51915
17281.5 5.92987
17282.9 5.75265
17285.7 5.69528
17291.3 5.66713
17302.6 5.63791
17325.0 5.58966
17370.0 5.50038
17460.0 5.33584
17640.0 5.04277
17819.9 4.77632
17909.9 4.64684
17954.9 4.58240
17977.4 4.55237
17988.6 4.54824
17994.2 4.59189
17995.6 4.64386
17997.0 4.79128
17997.8 4.99446
17998.5 5.52998
17998.8 6.20874
17999.2 7.86585
17999.3 9.83711
17999.5 13.7795
17999.6 17.8228
17999.7 24.9624
17999.8 38.7740
17999.8 48.9391
17999.9 65.4580
17999.9 103.264
18000.0 126.787
18000.1 103.566
18000.1 65.8419
18000.2 43.7991
18000.3 31.7522
18000.3 24.2144
18000.4 19.3101
18000.5 13.6445
18000.6 10.6703
18000.9 7.76559
18001.1 6.55235
18001.6 5.51918
18002.1 5.11246
18003.1 4.79718
18004.1 4.67918
18006.0 4.58764
18008.0 4.55239
18015.8 4.50773
18031.4 4.47548
18062.6 4.42656
18125.1 4.33161
18250.1 4.13240
18500.0 3.65168
18625.0 3.33255
18749.9 2.91265
18812.4 2.64279
18874.9 2.31326
18937.4 1.90078
18953.0 1.78128
18968.6 1.65468
18984.3 1.52546
18992.1 1.48613
18994.0 1.50296
18996.0 1.58581
18997.0 1.71814
18997.9 2.09631
18998.4 2.61098
18998.9 3.96803
18999.2 5.71365
18999.4 9.70732
18999.5 14.0744
18999.6 22.8050
18999.7 30.7538
18999.8 43.6200
18999.8 65.6847
18999.9 112.894
18999.9 180.341
19000.0 224.463
19000.1 181.106
19000.1 112.939
19000.2 77.2537
19000.2 57.7382
19000.3 41.7264
19000.3 33.1423
19000.4 21.3808
19000.5 15.0322
19000.6 11.2613
19000.7 8.85236
19000.8 6.18495
19001.2 3.80182
19001.5 2.83396
19002.2 2.06577
19002.9 1.76922
19004.3 1.53439
19005.7 1.43942
19011.4 1.29964
19022.6 1.16137
19045.1 0.912329
19090.0 0.395229
19112.5 0.164456
19123.8 0.0808220
19135.0 0.0405405
19140.6 0.0454447
19146.2 0.0738569
19151.9 0.132844
19157.5 0.231696
19163.1 0.382747
19168.7 0.602610
19174.3 0.915193
19177.2 1.12469
19178.6 1.28720
19179.3 1.54737
19179.6 2.30607
19179.8 4.75753
19179.9 11.2862
19179.9 21.4512
19179.9 32.5367
19180.0 54.0140
19180.0 84.9758
19180.0 107.271
19180.0 85.4549
19180.0 54.6066
19180.1 33.0827
19180.1 18.3170
19180.2 8.21318
19180.3 3.79046
19180.5 2.13599
19180.9 1.65017
19181.8 1.58397
19183.6 1.72742
19187.1 2.14833
19194.2 3.32089
19201.3 5.08557
19208.4 7.75302
19215.5 11.8527
19222.5 18.2371
19229.6 28.3204
19236.7 44.2177
19248.4 88.0217
19260.0 133.915
19265.8 138.067
19271.7 128.047
19283.3 94.2702
19291.0 75.3030
19298.7 61.1067
19314.1 43.0133
19329.6 32.7533
19345.0 26.4401
19360.4 22.2594
19375.8 19.3310
19406.6 15.5485
19437.5 13.2425
19468.3 11.7028
19499.1 10.6062
19514.5 10.1687
19522.3 9.97212
19526.1 9.88197
19528.0 9.85220
19529.0 9.89386
19529.5 10.1170
19529.7 10.8649
19529.8 12.8284
19529.9 16.5653
19529.9 21.3739
19530.0 37.7265
19530.0 65.8563
19530.0 37.9154
19530.1 19.4922
19530.1 14.9101
19530.2 11.8756
19530.4 10.4783
19530.7 9.97842
19531.3 9.81423
19532.6 9.74238
19535.2 9.67266
19540.4 9.55706
19550.7 9.34445
19571.3 8.96679
19612.5 8.35437
19695.0 7.49519
19777.5 6.91448
19818.7 6.68687
19839.3 6.58470
19849.6 6.53792
19854.8 6.52400
19857.4 6.55473
19858.6 6.71652
19859.3 7.30682
19859.6 9.12139
19859.8 13.4825
19859.8 20.8473
19859.9 29.1678
19859.9 50.3360
19860.0 73.1665
19860.0 87.9598
19860.0 94.5188
19860.0 88.1344
19860.0 73.4527
19860.1 50.6705
19860.1 32.5293
19860.1 24.6320
19860.2 15.6196
19860.4 10.0317
19860.6 7.66317
19861.2 6.82658
19862.3 6.57575
19864.5 6.49641
19868.8 6.45775
19877.6 6.41424
19895.1 6.33940
19930.0 6.20249
20000.0 5.96160
20000.0 5.96156
20000.0 5.96153
20000.1 5.96140
20000.1 5.96131
20000.1 5.96112
20000.3 5.96074
20000.5 5.95997
20001.0 5.95841
20002.0 5.95530
20003.9 5.94911
20007.8 5.93682
20015.6 5.91249
20031.3 5.86490
20062.5 5.77360
20093.7 5.68682
20109.4 5.64489
20117.2 5.62433
20121.1 5.61476
20123.0 5.61320
20124.0 5.62617
20124.5 5.68735
20124.7 5.90711
20124.9 6.58123
20124.9 8.19630
20124.9 10.9071
20125.0 21.2183
20125.0 36.9067
20125.0 21.2924
20125.1 11.0060
20125.1 8.26891
20125.2 6.62678
20125.3 5.93203
20125.5 5.69874
20126.0 5.62815
20127.0 5.60653
20128.9 5.59616
20132.8 5.58449
20140.7 5.56397
20156.3 5.52432
20187.5 5.44724
20250.0 5.29920
20312.5 5.15615
20343.7 5.08536
20359.3 5.05014
20367.1 5.03417
20371.1 5.03483
20373.0 5.07276
20374.0 5.24269
20374.5 5.88544
20374.7 7.93240
20374.8 13.2145
20374.9 23.0150
20374.9 35.1751
20375.0 66.4580
20375.0 108.305
20375.0 128.261
20375.0 108.668
20375.0 66.8175
20375.1 42.1293
20375.1 30.5220
20375.1 18.7514
20375.2 10.2220
20375.4 6.66144
20375.8 5.50033
20376.5 5.14995
20377.9 5.04804
20380.7 5.01424
20386.3 4.99350
20397.5 4.96541
20420.0 4.91303
20465.0 4.80779
20510.0 4.69884
20532.4 4.64260
20543.7 4.61644
20549.3 4.61696
20552.1 4.67744
20553.5 4.94799
20553.9 5.21842
20554.2 5.93688
20554.4 6.88284
20554.6 9.04951
20554.7 11.6543
20554.8 17.2815
20554.8 23.6770
20554.8 32.7029
20554.9 48.9598
20554.9 61.9555
20554.9 90.1400
20555.0 134.265
20555.0 162.704
20555.0 175.300
20555.0 163.120
20555.0 134.948
20555.1 89.7481
20555.1 62.7143
20555.1 49.6650
20555.2 33.3000
20555.2 18.7207
20555.3 12.4052
20555.4 9.75858
20555.6 7.23676
20555.7 6.23922
20556.1 5.39481
20556.4 5.06666
20557.7 4.71620
20560.4 4.61200
20565.7 4.57014
20576.3 4.53327
20597.5 4.47203
20640.0 4.34680
20682.5 4.21006
20703.7 4.13596
20714.3 4.09755
20719.7 4.07975
20722.3 4.07923
20723.6 4.11384
20724.3 4.26170
20724.6 4.77557
20724.8 6.36959
20724.9 9.75111
20724.9 14.7989
20725.0 32.5221
20725.0 61.1818
20725.0 32.7167
20725.1 17.1742
20725.1 11.8487
20725.2 7.25319
20725.3 5.11849
20725.6 4.37814
20726.1 4.14337
20727.2 4.07423
20729.4 4.04775
20733.8 4.02556
20742.5 3.98915
20760.0 3.91573
20777.5 3.83803
20786.2 3.79786
20790.6 3.78073
20792.8 3.78772
20793.9 3.85450
20794.4 4.12734
20794.7 5.02794
20794.8 7.65278
20794.9 13.2466
20794.9 19.5773
20795.0 34.6869
20795.0 65.9055
20795.0 34.9736
20795.1 17.1901
20795.1 11.0310
20795.2 6.78010
20795.4 4.72484
20795.7 4.04188
20796.4 3.83027
20797.7 3.76537
20800.4 3.73570
20805.8 3.70375
20816.5 3.64603
20837.9 3.52476
20880.7 3.24169
20923.6 2.88201
20966.4 2.40529
20987.9 2.10308
21009.3 1.74365
21030.7 1.31446
21052.1 0.811879
21073.5 0.287043
21078.9 0.177667
21084.3 0.0955452
21089.6 0.0595832
21095.0 0.101057
21097.6 0.165925
21100.3 0.272001
21103.0 0.431637
21105.7 0.660211
21108.4 0.981309
21111.0 1.42390
21113.7 2.02859
21116.4 2.84804
21119.1 3.96680
21121.7 5.49367
21124.4 7.58823
21127.1 10.4682
21129.8 14.4873
21132.5 20.1137
21135.1 28.0093
21137.8 38.9670
21143.9 78.8917
21150.0 121.757
21153.1 126.482
21156.1 118.195
21162.2 88.2213
21166.2 71.0352
21170.3 58.0424
21178.3 41.3380
21186.4 31.7621
21194.4 25.8347
21202.5 21.8874
21210.5 19.1131
21226.6 15.5118
21242.8 13.3050
21258.9 11.8254
21291.1 9.97529
21323.3 8.86418
21355.5 8.11874
21387.7 7.57851
21403.8 7.35885
21411.9 7.25982
21415.9 7.21836
21417.9 7.22397
21418.9 7.32915
21419.4 7.74110
21419.7 9.03388
21419.8 12.4677
21419.9 18.0676
21419.9 24.4067
21419.9 40.7482
21420.0 74.6277
21420.1 41.0426
21420.1 22.0794
21420.2 14.7423
21420.3 10.1223
21420.4 8.15843
21420.8 7.45383
21421.6 7.23125
21423.1 7.15317
21426.2 7.10212
21432.2 7.03149
21444.4 6.90581
21468.8 6.68118
21517.5 6.30213
21566.2 5.97977
21590.6 5.83009
21602.8 5.75722
21608.9 5.72318
21611.9 5.71487
21613.4 5.74445
21614.2 5.88548
21614.6 6.39861
21614.8 8.01882
21614.9 12.6048
21614.9 21.8922
21614.9 30.9242
21615.0 50.2454
21615.0 94.6929
21615.0 50.1305
21615.1 25.7383
21615.1 15.0620
21615.2 9.43273
21615.3 6.83125
21615.6 6.00836
21616.2 5.76403
21617.4 5.69155
21619.7 5.66066
21624.4 5.62842
21633.7 5.57132
21652.4 5.45901
21671.1 5.35493
21675.8 5.33995
21680.5 5.35453
21682.8 5.40353
21685.1 5.57053
21686.3 5.81311
21687.5 6.48495
21688.1 7.37450
21688.3 8.19661
21688.6 9.58585
21688.9 12.1989
21689.1 14.5533
21689.2 17.9735
21689.4 24.1097
21689.5 34.5623
21689.6 44.5637
21689.7 57.6078
21689.7 77.0477
21689.8 109.660
21689.9 173.741
21690.0 215.154
21690.1 174.571
21690.2 110.707
21690.3 81.5341
21690.3 63.3162
21690.5 39.8231
21690.6 27.7596
21690.7 21.3564
21690.8 17.0374
21691.0 14.2321
21691.2 11.0370
21691.5 9.22753
21691.7 8.18070
21692.2 7.02469
21692.7 6.42450
21693.2 6.08415
21694.3 5.71883
21696.3 5.43102
21698.3 5.31495
21702.3 5.20962
21706.4 5.15258
21722.6 5.00451
21738.7 4.87124
21754.9 4.73048
21787.3 4.40271
21819.6 3.97211
21851.9 3.35133
21868.1 2.91662
21884.3 2.34699
21900.5 1.57976
21908.6 1.10571
21916.6 0.590980
21920.7 0.345370
21924.7 0.152164
21928.8 0.0919975
21930.8 0.161855
21932.8 0.347271
21934.8 0.713569
21936.9 1.35844
21938.9 2.44898
21940.9 4.26496
21942.9 7.29115
21944.9 12.3848
21947.0 21.0583
21949.0 35.7973
21950.5 52.6216
21952.0 74.7002
21955.0 118.085
21956.5 123.808
21958.0 116.611
21961.0 88.2027
21964.2 63.4226
21967.4 47.8408
21970.6 38.0005
21973.8 31.5276
21977.0 27.0229
21980.2 23.7690
21986.6 19.4278
21993.0 16.6986
21999.4 14.8446
22012.1 12.5083
22024.9 11.1040
22037.7 10.1709
22050.5 9.50548
22063.2 9.00745
22088.8 8.30928
22114.3 7.84130
22165.4 7.24746
22216.5 6.88005
22267.6 6.62581
22293.2 6.52493
22318.7 6.43704
22344.3 6.36407
22357.0 6.35692
22360.2 6.38070
22363.4 6.46710
22365.0 6.59643
22366.6 6.96127
22367.4 7.45380
22367.8 7.92671
22368.2 8.74893
22368.6 10.3632
22368.8 11.8217
22369.0 14.1999
22369.2 18.4409
22369.3 21.9093
22369.4 27.0166
22369.5 34.9022
22369.6 47.7623
22369.7 69.9254
22369.8 106.509
22369.9 168.669
22370.0 207.857
22370.1 169.552
22370.2 107.631
22370.3 77.1632
22370.4 58.2635
22370.4 45.5116
22370.5 36.7126
22370.6 25.9172
22370.8 19.9083
22370.9 16.0605
22371.1 13.7637
22371.3 11.0641
22371.6 9.56344
22371.9 8.69980
22372.5 7.75519
22373.6 6.99601
22374.7 6.70437
22377.0 6.47828
22379.3 6.39031
22383.8 6.31657
22388.3 6.28216
22406.4 6.21489
22442.6 6.13042
22478.8 6.06038
22496.9 6.02823
22505.9 6.01278
22510.4 6.00767
22512.7 6.01984
22513.8 6.09121
22514.4 6.38490
22514.7 7.38167
22514.8 10.1642
22514.9 15.9252
22514.9 25.9122
22515.0 54.2395
22515.0 84.2630
22515.0 103.273
22515.0 84.8884
22515.0 55.0331
22515.1 26.5563
22515.1 16.4106
22515.2 10.0785
22515.4 7.40750
22515.7 6.42157
22516.3 6.12262
22517.5 6.03419
22520.0 6.00469
22520.0 8.57491
23000.0 8.52473
24000.0 8.42500
25000.0 8.33123
26000.0 8.24284
27000.0 8.15933
28000.0 8.08027
29000.0 8.00526
30000.0 7.93397
35000.0 7.62380
40000.0 7.37264
50000.0 6.98611
60000.0 6.69838
70000.0 6.47306
80000.0 6.29026
90000.0 6.13802
100000 6.00870
125000 5.75544
150000 5.56887
170000 5.45146
200000 5.31247
200000 5.31252
250000 5.17390
300000 5.13230
400000 5.27391
500000 5.54690
600000 5.88315
693000 6.20837
693000 6.20837
700000 6.23285
800000 6.55938
816765 6.60714
900000 6.84429
1.00000E+06 7.07624
1.10000E+06 7.25089
1.20000E+06 7.34385
1.30000E+06 7.43680
1.39082E+06 7.48494
1.39452E+06 7.48690
1.40000E+06 7.48980
1.40868E+06 7.49255
1.45503E+06 7.50722
1.46363E+06 7.50994
1.47643E+06 7.51399
1.48120E+06 7.51550
1.50000E+06 7.52145
1.52000E+06 7.51968
1.53645E+06 7.51823
1.54541E+06 7.51744
1.56896E+06 7.51536
1.58703E+06 7.51377
1.58703E+06 7.51374
1.59280E+06 7.51324
1.60000E+06 7.51262
1.70000E+06 7.45469
1.80000E+06 7.39676
1.90000E+06 7.32182
2.00000E+06 7.24688
2.09949E+06 7.15295
2.09949E+06 7.15295
2.11626E+06 7.13712
2.11626E+06 7.13712
2.22551E+06 7.03397
2.22551E+06 7.03397
2.23296E+06 7.02694
2.23296E+06 7.02694
2.35663E+06 6.91018
2.35663E+06 6.91017
2.40155E+06 6.86776
2.45503E+06 6.81727
2.45503E+06 6.81728
2.50000E+06 6.77482
2.53217E+06 6.74444
2.53217E+06 6.74444
2.56591E+06 6.71259
2.60166E+06 6.67884
2.60166E+06 6.67883
2.75736E+06 6.53183
2.75736E+06 6.53183
2.86613E+06 6.42914
2.86613E+06 6.42914
2.90732E+06 6.39025
3.00000E+06 6.30275
3.50000E+06 5.85394
4.00000E+06 5.42644
5.00000E+06 4.73855
6.00000E+06 4.38881
7.00000E+06 4.32850
7.27434E+06 4.35445
8.00000E+06 4.42309
9.00000E+06 4.56453
9.89786E+06 4.69152
9.89786E+06 4.69152
1.00000E+07 4.70597
1.06260E+07 4.78435
1.10000E+07 4.83118
1.20000E+07 4.93531
1.30000E+07 5.01320
1.40000E+07 5.05901
1.45000E+07 5.06426
1.50000E+07 5.06950
1.60000E+07 5.04473
1.67381E+07 5.00229
1.70000E+07 4.98723
1.77503E+07 4.92346
1.77503E+07 4.92346
1.80000E+07 4.90224
1.90000E+07 4.79751
2.00000E+07 4.68158