Nd-148(n,tot) ENDF/B-VII.1
Energy(eV) XS(b)
1.00000E-05 134.318
1.25000E-05 120.600
1.50000E-05 110.474
2.00000E-05 96.2608
2.75000E-05 82.7366
3.50000E-05 73.8359
4.25000E-05 67.4105
5.00000E-05 62.4914
6.25000E-05 56.3567
7.50000E-05 51.8282
0.000100000 45.4716
0.000125000 41.1337
0.000150000 37.9316
0.000200000 33.4369
0.000275000 29.1601
0.000350000 26.3455
0.000425000 24.3136
0.000500000 22.7580
0.000625000 20.8181
0.000750000 19.3860
0.00100000 17.3759
0.00125000 16.0042
0.00150000 14.9916
0.00200000 13.5702
0.00275000 12.2177
0.00350000 11.3277
0.00425000 10.6851
0.00500000 10.1932
0.00625000 9.57966
0.00750000 9.12678
0.0100000 8.49105
0.0125000 8.05718
0.0150000 7.73688
0.0200000 7.28723
0.0253000 6.96485
0.0314750 6.69740
0.0376500 6.49874
0.0500000 6.21823
0.0625000 6.02374
0.0750000 5.88004
0.100000 5.67803
0.125000 5.53984
0.150000 5.43756
0.200000 5.29336
0.275000 5.15499
0.350000 5.06282
0.500000 4.94302
0.750000 4.82572
1.00000 4.75142
1.50000 4.65444
2.00000 4.58783
2.75000 4.51248
3.50000 4.45167
5.00000 4.35032
7.50000 4.20720
10.0000 4.07746
15.0000 3.83368
20.0000 3.59864
27.5000 3.25192
35.0000 2.90704
50.0000 2.21477
72.4439 1.18070
83.6659 0.699309
89.2769 0.490459
92.0824 0.406779
93.4851 0.398501
93.8358 0.422829
94.0112 0.452115
94.1865 0.509632
94.3619 0.637684
94.4495 0.766866
94.5372 1.00250
94.6249 1.50005
94.6687 1.98641
94.7125 2.85154
94.7345 3.56209
94.7564 4.61952
94.7783 6.29135
94.8002 9.15962
94.8221 14.7035
94.8331 19.6401
94.8440 27.5784
94.8550 41.4677
94.8660 68.7692
94.8714 93.1606
94.8769 131.810
94.8824 195.969
94.8879 304.088
94.8939 486.493
94.9000 607.828
94.9061 486.203
94.9121 304.127
94.9171 203.729
94.9221 141.298
94.9270 102.123
94.9320 76.6277
94.9420 47.2106
94.9519 31.8198
94.9618 22.8494
94.9718 17.2009
94.9916 10.7843
95.0115 7.42373
95.0314 5.45242
95.0513 4.19815
95.0711 3.35220
95.1109 2.31682
95.1506 1.73159
95.1904 1.36879
95.2301 1.12836
95.3096 0.839208
95.3891 0.678156
95.5481 0.513323
95.7071 0.433789
95.8661 0.388479
96.1841 0.339426
96.8201 0.295311
97.4561 0.271664
100.000 0.220586
101.705 0.203630
102.557 0.199704
103.409 0.199022
104.262 0.201817
105.114 0.208366
105.967 0.218985
106.819 0.234024
107.671 0.253880
108.524 0.278985
110.228 0.346940
111.933 0.442428
113.638 0.571042
115.342 0.739752
117.047 0.957247
120.456 1.58542
123.866 2.58535
127.275 4.17734
130.684 6.75631
134.094 11.0800
137.503 18.7385
139.208 24.8307
140.913 33.4991
142.617 46.2794
144.322 66.0011
146.027 98.3304
147.731 155.929
148.584 202.863
149.436 271.776
150.288 378.251
151.141 554.032
151.993 871.743
152.419 1134.29
152.845 1524.02
153.272 2131.68
153.698 3134.26
154.124 4890.27
154.550 8057.22
154.975 13039.9
155.400 16462.7
155.825 13312.3
156.250 8424.09
156.754 4833.24
157.259 3002.44
157.763 2017.63
158.267 1442.75
158.772 1082.10
159.276 842.225
160.285 553.898
161.293 393.993
162.302 296.089
164.319 187.011
166.336 130.433
168.353 97.1058
170.371 75.6902
171.379 67.7389
171.884 64.3564
172.010 63.6370
172.136 63.1232
172.199 63.1197
172.230 63.3025
172.262 63.7726
172.293 64.9077
172.309 66.0424
172.325 67.9912
172.341 71.7102
172.349 74.9192
172.356 79.8031
172.364 87.9226
172.372 102.403
172.380 130.826
172.384 154.870
172.388 189.628
172.394 266.724
172.400 318.094
172.406 266.657
172.412 189.490
172.418 141.202
172.424 113.627
172.430 97.4804
172.436 87.4932
172.448 76.5093
172.459 70.9914
172.471 67.8440
172.483 65.8752
172.507 63.6182
172.530 62.3899
172.554 61.6187
172.601 60.6764
172.695 59.6173
172.790 58.8877
173.167 56.6060
173.922 52.7164
175.431 46.1827
178.450 36.4762
181.469 29.6576
182.979 26.9694
183.733 25.7698
184.111 25.2243
184.299 25.0465
184.347 25.0750
184.394 25.2585
184.417 25.5360
184.429 25.7992
184.441 26.2377
184.453 27.0303
184.465 28.6448
184.470 30.1332
184.476 32.5628
184.482 36.7547
184.488 44.0061
184.494 55.5964
184.500 63.3106
184.506 55.5805
184.512 43.9732
184.516 38.7738
184.520 35.1595
184.527 30.8965
184.535 28.6889
184.542 27.4455
184.550 26.6660
184.557 26.1589
184.573 25.5472
184.588 25.2039
184.603 24.9908
184.633 24.7394
184.694 24.4888
184.754 24.3410
184.996 23.9397
185.480 23.2684
186.448 22.0326
188.384 19.8384
192.256 16.2886
200.000 11.3203
213.222 6.11137
226.444 2.78471
233.055 1.56363
236.361 1.07035
239.666 0.675786
241.319 0.524148
242.972 0.409522
243.798 0.368080
244.624 0.338491
245.451 0.321859
245.864 0.318784
246.277 0.319427
246.690 0.323970
247.103 0.332607
247.517 0.345544
247.930 0.363004
248.756 0.412467
249.583 0.483182
250.409 0.577999
251.235 0.701767
252.062 0.875902
252.268 0.944889
252.475 1.06490
252.578 1.19132
252.630 1.30466
252.681 1.49791
252.733 1.88465
252.759 2.24788
252.785 2.87355
252.811 4.09667
252.823 5.20278
252.836 7.01358
252.849 10.2703
252.856 12.9863
252.862 16.9682
252.869 23.3170
252.875 33.7549
252.882 52.7011
252.888 87.2711
252.894 139.483
252.900 173.535
252.906 138.579
252.912 87.2835
252.916 62.8053
252.920 46.5833
252.928 27.6935
252.936 18.1985
252.944 12.9608
252.953 9.73758
252.961 7.67297
252.977 5.24139
252.993 3.93532
253.009 3.15680
253.041 2.31806
253.073 1.90264
253.105 1.66930
253.170 1.43506
253.299 1.28051
253.427 1.24632
253.943 1.32394
254.973 1.64637
257.034 2.55705
259.096 3.87843
261.157 5.76317
263.218 8.44222
265.279 12.2680
267.340 17.7968
269.401 25.9400
271.462 38.2640
273.523 57.6192
275.585 89.5962
277.646 146.257
278.676 191.743
279.707 257.222
280.737 355.332
281.768 509.828
282.798 769.107
283.829 1240.64
284.344 1626.49
284.860 2184.99
285.375 3008.56
285.890 4220.20
286.695 6987.93
287.500 9017.06
288.305 7437.73
289.110 4797.04
289.962 2972.56
290.813 1959.05
291.664 1377.25
292.516 1021.17
293.367 789.628
294.219 631.236
295.921 434.732
297.624 321.813
299.327 250.688
302.733 168.790
306.138 124.602
309.544 97.6859
312.950 79.8638
316.355 67.3240
323.167 51.0153
329.978 40.9555
336.789 34.1349
343.601 29.1680
357.223 22.1842
370.846 16.8568
377.657 14.1046
381.063 12.5006
384.468 10.5727
387.874 8.06611
389.577 6.47014
391.280 4.58222
392.131 3.55134
392.983 2.54629
393.834 1.79310
394.047 1.70483
394.260 1.68765
394.366 1.71332
394.473 1.76687
394.579 1.85297
394.685 1.97705
394.792 2.14572
394.898 2.36631
395.005 2.64798
395.111 3.00156
395.218 3.44047
395.324 3.97950
395.537 5.43892
395.750 7.58915
395.963 10.7455
396.175 15.4108
396.388 22.3964
396.601 33.1017
396.814 50.0239
397.027 78.0146
397.240 127.203
397.346 166.234
397.453 221.565
397.559 302.722
397.665 426.676
397.772 625.786
397.878 964.212
397.985 1576.73
398.091 2724.68
398.196 4584.44
398.300 6021.03
398.405 5056.31
398.510 3312.48
398.609 2185.36
398.708 1512.52
398.807 1103.52
398.907 842.433
399.105 544.426
399.303 387.979
399.501 295.505
399.699 236.069
400.096 166.110
400.492 127.464
400.889 103.519
401.285 87.4499
401.682 76.0298
402.475 61.0233
403.267 51.6993
404.060 45.3871
404.853 40.8452
406.439 34.7567
408.025 30.8585
409.611 28.1375
411.196 26.1193
414.368 23.2945
417.539 21.3776
423.883 18.8574
430.226 17.1980
436.569 15.9711
449.255 14.1886
474.628 11.8450
500.000 10.2106
506.994 9.82761
508.742 9.73586
510.490 9.64714
511.365 9.60574
512.239 9.57190
512.676 9.56509
512.894 9.56951
513.113 9.58688
513.332 9.63669
513.441 9.69165
513.550 9.79579
513.659 10.0218
513.714 10.2457
513.769 10.6476
513.796 10.9814
513.823 11.4796
513.851 12.2732
513.878 13.6495
513.905 16.3503
513.919 18.8064
513.932 22.7963
513.946 30.0179
513.953 35.9341
513.960 44.7146
513.967 58.6847
513.973 81.6308
513.980 122.315
513.987 197.804
513.994 310.359
514.000 386.180
514.007 310.370
514.013 197.818
514.020 121.532
514.027 80.3411
514.034 57.4343
514.041 43.7866
514.048 35.1204
514.055 29.3168
514.069 22.3501
514.083 18.4541
514.097 16.0820
514.125 13.4761
514.153 12.1451
514.181 11.3806
514.209 10.8983
514.237 10.5766
514.292 10.1850
514.348 9.96463
514.460 9.73698
514.572 9.62611
514.684 9.56244
514.907 9.49270
515.355 9.42779
515.802 9.39031
516.696 9.33474
517.590 9.28643
519.379 9.19541
521.168 9.10712
528.322 8.76537
542.632 8.11629
571.250 6.88964
599.869 5.65132
614.178 4.98199
621.333 4.62430
624.910 4.43899
626.699 4.34856
627.146 4.32962
627.593 4.32002
627.817 4.32806
628.041 4.37234
628.152 4.44317
628.208 4.51562
628.264 4.64777
628.320 4.92406
628.348 5.19066
628.376 5.65441
628.404 6.57620
628.418 7.41920
628.432 8.80057
628.446 11.3323
628.453 13.4520
628.460 16.5933
628.467 21.6627
628.474 30.3298
628.481 46.3402
628.488 77.3321
628.494 121.211
628.500 150.396
628.506 121.216
628.512 77.3370
628.517 52.4812
628.523 37.2770
628.528 27.8870
628.533 21.8495
628.543 14.9669
628.554 11.4045
628.564 9.34576
628.575 8.05572
628.595 6.59623
628.616 5.83524
628.637 5.38951
628.679 4.91507
628.720 4.68071
628.762 4.54755
628.845 4.40848
629.011 4.29967
629.178 4.25462
629.511 4.21015
629.843 4.18247
631.175 4.09925
633.837 3.94567
639.162 3.62967
649.811 2.93785
660.460 2.14740
671.109 1.25365
676.434 0.790660
681.758 0.371240
684.421 0.213027
685.752 0.158624
686.418 0.139943
687.083 0.128106
687.749 0.124148
688.414 0.129267
689.080 0.144847
689.745 0.172486
690.411 0.214056
691.077 0.271725
691.742 0.348035
692.408 0.445948
693.739 0.721332
695.070 1.13441
696.401 1.73729
697.732 2.60541
699.063 3.85107
700.395 5.64516
701.726 8.25728
703.057 12.1273
704.388 18.0087
705.719 27.2629
707.050 42.5345
708.381 69.4357
709.047 90.8578
709.713 121.422
710.378 166.629
711.044 236.507
711.709 350.648
712.375 549.965
713.041 925.006
713.373 1233.16
713.706 1665.41
714.303 2782.81
714.900 3627.67
715.498 3023.82
716.095 1968.13
716.589 1357.63
717.082 969.706
717.576 721.741
718.070 557.562
719.057 363.698
720.044 258.927
721.031 196.048
722.018 155.274
723.993 107.041
725.967 80.3775
727.942 63.8983
729.916 52.8882
731.891 45.0989
735.839 34.9359
739.788 28.6785
743.737 24.4746
747.686 21.4676
755.584 17.4557
763.481 14.8782
771.379 13.0074
773.354 12.5816
775.328 12.1243
776.315 11.8508
776.809 11.6861
777.302 11.4853
777.796 11.2181
778.043 11.0404
778.290 10.8133
778.413 10.6739
778.536 10.5129
778.660 10.3295
778.783 10.1366
778.845 10.0539
778.907 10.0100
778.968 10.0668
779.030 10.3880
779.092 11.4716
779.123 12.7594
779.153 15.2471
779.184 20.5262
779.200 25.4131
779.215 33.3669
779.223 39.3512
779.231 47.2827
779.238 58.1459
779.246 73.3905
779.250 83.4802
779.254 95.3579
779.258 110.188
779.261 127.871
779.265 150.199
779.269 177.034
779.277 252.030
779.283 330.168
779.288 422.371
779.300 556.778
779.306 540.019
779.312 473.967
779.323 316.606
779.335 211.972
779.346 149.572
779.357 111.904
779.368 87.9668
779.380 71.9454
779.391 60.7261
779.414 46.4837
779.436 38.0100
779.459 32.5677
779.504 26.1129
779.549 22.5161
779.594 20.2776
779.639 18.7657
779.684 17.6843
779.775 16.2509
779.865 15.3524
779.955 14.7384
780.045 14.2929
780.226 13.6883
780.406 13.2951
780.587 13.0164
780.767 12.8063
781.128 12.5047
781.489 12.2923
782.211 11.9964
782.933 11.7843
783.655 11.6137
785.098 11.3359
787.986 10.8946
790.873 10.5230
802.423 9.32715
813.973 8.36137
825.523 7.49253
837.073 6.61534
842.848 6.12552
848.623 5.55052
854.398 4.80287
857.286 4.30728
860.173 3.66753
861.617 3.26696
863.061 2.79187
864.504 2.22435
865.948 1.56084
866.670 1.21278
867.392 0.901030
867.753 0.789248
868.114 0.740636
868.294 0.753963
868.475 0.803562
868.655 0.901528
868.836 1.06409
869.016 1.31394
869.197 1.68243
869.377 2.21421
869.558 2.97346
869.738 4.05674
869.918 5.60835
870.099 7.85834
870.279 11.1755
870.460 16.1954
870.640 24.0519
870.821 36.9273
871.001 59.3799
871.092 77.1148
871.182 102.177
871.272 138.833
871.362 194.677
871.452 284.194
871.543 436.026
871.633 710.401
871.723 1224.10
871.812 2054.38
871.900 2690.80
871.989 2253.43
872.077 1473.05
872.141 1064.22
872.206 788.693
872.270 603.484
872.334 475.959
872.463 319.273
872.591 231.371
872.720 177.273
872.848 141.630
873.106 98.7926
873.363 74.7854
873.620 59.8271
873.877 49.7842
874.134 42.6584
874.648 33.3445
875.162 27.6116
875.677 23.7709
876.191 21.0371
877.219 17.4295
878.248 15.1692
879.276 13.6246
880.304 12.5024
882.361 10.9765
884.418 9.97989
886.475 9.26992
888.532 8.73212
892.645 7.95520
896.759 7.40324
898.816 7.17847
900.873 6.98007
901.901 6.89208
902.929 6.81972
903.444 6.80077
903.701 6.80399
903.958 6.82791
904.215 6.90348
904.344 6.98915
904.472 7.15322
904.601 7.51207
904.665 7.86962
904.729 8.51316
904.761 9.04898
904.793 9.85137
904.826 11.1394
904.858 13.3804
904.890 17.8373
904.906 21.9196
904.922 28.6308
904.938 40.9630
904.946 51.2480
904.954 66.7736
904.962 91.9941
904.970 134.892
904.978 214.693
904.986 373.279
904.993 591.814
905.000 739.752
905.007 591.853
905.014 373.061
905.020 249.502
905.025 173.327
905.031 126.137
905.037 95.7261
905.049 60.9820
905.060 42.9610
905.072 32.5339
905.083 25.9948
905.107 18.5920
905.130 14.7309
905.153 12.4697
905.176 11.0338
905.199 10.0655
905.246 8.88138
905.292 8.21180
905.339 7.79612
905.385 7.52046
905.478 7.18633
905.570 6.99832
905.756 6.80098
905.941 6.70065
906.127 6.63930
906.498 6.56389
907.240 6.47457
907.982 6.40864
909.466 6.29574
910.950 6.19266
916.887 5.82244
928.760 5.18546
952.507 4.05474
976.254 2.88768
988.127 2.23280
1000.00 1.50581
1013.21 0.634488
1019.81 0.248568
1021.46 0.175448
1023.11 0.119709
1023.94 0.100296
1024.76 0.0878923
1025.59 0.0836920
1026.00 0.0851113
1026.41 0.0891344
1027.24 0.105953
1028.06 0.136136
1028.89 0.182183
1029.71 0.246885
1030.54 0.333902
1031.36 0.447252
1033.01 0.774948
1034.66 1.28733
1036.31 2.07153
1037.97 3.26837
1039.62 5.10764
1041.27 7.99285
1042.92 12.6608
1044.57 20.5703
1046.22 34.8850
1047.04 46.5519
1047.87 63.4837
1048.69 89.0698
1049.52 129.702
1050.35 198.555
1051.17 324.733
1051.58 428.768
1052.00 579.686
1052.41 803.881
1052.82 1134.72
1053.46 1890.74
1054.10 2459.55
1054.74 2051.32
1055.38 1336.72
1055.85 961.818
1056.31 709.854
1056.78 540.925
1057.25 425.095
1058.18 282.854
1059.11 203.377
1060.05 154.603
1060.98 122.565
1062.85 84.1800
1064.72 62.7457
1066.58 49.4240
1068.45 40.4931
1070.32 34.1618
1074.05 25.8699
1077.78 20.7374
1081.52 17.2634
1085.25 14.7526
1092.72 11.3272
1100.19 9.03262
1115.12 5.88591
1130.06 3.42262
1137.52 2.23920
1144.99 1.08287
1148.72 0.569844
1150.59 0.359330
1152.46 0.204608
1153.39 0.157730
1154.33 0.138434
1155.26 0.153977
1156.19 0.213689
1156.66 0.263827
1157.13 0.329852
1158.06 0.518075
1158.99 0.799373
1159.93 1.20167
1160.86 1.76343
1161.79 2.53525
1162.73 3.59114
1163.66 5.03134
1164.59 7.00776
1165.53 9.73682
1166.46 13.5618
1167.39 19.0060
1168.33 26.9541
1169.26 38.8859
1170.19 57.5497
1171.13 88.1926
1172.06 142.081
1172.99 245.285
1173.46 333.632
1173.93 466.031
1174.39 670.225
1174.86 984.510
1175.53 1669.52
1176.20 2208.22
1176.87 1870.80
1177.54 1237.32
1178.03 900.097
1178.52 671.307
1179.00 516.714
1179.49 409.798
1180.47 277.706
1181.44 203.092
1182.42 156.860
1183.40 126.196
1185.35 89.0749
1187.30 68.0262
1189.25 54.7718
1193.15 39.2987
1197.05 30.6423
1200.96 25.0067
1202.91 22.7302
1204.86 20.4878
1205.84 19.1954
1206.32 18.4203
1206.81 17.4748
1207.30 16.2060
1207.54 15.3576
1207.79 14.2719
1207.91 13.6057
1208.03 12.8374
1208.15 11.9657
1208.28 11.0531
1208.34 10.6622
1208.40 10.4475
1208.46 10.6780
1208.52 12.0349
1208.55 13.6746
1208.58 16.4706
1208.60 18.7464
1208.61 21.6242
1208.63 25.5082
1208.64 30.8171
1208.66 38.7774
1208.67 49.4762
1208.69 65.0265
1208.70 88.2953
1208.72 124.320
1208.73 182.241
1208.75 278.741
1208.76 445.830
1208.78 778.539
1208.80 1072.18
1208.81 1052.60
1208.82 939.436
1208.84 645.989
1208.86 449.427
1208.87 328.355
1208.89 251.625
1208.91 200.983
1208.92 164.352
1208.94 139.748
1208.98 107.443
1209.01 87.2066
1209.04 74.2580
1209.11 58.4558
1209.18 49.2504
1209.25 43.3793
1209.32 39.3396
1209.39 36.4394
1209.53 32.4545
1209.66 29.9067
1209.80 28.1243
1209.94 26.8035
1210.21 24.9580
1210.49 23.7217
1211.03 22.1148
1211.58 21.0699
1212.13 20.3037
1213.23 19.1869
1215.43 17.6762
1217.62 16.5774
1222.02 14.9224
1226.41 13.6589
1235.20 11.7626
1239.59 11.0154
1240.69 10.8470
1241.79 10.6937
1242.34 10.6324
1242.89 10.6111
1243.16 10.6539
1243.30 10.7162
1243.44 10.8456
1243.57 11.1437
1243.64 11.4469
1243.71 11.9887
1243.78 13.1336
1243.81 14.2170
1243.85 16.0939
1243.88 19.9249
1243.90 23.3302
1243.92 28.9108
1243.93 38.9517
1243.94 47.8416
1243.95 59.5973
1243.96 80.4245
1243.97 111.275
1243.98 173.518
1243.98 275.523
1243.99 434.669
1244.00 540.792
1244.01 434.715
1244.02 275.580
1244.02 183.341
1244.03 127.822
1244.04 93.9170
1244.04 74.8599
1244.06 49.0886
1244.07 36.6792
1244.08 28.9102
1244.10 24.3860
1244.12 19.0173
1244.15 16.2149
1244.18 14.5723
1244.21 13.5280
1244.23 12.8448
1244.29 11.9702
1244.34 11.4745
1244.45 10.9614
1244.55 10.7060
1244.66 10.5592
1244.88 10.3954
1245.31 10.2374
1245.73 10.1433
1246.59 10.0011
1247.45 9.87735
1249.17 9.64722
1250.89 9.42867
1257.76 8.62235
1271.50 7.19879
1285.25 5.85540
1292.12 5.15799
1295.55 4.79406
1297.27 4.61545
1297.70 4.57838
1298.13 4.56123
1298.34 4.58003
1298.56 4.67558
1298.67 4.82806
1298.77 5.26240
1298.83 5.85289
1298.85 6.42243
1298.88 7.36959
1298.91 9.29228
1298.92 11.1242
1298.93 13.9212
1298.95 19.3967
1298.96 24.0439
1298.96 29.9149
1298.97 40.5812
1298.97 55.5594
1298.98 86.2247
1298.99 135.362
1298.99 218.877
1299.00 265.828
1299.01 218.892
1299.01 135.380
1299.02 92.4386
1299.02 66.4159
1299.03 47.1743
1299.03 36.9716
1299.05 24.0449
1299.06 17.4320
1299.07 13.6422
1299.08 11.2818
1299.10 8.71202
1299.12 7.29851
1299.14 6.47737
1299.19 5.62306
1299.23 5.19105
1299.27 4.95128
1299.36 4.69870
1299.53 4.49647
1299.71 4.41133
1300.05 4.32349
1300.40 4.26626
1301.79 4.08569
1304.56 3.74097
1310.10 2.99961
1315.65 2.16424
1321.19 1.23776
1323.96 0.770214
1326.74 0.364410
1328.12 0.224434
1328.82 0.183407
1329.51 0.169755
1330.20 0.191918
1330.90 0.261031
1331.59 0.391923
1332.28 0.604564
1332.98 0.926737
1333.67 1.39521
1334.36 2.06327
1335.05 3.00664
1335.75 4.33597
1336.44 6.21698
1337.13 8.90497
1337.83 12.8067
1338.52 18.5961
1339.21 27.4454
1339.91 41.5141
1340.60 65.0798
1341.29 107.413
1341.64 141.704
1341.98 190.978
1342.33 264.533
1342.68 377.497
1343.02 557.369
1343.37 844.177
1343.84 1441.87
1344.30 1918.47
1344.77 1626.31
1345.23 1074.65
1345.57 784.513
1345.90 587.628
1346.23 454.047
1346.57 361.326
1347.24 246.284
1347.90 180.952
1348.57 140.386
1349.24 113.409
1350.58 80.6551
1351.91 62.0512
1353.25 50.3207
1354.58 42.3588
1355.92 36.6517
1358.59 29.0871
1361.26 24.3474
1363.94 21.1157
1366.61 18.7748
1371.95 15.6053
1377.30 13.5444
1382.64 12.0804
1383.98 11.7783
1385.31 11.5013
1385.98 11.3775
1386.65 11.2811
1386.98 11.2664
1387.32 11.3435
1387.48 11.5051
1387.57 11.6814
1387.65 12.0074
1387.74 12.7131
1387.78 13.4059
1387.82 14.5981
1387.84 15.5892
1387.86 17.0549
1387.88 19.3512
1387.90 23.2395
1387.92 30.5895
1387.93 37.3597
1387.94 47.0052
1387.96 64.9841
1387.97 95.2667
1387.97 120.126
1387.98 156.417
1387.98 210.760
1387.99 308.881
1387.99 489.846
1388.00 605.860
1388.01 489.916
1388.01 308.969
1388.02 224.676
1388.02 175.588
1388.03 109.144
1388.04 74.8952
1388.05 55.5188
1388.06 43.6504
1388.07 35.9067
1388.09 27.1660
1388.10 22.0874
1388.12 19.1920
1388.16 15.9083
1388.19 14.2477
1388.23 13.2927
1388.30 12.2902
1388.37 11.7937
1388.44 11.5158
1388.58 11.2198
1388.86 10.9700
1389.14 10.8493
1389.70 10.7000
1390.26 10.5862
1391.38 10.3881
1392.50 10.2061
1396.99 9.55686
1405.97 8.49321
1423.92 6.86241
1441.87 5.49647
1459.83 4.14163
1477.78 2.61319
1486.76 1.74047
1495.73 0.826560
1500.22 0.412090
1502.47 0.244842
1503.59 0.178723
1504.71 0.128643
1505.83 0.0989489
1506.96 0.0951457
1508.08 0.124244
1509.20 0.195237
1509.76 0.249951
1510.32 0.319747
1511.44 0.512931
1512.57 0.794739
1513.69 1.19173
1514.81 1.74023
1515.93 2.48819
1517.05 3.50379
1518.18 4.88275
1519.30 6.76287
1520.42 9.34719
1521.54 12.9429
1522.66 18.0290
1523.79 25.3802
1524.91 36.3032
1526.03 53.1165
1527.15 80.1912
1528.27 126.383
1529.40 211.168
1529.96 280.596
1530.52 380.751
1531.08 527.512
1531.64 742.011
1532.57 1271.98
1533.50 1699.44
1534.43 1452.54
1535.36 968.615
1536.37 613.360
1537.38 413.621
1538.39 297.890
1539.40 226.363
1540.41 179.374
1541.41 146.882
1543.43 105.967
1545.45 81.9420
1547.47 66.5007
1551.50 48.2462
1555.54 38.0505
1559.57 31.6499
1563.61 27.2957
1567.64 24.1574
1575.71 19.9522
1583.79 17.2688
1591.86 15.4046
1599.93 14.0289
1616.07 12.1170
1632.21 10.8300
1664.49 9.14631
1696.78 8.02472
1729.06 7.15114
1745.20 6.74867
1761.34 6.32153
1769.41 6.06474
1773.45 5.90781
1777.48 5.71254
1781.52 5.44159
1783.54 5.25106
1785.55 4.99046
1786.56 4.81698
1787.57 4.59808
1788.58 4.31101
1789.59 3.91617
1790.09 3.65653
1790.60 3.33829
1791.10 2.94121
1791.61 2.44830
1791.86 2.16602
1792.11 1.87881
1792.36 1.63709
1792.62 1.60262
1792.74 1.80197
1792.87 2.33507
1792.99 3.54871
1793.06 4.63143
1793.12 6.26077
1793.18 8.75732
1793.25 12.6890
1793.31 19.1259
1793.37 30.2455
1793.40 39.0552
1793.44 50.9387
1793.47 68.5094
1793.50 93.6709
1793.53 133.583
1793.56 195.458
1793.59 301.964
1793.62 476.329
1793.66 816.128
1793.70 1090.25
1793.74 928.402
1793.78 616.403
1793.80 458.507
1793.83 352.183
1793.88 224.562
1793.93 155.748
1793.98 116.521
1794.03 91.2649
1794.08 74.6223
1794.18 54.1162
1794.28 42.2206
1794.38 34.6892
1794.58 25.9248
1794.78 21.0498
1794.99 18.0199
1795.19 15.9564
1795.39 14.4817
1795.79 12.5112
1796.19 11.2652
1796.60 10.4093
1797.00 9.78742
1797.81 8.94063
1798.61 8.39239
1799.42 8.00650
1800.22 7.71968
1801.83 7.31794
1803.44 7.04653
1805.05 6.84768
1806.67 6.69336
1809.89 6.46346
1813.11 6.29410
1819.55 6.04485
1832.44 5.69438
1845.33 5.41796
1871.11 4.93753
1896.89 4.48436
1922.67 4.02238
1948.44 3.52094
1974.22 2.92530
1987.11 2.54886
1993.56 2.32092
2000.00 2.04755
2007.01 1.66237
2010.51 1.41229
2014.01 1.10136
2015.77 0.915742
2017.52 0.707510
2019.27 0.481885
2021.02 0.270951
2021.90 0.205457
2022.34 0.198307
2022.77 0.220627
2023.21 0.288158
2023.65 0.425885
2024.09 0.674724
2024.31 0.860877
2024.53 1.10428
2024.96 1.83871
2025.40 3.11307
2025.84 5.40801
2026.06 7.23408
2026.28 9.81212
2026.50 13.5519
2026.72 19.1662
2026.93 27.9730
2027.15 42.6018
2027.37 68.8287
2027.48 90.2286
2027.59 120.982
2027.70 167.671
2027.81 240.054
2027.92 357.232
2028.03 548.973
2028.16 918.931
2028.30 1200.52
2028.44 1002.84
2028.57 653.900
2028.72 410.512
2028.86 273.734
2029.00 194.538
2029.14 146.001
2029.29 113.987
2029.43 91.9747
2029.71 64.5613
2030.00 48.6120
2030.29 38.5232
2030.86 26.7699
2031.43 20.3541
2032.00 16.4077
2032.57 13.7733
2033.14 11.9073
2034.28 9.46323
2035.42 7.94765
2036.57 6.92131
2037.71 6.18125
2039.99 5.18322
2042.28 4.53580
2046.84 3.72626
2051.41 3.21636
2055.98 2.84524
2065.11 2.29489
2083.39 1.47076
2101.66 0.753043
2110.79 0.424704
2119.93 0.153713
2122.21 0.103647
2124.50 0.0647829
2126.78 0.0402457
2129.06 0.0340841
2131.35 0.0515785
2133.63 0.0996737
2134.77 0.137968
2135.92 0.187592
2138.20 0.327642
2140.48 0.536773
2142.77 0.838154
2145.05 1.26433
2147.33 1.86179
2149.62 2.69837
2151.90 3.87551
2154.19 5.54940
2156.47 7.96754
2158.75 11.5444
2161.04 16.9969
2163.32 25.6519
2165.61 40.1478
2167.89 66.2441
2169.03 87.4196
2170.17 118.058
2171.32 163.921
2172.46 235.124
2173.60 349.357
2174.74 534.029
2176.22 905.428
2177.70 1196.25
2179.18 1008.83
2180.66 663.640
2182.18 424.568
2183.70 287.453
2185.22 206.771
2186.74 156.447
2188.26 123.175
2189.78 100.098
2192.82 70.9918
2195.86 53.9134
2198.90 42.9616
2204.98 30.0533
2211.05 22.8692
2217.13 18.3609
2229.29 13.0523
2241.45 10.0033
2253.61 7.97135
2277.92 5.24470
2302.24 3.21417
2314.39 2.27207
2326.55 1.33581
2338.71 0.454054
2341.75 0.272846
2344.79 0.131723
2346.31 0.0841328
2347.83 0.0582318
2349.35 0.0607368
2350.87 0.100734
2352.39 0.190691
2353.15 0.259535
2353.91 0.347796
2355.43 0.596265
2356.94 0.970550
2358.46 1.52209
2359.98 2.32738
2361.50 3.50536
2363.02 5.24574
2364.54 7.87090
2366.06 11.9452
2367.58 18.5319
2369.10 29.7896
2370.62 50.6315
2371.38 67.9900
2372.14 93.6858
2372.90 133.423
2373.66 197.728
2374.42 306.635
2375.18 494.300
2376.04 831.892
2376.90 1091.06
2377.76 913.670
2378.62 596.623
2379.40 398.475
2380.18 277.601
2380.96 202.918
2381.74 154.730
2383.29 99.0203
2384.85 69.4714
2386.41 51.8577
2387.97 40.4498
2391.08 26.8436
2394.20 19.1355
2397.31 14.1724
2403.54 7.96063
2409.77 3.87104
2412.89 2.21352
2416.00 0.853272
2416.78 0.597675
2417.56 0.400370
2418.34 0.284055
2418.73 0.266226
2419.12 0.282330
2419.51 0.339469
2419.89 0.445909
2420.28 0.612901
2420.67 0.852965
2421.06 1.18430
2421.45 1.62671
2422.23 2.96548
2423.01 5.21127
2423.79 8.96275
2424.57 15.3451
2425.35 26.6051
2425.74 35.4546
2426.12 47.7574
2426.51 65.3544
2426.90 91.0869
2427.29 130.114
2427.68 191.006
2428.07 289.077
2428.46 448.158
2428.98 784.098
2429.50 1067.29
2430.02 928.804
2430.54 629.524
2431.04 425.110
2431.54 300.715
2432.03 223.926
2432.53 174.242
2433.52 116.529
2434.52 85.5143
2435.51 66.7836
2436.51 54.4835
2438.49 39.5912
2440.48 31.0435
2442.47 25.5454
2446.45 18.8991
2450.42 14.9940
2454.40 12.3817
2462.35 8.99170
2470.30 6.76063
2478.26 5.07668
2494.16 2.49256
2502.11 1.44682
2510.07 0.594027
2514.04 0.285313
2516.03 0.176530
2518.02 0.108109
2519.01 0.0921601
2520.01 0.0904154
2521.00 0.104675
2521.99 0.137003
2522.99 0.189772
2523.98 0.265714
2525.97 0.500235
2527.96 0.872539
2529.95 1.42531
2531.94 2.21783
2533.92 3.33253
2535.91 4.88629
2537.90 7.04813
2539.89 10.0679
2541.88 14.3241
2543.86 20.4114
2545.85 29.2772
2547.84 42.5209
2549.83 62.9337
2551.82 95.6244
2553.80 150.357
2555.79 246.174
2557.78 417.394
2560.04 742.043
2562.30 1023.86
2564.56 899.170
2566.82 614.232
2569.06 413.009
2571.29 291.826
2573.53 217.761
2575.77 170.134
2578.01 137.886
2580.24 115.045
2584.72 85.4967
2589.19 67.6321
2593.66 55.8800
2602.61 41.6102
2611.56 33.3870
2620.51 28.0820
2638.40 21.6475
2656.29 17.8466
2674.19 15.2728
2692.08 13.3378
2701.03 12.5098
2705.50 12.1250
2707.74 11.9677
2708.30 11.9565
2708.86 12.0122
2709.14 12.1308
2709.42 12.5002
2709.56 13.0188
2709.63 13.5280
2709.70 14.4333
2709.77 16.2728
2709.80 17.9989
2709.84 20.9336
2709.87 26.5162
2709.89 31.5759
2709.91 39.1160
2709.93 52.7442
2709.94 76.9254
2709.95 98.6771
2709.96 127.434
2709.97 177.067
2709.98 244.593
2709.99 390.802
2710.00 477.551
2710.01 377.901
2710.02 244.663
2710.03 177.133
2710.04 131.954
2710.05 83.2744
2710.07 58.3228
2710.08 44.2248
2710.10 35.1376
2710.12 29.6471
2710.15 23.1586
2710.18 19.5433
2710.21 17.4533
2710.27 15.1680
2710.33 13.9980
2710.39 13.3385
2710.51 12.6406
2710.75 12.1038
2710.99 11.8953
2711.48 11.7166
2711.96 11.6265
2713.90 11.4151
2717.77 11.0783
2725.51 10.4231
2741.00 9.00799
2748.75 8.15219
2756.49 7.06946
2760.37 6.37869
2764.24 5.52512
2766.17 5.01303
2768.11 4.42722
2769.08 4.10356
2770.05 3.76337
2771.01 3.45759
2771.26 3.43589
2771.50 3.55292
2771.62 3.79781
2771.74 4.54764
2771.80 5.57804
2771.86 8.20208
2771.89 11.5239
2771.91 14.3940
2771.92 18.9673
2771.94 26.8565
2771.95 42.0114
2771.96 56.3155
2771.97 75.6311
2771.98 111.200
2771.98 161.527
2771.99 256.768
2772.00 320.339
2772.01 256.943
2772.02 161.740
2772.02 117.296
2772.03 87.0388
2772.04 54.2908
2772.05 36.9446
2772.06 26.9222
2772.07 20.6855
2772.09 16.5666
2772.11 11.6603
2772.13 8.87937
2772.15 7.28412
2772.20 5.52359
2772.29 4.08358
2772.37 3.51669
2772.55 3.03260
2772.73 2.80432
2773.08 2.52873
2773.44 2.31862
2774.86 1.56615
2776.28 0.852370
2776.99 0.553852
2777.70 0.361665
2778.05 0.336656
2778.41 0.386131
2778.76 0.541255
2779.12 0.847052
2779.47 1.36971
2779.83 2.20858
2780.18 3.51644
2780.54 5.53505
2780.89 8.66013
2781.25 13.5659
2781.60 21.4575
2781.96 34.6155
2782.31 57.6584
2782.67 100.676
2782.85 136.231
2783.02 187.256
2783.20 261.794
2783.38 370.363
2783.69 662.618
2784.00 919.422
2784.31 813.011
2784.62 558.927
2784.82 432.664
2785.02 340.747
2785.42 226.774
2785.82 163.909
2786.21 126.144
2786.61 101.710
2787.01 84.9373
2787.80 63.8523
2788.60 51.4184
2789.39 43.3517
2790.98 33.6594
2792.57 28.1199
2794.15 24.5643
2795.74 22.0969
2797.33 20.2858
2800.51 17.8013
2803.68 16.1699
2806.86 15.0071
2810.03 14.1288
2816.39 12.8702
2822.74 11.9893
2835.44 10.7787
2848.15 9.92529
2860.85 9.24222
2886.26 8.09028
2911.67 6.96040
2924.38 6.30952
2937.08 5.51788
2949.79 4.45457
2956.14 3.74342
2962.49 2.84004
2965.67 2.29332
2968.84 1.67596
2972.02 1.00408
2975.20 0.372423
2975.99 0.253665
2976.78 0.170384
2977.58 0.140804
2978.37 0.191977
2979.17 0.364764
2979.56 0.515258
2979.96 0.722198
2980.36 0.999294
2980.75 1.36402
2981.55 2.45300
2982.34 4.26482
2983.14 7.28809
2983.93 12.4386
2984.72 21.5563
2985.52 38.6727
2985.92 52.8679
2986.31 73.6231
2986.71 104.878
2987.11 153.440
2987.50 230.974
2987.90 355.481
2988.45 628.863
2989.00 865.207
2989.55 760.059
2990.10 519.827
2990.53 379.249
2990.96 284.630
2991.39 221.248
2991.82 177.657
2992.67 123.934
2993.53 93.5053
2994.39 74.5125
2995.25 61.8120
2996.96 46.1992
2998.68 37.1704
3000.39 31.3835
3002.11 27.3929
3003.82 24.4907
3007.25 20.5727
3010.68 18.0630
3014.11 16.3206
3017.54 15.0405
3024.41 13.2796
3031.27 12.1172
3038.13 11.2843
3041.56 10.9489
3043.27 10.7990
3044.13 10.7374
3044.56 10.7465
3044.77 10.8966
3044.88 11.4714
3044.91 11.9997
3044.93 13.2729
3044.95 14.7783
3044.96 17.6653
3044.97 24.6726
3044.98 32.9906
3044.99 45.6395
3044.99 68.2117
3045.00 80.3961
3045.01 64.8272
3045.01 45.4073
3045.02 34.6961
3045.02 27.6497
3045.03 20.0925
3045.05 14.6415
3045.07 12.8108
3045.09 12.0238
3045.17 11.0481
3045.33 10.7371
3045.64 10.6290
3046.26 10.5577
3047.51 10.4564
3050.01 10.2747
3055.00 9.95137
3059.99 9.67010
3062.49 9.54652
3063.74 9.50509
3064.36 9.55276
3064.52 9.62355
3064.67 9.83163
3064.75 10.1160
3064.83 10.8794
3064.87 11.8589
3064.91 14.2998
3064.93 17.2722
3064.95 23.4827
3064.96 30.0987
3064.97 42.3800
3064.97 52.6983
3064.98 68.0452
3064.98 91.4280
3064.99 120.226
3064.99 185.839
3065.00 231.355
3065.01 185.772
3065.01 120.143
3065.02 80.7858
3065.03 55.2198
3065.03 40.6803
3065.04 31.9018
3065.06 22.4953
3065.07 18.1466
3065.10 13.8786
3065.12 12.1515
3065.18 10.7238
3065.23 10.1811
3065.34 9.75727
3065.45 9.60032
3065.89 9.42769
3066.76 9.34828
3068.51 9.26019
3072.01 9.10943
3079.00 8.83998
3092.99 8.38694
3099.99 8.19233
3106.98 8.01490
3110.48 7.93302
3113.98 7.85916
3115.73 7.83017
3117.48 7.82160
3118.35 7.84472
3119.23 7.94531
3119.66 8.10086
3119.88 8.26033
3120.10 8.55185
3120.32 9.17438
3120.43 9.78321
3120.54 10.8699
3120.65 13.1310
3120.70 15.2951
3120.76 18.9685
3120.81 26.2912
3120.84 32.7841
3120.86 43.3201
3120.89 62.9610
3120.91 79.3021
3120.92 101.650
3120.93 138.961
3120.95 195.612
3120.96 301.802
3120.97 477.514
3120.99 770.528
3121.00 947.390
3121.01 748.258
3121.03 477.516
3121.04 312.132
3121.05 213.392
3121.06 153.493
3121.08 115.493
3121.10 72.7395
3121.12 50.8830
3121.15 38.3521
3121.17 30.5427
3121.22 21.7541
3121.27 17.1960
3121.32 14.5366
3121.41 11.7387
3121.51 10.3471
3121.60 9.56983
3121.79 8.76385
3121.98 8.37586
3122.18 8.16074
3122.56 7.93919
3123.32 7.76757
3124.09 7.69638
3125.62 7.62488
3127.15 7.57957
3133.27 7.44452
3139.38 7.32608
3145.50 7.21420
3151.62 7.10729
3157.74 7.00505
3163.86 6.91137
3166.92 6.88895
3167.68 6.90484
3168.45 6.97328
3168.83 7.07998
3169.21 7.39121
3169.41 7.82235
3169.50 8.25054
3169.60 9.01081
3169.69 10.6010
3169.74 12.1291
3169.79 14.7234
3169.84 19.9326
3169.86 24.6839
3169.88 32.5206
3169.91 46.7525
3169.92 58.6192
3169.93 76.4375
3169.94 104.693
3169.96 152.525
3169.97 239.361
3169.98 384.901
3169.99 612.070
3170.00 763.769
3170.01 612.667
3170.02 385.650
3170.03 230.535
3170.05 153.117
3170.06 105.197
3170.07 78.7470
3170.08 60.2158
3170.09 48.7745
3170.11 34.5895
3170.14 26.2258
3170.16 21.3038
3170.20 15.6718
3170.25 12.7326
3170.29 11.0738
3170.38 9.32089
3170.48 8.45519
3170.57 7.97392
3170.75 7.47768
3171.11 7.10418
3171.47 6.96605
3172.19 6.85755
3172.91 6.81146
3175.80 6.73234
3181.58 6.63645
3193.14 6.46696
3216.26 6.15160
3262.50 5.57112
3308.75 5.01961
3331.87 4.74323
3343.43 4.60296
3349.21 4.53346
3352.10 4.50527
3353.54 4.51921
3354.26 4.63802
3354.44 4.76659
3354.62 5.12576
3354.72 5.61828
3354.81 6.93292
3354.85 8.63066
3354.87 10.2628
3354.90 12.9082
3354.92 18.1671
3354.93 22.5748
3354.94 29.4505
3354.95 42.3891
3354.96 64.9772
3354.97 86.2100
3354.97 112.738
3354.98 162.335
3354.99 239.777
3354.99 382.400
3355.00 473.745
3355.01 382.631
3355.01 238.423
3355.02 162.612
3355.03 119.663
3355.03 86.4316
3355.04 68.1267
3355.05 44.0463
3355.06 32.1317
3355.07 24.2582
3355.08 19.6667
3355.10 14.0245
3355.12 10.9111
3355.14 9.16515
3355.18 7.27718
3355.27 5.78440
3355.35 5.22560
3355.52 4.80726
3355.69 4.65415
3356.37 4.49541
3357.73 4.43898
3360.45 4.39422
3365.89 4.32179
3376.76 4.17811
3398.50 3.87095
3420.24 3.51282
3431.11 3.29657
3436.55 3.17308
3439.27 3.10934
3440.63 3.09069
3441.31 3.14006
3441.48 3.20446
3441.65 3.39164
3441.73 3.64780
3441.82 4.33971
3441.86 5.25041
3441.90 7.49171
3441.92 10.1361
3441.94 15.9904
3441.95 22.3448
3441.96 32.9584
3441.97 43.7624
3441.98 57.3837
3441.98 77.8487
3441.99 115.805
3441.99 184.239
3442.00 229.139
3442.01 184.365
3442.01 115.962
3442.02 77.9959
3442.03 57.5171
3442.03 43.8819
3442.04 34.5601
3442.05 23.2236
3442.06 16.9650
3442.08 10.5552
3442.10 7.80929
3442.14 5.40512
3442.18 4.45962
3442.26 3.69843
3442.34 3.41519
3442.50 3.19862
3442.67 3.11734
3443.32 3.02183
3444.62 2.96369
3447.22 2.87777
3449.82 2.78883
3452.42 2.69174
3457.63 2.46240
3462.83 2.16163
3465.44 1.96935
3468.04 1.73576
3470.64 1.44475
3473.24 1.07509
3474.55 0.854275
3475.85 0.611480
3477.15 0.363415
3478.45 0.176645
3479.10 0.169300
3479.75 0.310260
3480.08 0.484549
3480.40 0.773937
3480.73 1.23982
3481.05 1.98256
3481.38 3.17895
3481.70 5.13383
3482.03 8.45070
3482.35 14.3864
3482.51 19.1448
3482.68 25.9183
3482.84 35.8577
3483.00 50.8741
3483.17 74.8768
3483.33 114.739
3483.49 185.357
3483.65 312.123
3483.83 535.719
3484.00 716.683
3484.17 612.291
3484.35 407.856
3484.47 299.536
3484.60 225.392
3484.72 174.900
3484.85 139.985
3485.10 96.1161
3485.35 71.1917
3485.60 55.5936
3485.85 45.2302
3486.34 32.5886
3486.84 25.3595
3487.34 20.7942
3487.84 17.6807
3488.34 15.4491
3489.34 12.4814
3490.33 10.6224
3491.33 9.35680
3492.33 8.44310
3494.32 7.21517
3496.32 6.42934
3498.31 5.88185
3500.30 5.47691
3504.29 4.91270
3508.28 4.53189
3516.26 4.03233
3524.24 3.69973
3532.21 3.44697
3548.17 3.05516
3580.08 2.44064
3596.03 2.15763
3604.01 2.01528
3608.00 1.94404
3609.99 1.91330
3610.99 1.91961
3611.49 2.00840
3611.61 2.10553
3611.74 2.37385
3611.80 2.73883
3611.86 3.68769
3611.89 4.87725
3611.92 7.74498
3611.94 11.1256
3611.96 17.7208
3611.96 24.4030
3611.97 35.9659
3611.98 57.6328
3611.99 95.1564
3611.99 149.548
3612.00 187.881
3612.01 149.639
3612.01 94.5924
3612.02 54.1686
3612.03 34.2018
3612.04 23.4381
3612.05 17.1546
3612.06 10.6103
3612.08 7.49175
3612.11 4.74129
3612.14 3.60379
3612.21 2.68844
3612.27 2.34597
3612.40 2.08360
3612.53 1.98676
3613.04 1.88188
3614.07 1.83729
3616.13 1.79087
3620.24 1.70630
3624.36 1.61703
3628.47 1.51746
3632.59 1.39762
3634.65 1.32310
3636.70 1.23026
3638.76 1.10363
3639.79 1.01762
3640.82 0.905770
3641.85 0.753116
3642.88 0.547022
3643.39 0.453864
3643.65 0.453090
3643.91 0.565148
3644.16 1.02644
3644.29 1.61964
3644.42 2.82149
3644.49 3.90241
3644.55 5.55044
3644.61 8.21472
3644.68 12.7970
3644.71 16.5028
3644.74 21.5680
3644.77 28.9069
3644.81 39.9615
3644.84 57.4083
3644.87 86.4816
3644.90 137.732
3644.93 230.732
3644.97 386.286
3645.00 504.960
3645.03 422.219
3645.07 275.650
3645.10 181.660
3645.13 126.875
3645.16 92.2056
3645.19 70.7085
3645.25 45.5980
3645.31 32.5632
3645.37 24.7098
3645.43 19.7409
3645.55 13.8402
3645.67 10.5916
3645.79 8.58607
3645.91 7.24604
3646.04 6.29738
3646.28 5.05821
3646.52 4.29428
3646.76 3.78094
3647.00 3.41419
3647.49 2.92733
3647.97 2.61965
3648.46 2.40753
3648.94 2.25202
3649.91 2.03777
3650.88 1.89511
3652.81 1.71125
3654.75 1.59174
3656.68 1.50314
3660.56 1.37065
3668.30 1.17796
3676.05 1.02088
3707.03 0.497368
3722.52 0.279117
3738.01 0.107423
3745.75 0.0493315
3749.62 0.0300700
3753.50 0.0188714
3757.37 0.0171987
3761.24 0.0269103
3765.11 0.0509432
3767.05 0.0726491
3768.02 0.100462
3768.50 0.174563
3768.74 0.435271
3768.81 0.689133
3768.87 1.34125
3768.90 2.18946
3768.93 4.18064
3768.94 6.41751
3768.96 11.0553
3768.96 15.8301
3768.97 22.8823
3768.98 37.6820
3768.99 66.3717
3768.99 103.364
3769.00 132.226
3769.01 103.422
3769.01 65.9436
3769.02 43.3570
3769.02 30.9856
3769.03 17.5350
3769.05 10.6505
3769.06 7.35387
3769.08 3.99970
3769.10 2.52004
3769.14 1.28728
3769.18 0.800768
3769.35 0.287423
3769.68 0.149106
3770.35 0.120583
3771.69 0.131202
3774.36 0.177909
3779.70 0.315965
3785.05 0.526489
3790.39 0.846119
3795.73 1.35397
3798.41 1.73592
3801.08 2.28085
3803.75 3.15251
3805.09 3.84218
3806.42 4.89096
3807.76 6.71673
3808.43 8.26282
3809.09 10.7281
3809.76 15.1949
3810.10 19.0424
3810.43 25.1676
3810.76 36.0035
3810.93 44.9627
3811.10 58.4741
3811.27 80.2962
3811.43 118.817
3811.52 150.122
3811.60 194.695
3811.68 261.172
3811.77 357.518
3811.88 543.649
3812.00 645.169
3812.12 488.209
3812.24 289.159
3812.33 184.194
3812.43 121.423
3812.53 83.3590
3812.62 59.5565
3812.72 43.7173
3812.82 32.9128
3813.01 19.8327
3813.20 12.6262
3813.40 8.38927
3813.59 5.73875
3813.78 4.01115
3813.98 2.84528
3814.17 2.04917
3814.36 1.49146
3814.56 1.10152
3814.94 0.633563
3815.33 0.413504
3815.72 0.328795
3816.10 0.322349
3816.88 0.430432
3818.42 0.822332
3821.52 1.71530
3824.61 2.62606
3830.80 4.68782
3833.89 5.94956
3835.44 6.67748
3836.21 7.12845
3836.41 7.30067
3836.60 7.60591
3836.70 7.93745
3836.79 8.73842
3836.84 9.76378
3836.89 12.2894
3836.91 15.3046
3836.94 22.1256
3836.95 29.2699
3836.96 42.8163
3836.97 54.4701
3836.97 72.2450
3836.98 100.303
3836.99 144.923
3836.99 233.322
3837.00 282.601
3837.01 221.739
3837.02 145.111
3837.02 100.488
3837.03 76.2377
3837.03 57.0872
3837.04 46.3551
3837.05 31.9902
3837.06 24.2132
3837.08 16.6322
3837.10 13.3386
3837.15 10.4039
3837.19 9.27093
3837.28 8.40089
3837.36 8.10587
3837.54 7.94085
3837.71 7.94148
3838.40 8.23518
3839.79 9.03550
3842.57 10.9132
3848.11 15.9236
3853.66 23.4706
3859.21 35.3686
3864.76 55.2199
3870.31 90.7085
3875.86 159.399
3878.64 217.204
3881.41 299.785
3886.21 508.424
3891.00 669.940
3895.80 562.485
3900.59 367.601
3903.55 277.967
3906.52 213.548
3912.44 134.428
3918.36 91.4284
3924.29 65.9396
3930.21 49.6216
3936.14 38.5046
3942.06 30.5342
3945.02 27.3537
3946.50 25.9256
3947.25 25.2691
3947.62 25.0392
3947.80 25.2514
3947.85 25.5736
3947.89 26.4387
3947.92 27.5014
3947.94 29.9243
3947.95 32.6113
3947.96 37.2647
3947.97 48.3546
3947.98 59.2634
3947.99 76.3319
3947.99 107.873
3948.00 128.142
3948.01 107.910
3948.01 76.3690
3948.02 59.2869
3948.03 48.3612
3948.04 37.2387
3948.05 32.2633
3948.06 29.8446
3948.09 27.3079
3948.11 26.2336
3948.16 25.2921
3948.20 24.8971
3948.39 24.3614
3948.76 23.9370
3949.51 23.2831
3951.01 22.0794
3954.01 19.8876
3960.00 16.1744
3965.99 13.1372
3968.99 11.8140
3970.49 11.1974
3971.24 10.9134
3971.61 10.8316
3971.80 11.0048
3971.89 11.8205
3971.92 12.5917
3971.94 14.3382
3971.96 19.9131
3971.98 28.9766
3971.98 38.4740
3971.99 52.1063
3971.99 78.6782
3972.00 93.6572
3972.01 78.7083
3972.01 52.1415
3972.02 36.5351
3972.03 26.8034
3972.04 18.6665
3972.05 15.1583
3972.07 13.5845
3972.09 12.1049
3972.12 11.4832
3972.23 10.7683
3972.44 10.4903
3972.87 10.2736
3973.73 9.93626
3975.45 9.30651
3978.88 8.13097
3985.76 6.05111
3999.50 2.77975
4006.37 1.57326
4009.81 1.09947
4013.24 0.733362
4016.68 0.500462
4018.40 0.445134
4020.11 0.438393
4021.83 0.487807
4023.55 0.603334
4025.27 0.805379
4026.13 0.987746
4026.56 1.27823
4026.66 1.51803
4026.77 2.13241
4026.83 2.93102
4026.88 4.92690
4026.91 7.39942
4026.93 13.1832
4026.95 19.7931
4026.96 31.9538
4026.97 43.7132
4026.97 59.4550
4026.98 89.5570
4026.99 132.070
4026.99 216.296
4027.00 263.248
4027.01 205.257
4027.02 132.243
4027.02 95.5347
4027.03 70.5449
4027.03 43.8497
4027.04 29.5688
4027.05 21.2603
4027.07 12.6237
4027.09 8.51277
4027.13 4.83130
4027.16 3.36837
4027.23 2.19467
4027.31 1.76207
4027.45 1.45010
4027.60 1.35523
4028.18 1.35874
4029.34 1.62443
4031.66 2.39897
4033.99 3.48539
4036.31 4.96388
4040.96 9.61075
4045.60 17.9247
4050.25 33.0874
4052.57 45.1249
4054.90 61.9172
4057.22 85.7089
4059.54 119.858
4061.87 169.336
4064.19 240.703
4068.60 451.059
4073.00 650.038
4077.41 591.873
4081.81 416.701
4085.76 297.050
4089.71 219.524
4093.66 169.275
4097.60 135.493
4105.50 94.5261
4113.40 71.4137
4121.29 56.8718
4129.19 46.9565
4137.09 39.7655
4141.04 36.8581
4142.02 36.1899
4143.01 35.5484
4144.00 34.9701
4144.49 34.8727
4144.62 35.0102
4144.74 35.5153
4144.80 36.2502
4144.86 38.1806
4144.89 40.6258
4144.92 46.4583
4144.94 53.2132
4144.95 66.0571
4144.96 78.6790
4144.97 96.4233
4144.98 130.993
4144.98 186.279
4144.99 275.241
4145.00 337.511
4145.01 275.400
4145.02 185.506
4145.02 131.160
4145.03 99.8621
4145.04 80.8443
4145.04 68.7548
4145.06 54.4622
4145.07 47.7607
4145.10 41.3055
4145.13 38.5402
4145.19 36.2678
4145.25 35.3651
4145.36 34.6322
4145.48 34.3195
4145.94 33.7949
4146.87 33.1849
4148.71 32.1199
4152.41 30.1668
4159.81 26.7531
4174.61 21.2542
4189.40 16.7563
4204.20 12.6410
4218.99 8.40917
4226.39 6.10620
4233.79 3.66055
4241.19 1.33363
4243.04 0.890084
4244.89 0.587326
4245.81 0.514653
4246.74 0.514323
4247.66 0.606509
4248.59 0.816998
4249.51 1.18022
4250.44 1.74073
4251.36 2.55785
4252.28 3.70968
4253.21 5.30653
4254.13 7.49555
4255.06 10.4831
4255.98 14.5554
4256.91 20.1393
4257.83 27.8406
4258.76 38.5627
4259.68 53.6436
4260.61 75.1721
4261.53 106.206
4262.46 151.376
4263.38 216.660
4265.19 419.661
4267.00 623.906
4267.91 636.896
4268.81 585.290
4270.62 423.755
4271.76 338.953
4272.89 275.040
4275.17 192.481
4277.44 145.054
4279.71 115.648
4281.98 96.0949
4284.26 82.3516
4288.80 64.5562
4293.35 53.6584
4297.89 46.3442
4302.44 41.0996
4304.71 39.0040
4305.85 38.0938
4306.42 37.8074
4306.56 37.8652
4306.70 38.2191
4306.77 38.7801
4306.84 40.3404
4306.88 42.3773
4306.91 47.1833
4306.93 52.7711
4306.95 64.5641
4306.96 75.9237
4306.97 95.3927
4306.98 131.332
4306.98 190.244
4306.99 282.187
4307.00 343.553
4307.01 282.349
4307.02 190.437
4307.02 143.222
4307.03 112.629
4307.03 92.7432
4307.04 79.4399
4307.05 63.6533
4307.06 55.7011
4307.09 47.1279
4307.11 43.4267
4307.16 40.1832
4307.20 38.8664
4307.30 37.7977
4307.39 37.3567
4307.58 36.9356
4307.77 36.6963
4308.52 36.0555
4310.02 35.0103
4313.02 33.1747
4319.01 30.1616
4331.01 25.7966
4343.01 22.6814
4355.00 20.2227
4367.00 18.0853
4378.99 15.9986
4384.99 14.8669
4390.99 13.5783
4396.99 11.9885
4399.99 11.0001
4401.49 10.4415
4402.24 10.1759
4402.61 10.1785
4402.71 10.3009
4402.80 10.6967
4402.85 11.2502
4402.89 12.7031
4402.92 14.5431
4402.94 18.6306
4402.95 23.2034
4402.96 31.2127
4402.97 38.7684
4402.98 50.6336
4402.98 70.0046
4402.99 95.3686
4402.99 146.764
4403.00 181.071
4403.01 146.866
4403.01 95.4920
4403.02 59.2109
4403.03 40.4593
4403.04 30.2874
4403.05 24.3278
4403.06 18.1014
4403.08 15.1247
4403.11 12.4882
4403.14 11.4125
4403.21 10.5025
4403.27 10.1427
4403.52 9.68041
4404.03 9.34646
4405.04 8.80985
4407.07 7.63122
4409.10 6.20561
4411.12 4.45920
4413.15 2.39976
4414.17 1.39014
4414.67 0.986161
4415.18 0.748085
4415.43 0.733501
4415.69 0.824059
4415.94 1.05977
4416.19 1.49315
4416.45 2.20474
4416.70 3.29870
4416.95 4.93655
4417.21 7.35454
4417.46 10.9276
4417.71 16.1854
4417.97 24.0630
4418.22 35.9531
4418.47 54.4043
4418.73 83.4384
4418.98 130.134
4419.23 205.353
4419.62 395.270
4420.00 585.506
4420.19 596.895
4420.39 547.838
4420.77 396.203
4421.10 292.337
4421.43 223.025
4421.76 176.851
4422.10 145.334
4422.76 106.394
4423.42 84.1242
4424.08 70.0561
4424.75 60.4951
4426.07 48.4899
4427.40 41.3407
4428.73 36.6278
4430.05 33.2948
4431.38 30.8133
4434.03 27.3582
4436.68 25.0539
4439.33 23.3964
4440.66 22.7397
4441.32 22.4946
4441.65 22.5791
4441.74 22.7704
4441.82 23.3404
4441.86 24.1108
4441.90 26.0035
4441.92 28.2826
4441.94 32.9699
4441.95 38.1432
4441.96 46.6042
4441.97 62.8937
4441.98 76.6460
4441.98 96.3571
4441.99 140.930
4442.00 170.675
4442.01 140.997
4442.02 96.4363
4442.02 76.7176
4442.03 62.9546
4442.04 46.6427
4442.05 38.1620
4442.06 33.3324
4442.08 28.4113
4442.10 26.1928
4442.13 24.1628
4442.17 23.3159
4442.25 22.6224
4442.33 22.3382
4442.64 21.9519
4443.27 21.6389
4444.52 21.1692
4447.02 20.3769
4452.01 19.1294
4462.01 17.3876
4472.01 16.1567
4482.00 15.1862
4502.00 13.6353
4511.99 12.9617
4516.99 12.6384
4519.49 12.4801
4520.74 12.4061
4521.36 12.3879
4521.68 12.4507
4521.83 12.7420
4521.91 13.7331
4521.95 16.4783
4521.97 22.3665
4521.98 30.7496
4521.99 48.7746
4521.99 72.1182
4522.00 85.2826
4522.01 72.1591
4522.01 48.8271
4522.02 29.5948
4522.03 21.8772
4522.05 16.2095
4522.10 13.5947
4522.18 12.6788
4522.35 12.3978
4522.68 12.3026
4523.36 12.2407
4524.70 12.1510
4527.38 11.9809
4532.76 11.6438
4543.50 10.9641
4554.24 10.2593
4559.62 9.89040
4562.30 9.70095
4563.65 9.60719
4564.32 9.57022
4564.65 9.59150
4564.82 9.74883
4564.90 10.3182
4564.95 11.9750
4564.97 15.5981
4564.98 20.5774
4564.99 33.7328
4564.99 48.9158
4565.00 57.9773
4565.01 48.9440
4565.01 33.7491
4565.02 24.2039
4565.03 18.6474
4565.04 14.0447
4565.07 11.2422
4565.12 10.0400
4565.22 9.64283
4565.43 9.51421
4565.86 9.45259
4566.70 9.38202
4568.39 9.25316
4571.76 8.99236
4578.51 8.43987
4592.00 7.16060
4605.49 5.51836
4612.24 4.49018
4615.61 3.91252
4617.29 3.62305
4618.14 3.54485
4618.56 3.77679
4618.67 4.06725
4618.77 4.86888
4618.82 5.92151
4618.88 8.49013
4618.90 11.6272
4618.93 18.2611
4618.94 24.8753
4618.95 36.6979
4618.97 60.0844
4618.97 82.3171
4618.98 113.083
4618.99 177.226
4619.00 223.058
4619.01 177.357
4619.02 113.241
4619.03 78.6848
4619.04 55.3954
4619.05 32.3317
4619.07 20.9471
4619.08 15.3315
4619.11 9.74205
4619.14 7.27609
4619.21 5.21589
4619.27 4.40438
4619.39 3.75244
4619.51 3.49362
4620.01 3.15693
4620.99 2.89483
4622.96 2.46840
4626.90 1.61050
4630.84 0.776562
4632.82 0.426851
4633.80 0.290572
4634.79 0.194375
4635.77 0.154068
4636.76 0.191550
4637.74 0.337355
4638.73 0.634135
4639.71 1.14415
4640.70 1.95616
4641.68 3.20407
4642.67 5.09108
4643.65 7.93816
4644.64 12.2511
4645.62 18.8837
4646.61 29.3077
4647.60 46.1916
4648.58 74.4354
4649.57 123.341
4650.55 209.100
4651.78 390.269
4653.00 562.341
4654.23 513.507
4655.45 363.131
4656.55 260.210
4657.64 193.462
4658.74 150.134
4659.84 121.014
4662.03 85.6829
4664.22 65.7492
4666.41 53.1803
4668.61 44.5698
4672.99 33.3308
4677.38 25.6980
4679.57 22.3230
4681.76 18.8318
4683.96 14.7813
4685.05 12.3299
4686.15 9.42077
4687.24 5.94600
4687.79 4.07827
4688.34 2.42814
4688.61 1.92827
4688.89 1.96046
4689.03 2.32387
4689.16 3.04974
4689.30 4.29183
4689.44 6.27653
4689.57 9.34326
4689.71 14.0110
4689.85 21.0899
4689.98 31.8718
4690.12 48.4530
4690.26 74.2655
4690.40 114.837
4690.53 178.366
4690.77 361.315
4691.00 558.624
4691.12 580.386
4691.24 541.924
4691.47 404.202
4691.70 295.841
4691.92 225.155
4692.15 179.349
4692.37 148.620
4692.82 111.067
4693.27 89.7031
4693.73 76.1541
4694.18 66.9168
4695.08 55.1849
4695.98 48.0629
4696.88 43.2830
4698.69 37.2189
4700.49 33.4803
4702.30 30.9015
4705.91 27.4924
4709.52 25.2699
4713.13 23.6623
4720.35 21.4229
4727.57 19.8873
4734.79 18.7407
4749.23 17.1003
4763.67 15.9510
4778.11 15.0803
4792.55 14.3856
4799.77 14.0857
4803.38 13.9459
4805.18 13.8804
4806.09 13.8569
4806.54 13.8790
4806.76 14.0164
4806.88 14.5265
4806.93 16.0954
4806.96 19.9064
4806.97 26.4053
4806.98 33.7542
4806.99 48.1280
4806.99 70.0821
4807.00 82.4474
4807.01 70.0833
4807.01 48.1292
4807.02 33.7547
4807.03 25.6740
4807.04 19.3958
4807.07 15.8549
4807.13 14.4351
4807.25 13.9746
4807.50 13.8375
4807.98 13.7860
4808.95 13.7424
4810.88 13.6716
4814.75 13.5380
4822.50 13.2872
4830.24 13.0566
4834.11 12.9584
4836.04 12.9568
4836.53 12.9981
4837.01 13.1395
4837.25 13.3459
4837.49 13.9294
4837.62 14.7176
4837.74 16.8254
4837.80 19.5569
4837.83 22.0533
4837.86 26.2304
4837.89 33.9858
4837.90 40.6054
4837.92 50.7879
4837.93 67.4974
4837.95 97.2622
4837.96 155.746
4837.97 210.205
4837.98 279.480
4837.99 447.035
4838.00 546.555
4838.01 432.524
4838.02 279.898
4838.03 187.524
4838.04 131.734
4838.05 97.5666
4838.06 75.7356
4838.08 51.0001
4838.10 38.2691
4838.12 30.9379
4838.14 26.3546
4838.18 21.2710
4838.26 16.9765
4838.34 15.2845
4838.50 13.9761
4838.66 13.4864
4838.97 13.1158
4839.29 12.9766
4840.55 12.8123
4843.09 12.7111
4848.15 12.5717
4853.21 12.4444
4858.27 12.3227
4878.52 11.8753
4919.01 11.1140
4959.51 10.4644
5000.00 9.87666
5020.49 9.59169
5030.73 9.45187
5035.85 9.38843
5038.41 9.38303
5039.69 9.48482
5040.01 9.60194
5040.33 9.93397
5040.49 10.3827
5040.65 11.5812
5040.73 13.1132
5040.81 16.9105
5040.85 21.3407
5040.89 30.9896
5040.91 40.6429
5040.93 57.9584
5040.95 92.3473
5040.96 122.274
5040.97 166.252
5040.99 260.531
5041.00 323.475
5041.02 260.746
5041.03 166.522
5041.04 109.130
5041.06 77.5650
5041.07 58.1531
5041.08 45.6932
5041.11 31.1245
5041.14 23.9405
5041.16 19.6473
5041.19 17.0683
5041.24 14.1319
5041.35 11.6575
5041.45 10.6979
5041.66 9.95333
5041.87 9.67613
5042.29 9.46551
5042.72 9.38549
5044.40 9.28826
5047.77 9.22226
5054.50 9.12413
5061.24 9.03318
5064.61 9.00405
5066.29 9.05595
5066.71 9.12833
5067.13 9.34293
5067.34 9.64244
5067.55 10.4642
5067.66 11.5670
5067.77 14.4316
5067.82 18.0517
5067.84 21.2777
5067.87 26.5426
5067.90 36.4630
5067.91 44.4299
5067.92 56.2773
5067.94 74.8358
5067.95 105.777
5067.96 160.991
5067.98 272.331
5067.99 431.430
5068.00 535.123
5068.01 431.802
5068.02 271.715
5068.03 186.570
5068.04 136.099
5068.05 100.195
5068.06 78.9058
5068.08 52.3421
5068.10 38.2625
5068.12 30.0020
5068.14 24.7718
5068.18 18.9073
5068.25 13.8788
5068.33 11.8761
5068.48 10.3118
5068.63 9.73025
5068.93 9.29149
5069.23 9.12983
5070.43 8.95507
5072.84 8.87927
5077.65 8.79922
5087.27 8.65627
5096.89 8.51253
5106.51 8.36509
5145.00 7.71267
5183.49 6.86708
5202.74 6.29579
5212.36 5.94517
5217.17 5.74918
5219.57 5.65335
5220.78 5.64032
5221.38 5.77694
5221.68 6.37910
5221.75 6.96489
5221.83 8.47655
5221.87 10.3609
5221.90 14.6222
5221.92 19.3421
5221.94 28.7272
5221.95 37.7710
5221.96 50.7983
5221.97 72.1253
5221.98 110.195
5221.99 174.728
5222.00 215.110
5222.01 174.922
5222.02 110.441
5222.03 75.4756
5222.04 54.8563
5222.05 32.0075
5222.07 21.7184
5222.09 16.6039
5222.12 11.5068
5222.15 9.24996
5222.22 7.34503
5222.29 6.60387
5222.42 6.02117
5222.55 5.80008
5223.08 5.55626
5224.15 5.44608
5226.28 5.32310
5230.53 5.08822
5239.04 4.54948
5247.55 3.87497
5256.06 3.00306
5260.31 2.46786
5264.56 1.85496
5268.82 1.17081
5273.07 0.482350
5275.20 0.210570
5276.27 0.125686
5277.33 0.100098
5278.39 0.164768
5279.46 0.366954
5279.99 0.541486
5280.52 0.781218
5281.05 1.10257
5281.58 1.52575
5282.65 2.79945
5283.71 4.93972
5284.77 8.56440
5285.84 14.8357
5286.90 26.1487
5287.43 35.1320
5287.96 47.6994
5288.50 65.6664
5289.03 91.7568
5289.56 130.103
5290.09 186.176
5291.05 343.239
5292.00 489.628
5292.96 442.985
5293.91 310.818
5294.92 209.180
5295.93 148.832
5296.94 112.384
5297.95 89.0969
5298.96 73.3721
5299.96 62.2469
5300.47 57.8672
5300.97 54.1265
5301.23 52.4998
5301.48 51.1415
5301.60 50.7113
5301.73 50.8743
5301.79 51.6882
5301.86 54.3267
5301.89 57.8472
5301.92 65.8643
5301.93 74.7213
5301.95 92.0367
5301.96 107.354
5301.97 131.318
5301.97 170.305
5301.98 227.322
5301.99 338.925
5302.00 406.112
5302.01 339.056
5302.02 226.458
5302.03 176.714
5302.03 143.639
5302.04 104.811
5302.06 84.7845
5302.07 73.4199
5302.09 61.8390
5302.12 56.3852
5302.16 51.4584
5302.21 49.3600
5302.31 47.3918
5302.41 46.3622
5302.60 45.0099
5302.79 43.9705
5303.18 42.1907
5303.57 40.6214
5304.34 37.8754
5305.11 35.5318
5308.20 28.7951
5311.30 24.5597
5314.39 21.6706
5320.57 17.9980
5326.76 15.7624
5332.94 14.2510
5339.13 13.1514
5351.50 11.6275
5363.87 10.5760
5376.24 9.75476
5382.42 9.38982
5388.61 9.04065
5394.79 8.70106
5397.88 8.55084
5399.43 8.55973
5399.82 8.63779
5400.20 8.89637
5400.40 9.27011
5400.59 10.3040
5400.69 11.6812
5400.78 15.2072
5400.83 19.6495
5400.85 23.5653
5400.88 29.8873
5400.90 41.0120
5400.93 63.0808
5400.94 82.9973
5400.95 114.905
5400.96 168.725
5400.97 266.763
5400.99 418.807
5401.00 525.801
5401.01 419.299
5401.03 267.371
5401.04 158.143
5401.05 102.924
5401.07 72.3348
5401.08 54.1394
5401.10 41.9368
5401.11 34.4101
5401.14 25.2917
5401.17 20.0775
5401.20 17.0233
5401.25 13.5938
5401.37 10.8508
5401.48 9.80456
5401.71 8.99706
5401.93 8.69170
5402.39 8.44871
5402.84 8.34416
5404.66 8.15879
5408.30 7.91673
5411.93 7.67948
5415.57 7.42885
5422.84 6.85868
5430.11 6.13535
5437.38 5.12456
5441.01 4.42902
5444.65 3.52409
5446.47 2.96305
5448.28 2.31233
5450.10 1.56955
5451.92 0.782212
5452.83 0.432773
5453.74 0.211412
5454.19 0.202012
5454.65 0.312432
5455.10 0.610332
5455.55 1.20531
5455.78 1.66948
5456.01 2.28334
5456.46 4.15740
5456.92 7.41432
5457.37 13.1468
5457.83 23.6563
5458.05 32.0600
5458.28 43.9082
5458.51 60.9115
5458.74 85.7334
5458.96 122.410
5459.19 176.455
5459.60 328.074
5460.00 471.020
5460.41 429.071
5460.81 303.165
5461.15 222.654
5461.48 168.782
5461.82 132.745
5462.15 108.087
5462.82 77.6153
5463.49 60.2612
5464.16 49.3343
5464.82 41.9523
5466.16 32.7694
5467.50 27.3621
5468.84 23.8407
5470.17 21.3769
5471.51 19.5616
5474.19 17.0696
5476.86 15.4405
5479.53 14.2886
5482.21 13.4282
5487.56 12.2172
5492.91 11.3932
5503.61 10.3064
5514.30 9.58014
5525.00 9.02422
5546.40 8.13457
5567.80 7.32538
5589.19 6.43096
5599.89 5.89358
5610.59 5.24688
5621.29 4.42694
5626.64 3.92131
5629.31 3.63831
5630.65 3.49414
5631.32 3.44521
5631.65 3.51901
5631.82 3.91448
5631.90 5.29978
5631.92 6.49967
5631.95 9.22255
5631.97 17.4720
5631.98 28.3099
5631.99 55.3413
5631.99 85.3573
5632.00 107.473
5632.01 85.4528
5632.01 55.4571
5632.02 31.8649
5632.03 19.9678
5632.05 10.9849
5632.08 6.08291
5632.15 4.15467
5632.29 3.52609
5632.56 3.32054
5633.11 3.20648
5634.20 3.05507
5636.38 2.75851
5640.76 2.10627
5645.13 1.37169
5649.50 0.609996
5651.68 0.286003
5652.78 0.168622
5653.87 0.104654
5654.96 0.123092
5656.05 0.268715
5656.60 0.409874
5657.15 0.611556
5657.69 0.889443
5658.24 1.26342
5659.33 2.41202
5660.43 4.37813
5661.52 7.73998
5662.61 13.5888
5663.70 24.1544
5664.25 32.5237
5664.80 44.2253
5665.34 60.8956
5665.89 84.9309
5666.43 120.010
5666.98 171.028
5667.99 318.257
5669.00 457.716
5670.01 417.339
5671.02 294.895
5671.93 210.717
5672.85 156.435
5673.76 121.435
5674.67 98.0076
5676.50 69.7866
5678.32 54.0339
5680.15 44.2429
5681.97 37.6768
5685.63 29.5425
5689.28 24.7699
5692.93 21.6590
5696.58 19.4788
5700.23 17.8678
5707.53 15.6437
5714.83 14.1728
5722.14 13.1168
5729.44 12.3102
5744.04 11.1151
5758.65 10.1686
5765.95 9.68167
5769.60 9.39909
5773.25 9.05519
5776.90 8.58407
5778.73 8.25381
5780.55 7.80198
5781.47 7.50084
5782.38 7.12042
5783.29 6.62068
5784.20 5.93157
5784.66 5.47672
5785.12 4.91673
5785.57 4.21151
5786.03 3.31750
5786.49 2.21122
5786.94 1.21587
5787.17 1.48332
5787.29 2.37717
5787.40 4.53642
5787.46 6.51032
5787.51 9.51460
5787.57 14.1473
5787.63 21.4395
5787.68 33.2384
5787.74 52.9651
5787.80 87.0220
5787.86 147.199
5787.93 277.053
5788.00 401.758
5788.04 406.306
5788.07 370.509
5788.14 264.262
5788.22 185.889
5788.29 136.546
5788.36 105.600
5788.43 85.5249
5788.50 71.4680
5788.57 61.3717
5788.71 48.1575
5788.85 39.9435
5788.99 34.4900
5789.28 27.7233
5789.56 23.7595
5789.84 21.1792
5790.13 19.3744
5790.41 18.0487
5790.97 16.2231
5791.54 15.0316
5792.11 14.1927
5792.67 13.5704
5793.80 12.7032
5794.93 12.1258
5796.07 11.7099
5797.20 11.3941
5799.46 10.9396
5801.72 10.6217
5806.25 10.1893
5810.77 9.89268
5815.30 9.66503
5824.35 9.31634
5842.46 8.80912
5860.56 8.40783
5896.77 7.71542
5914.87 7.38178
5923.92 7.21358
5928.45 7.13678
5930.71 7.13458
5931.84 7.27879
5932.13 7.44263
5932.41 7.90678
5932.55 8.53829
5932.69 10.2188
5932.76 12.3926
5932.83 17.7177
5932.87 24.1677
5932.90 37.9934
5932.92 52.4148
5932.94 76.9803
5932.95 98.2115
5932.96 129.436
5932.97 176.442
5932.97 242.383
5932.99 380.775
5933.00 478.094
5933.01 381.061
5933.03 242.737
5933.03 183.316
5933.04 138.582
5933.06 88.0655
5933.07 60.9659
5933.09 45.1976
5933.12 28.8212
5933.15 21.0367
5933.21 14.1158
5933.27 11.3214
5933.39 9.07677
5933.51 8.22231
5933.75 7.57498
5933.99 7.33523
5934.96 7.08086
5936.90 6.98048
5940.77 6.88605
5948.50 6.72061
5956.24 6.55145
5960.11 6.46678
5962.05 6.43788
5963.02 6.48324
5963.50 6.74329
5963.62 7.01389
5963.74 7.75580
5963.80 8.74218
5963.86 11.2356
5963.89 14.2534
5963.92 21.1630
5963.94 28.4857
5963.95 42.5553
5963.96 55.8384
5963.97 73.7796
5963.98 106.826
5963.98 153.603
5963.99 242.177
5964.00 301.423
5964.01 242.647
5964.02 154.190
5964.03 107.384
5964.03 81.0204
5964.04 48.8763
5964.06 33.2948
5964.07 25.3138
5964.10 16.7028
5964.12 12.9482
5964.17 9.66283
5964.22 8.34136
5964.32 7.30493
5964.43 6.91527
5964.83 6.50348
5965.64 6.37473
5967.27 6.30567
5970.52 6.21686
5977.01 6.04594
5990.01 5.67177
6003.01 5.23282
6016.00 4.69954
6029.00 4.02607
6041.99 3.13851
6048.49 2.58103
6054.99 1.92829
6061.49 1.18138
6064.74 0.790782
6066.36 0.605144
6067.17 0.535116
6067.58 0.576043
6067.78 0.873699
6067.89 1.97205
6067.94 5.27761
6067.96 12.6142
6067.97 24.5548
6067.98 35.8841
6067.99 55.7030
6067.99 88.2895
6068.00 111.143
6068.01 88.4152
6068.01 55.8574
6068.02 27.8455
6068.04 15.2718
6068.06 6.53663
6068.08 3.69182
6068.10 2.44315
6068.19 0.998882
6068.36 0.545921
6068.71 0.390109
6069.41 0.291765
6070.80 0.171381
6072.19 0.0967959
6073.59 0.0822656
6074.98 0.157057
6076.37 0.366592
6077.07 0.542762
6077.76 0.781587
6079.16 1.51471
6080.55 2.75091
6081.94 4.80496
6083.34 8.23632
6084.73 14.0914
6086.12 24.4470
6087.52 43.6978
6088.21 59.3733
6088.91 81.6342
6089.60 113.567
6090.30 159.173
6091.65 295.977
6093.00 425.412
6094.35 387.806
6095.70 274.015
6096.87 198.605
6098.03 149.002
6099.20 116.455
6100.36 94.3887
6102.69 67.4749
6105.02 52.2947
6107.35 42.8060
6109.68 36.4207
6114.34 28.4932
6119.00 23.8355
6123.66 20.8014
6128.33 18.6777
6130.66 17.8419
6131.82 17.4754
6132.40 17.3357
6132.69 17.3985
6132.84 17.8949
6132.91 19.6015
6132.95 23.9497
6132.97 31.8204
6132.98 41.2507
6132.99 60.1027
6132.99 87.7561
6133.00 103.183
6133.01 84.1569
6133.02 60.1864
6133.02 42.8280
6133.03 33.4636
6133.05 25.0766
6133.08 20.1709
6133.14 18.0527
6133.27 17.3101
6133.52 17.0343
6134.02 16.8391
6135.01 16.5565
6137.01 16.0574
6141.01 15.2027
6149.00 13.8918
6156.99 12.9303
6160.99 12.5391
6162.99 12.3627
6163.99 12.2855
6164.49 12.2764
6164.74 12.3808
6164.86 12.8168
6164.92 14.1894
6164.96 17.5681
6164.97 23.7204
6164.98 30.9731
6164.99 42.7315
6164.99 61.0886
6165.00 73.3547
6165.01 61.1553
6165.01 42.8140
6165.03 25.9720
6165.04 19.5252
6165.06 15.2650
6165.11 13.2037
6165.20 12.4727
6165.39 12.2415
6165.76 12.1512
6166.51 12.0758
6168.01 11.9564
6171.01 11.7386
6177.01 11.3513
6189.00 10.7196
6200.99 10.2215
6206.99 10.0085
6209.99 9.90996
6211.49 9.86527
6212.24 9.85521
6212.61 9.89695
6212.80 10.0902
6212.89 10.7767
6212.94 12.8265
6212.96 17.3314
6212.98 24.6106
6212.99 42.4577
6212.99 63.6682
6213.00 75.1735
6213.01 60.5126
6213.01 42.5294
6213.02 29.2589
6213.03 22.9138
6213.04 16.6827
6213.06 12.5788
6213.11 10.7030
6213.21 10.0636
6213.40 9.87114
6213.80 9.80785
6214.58 9.77044
6216.14 9.71998
6219.26 9.62827
6225.51 9.45723
6238.01 9.15145
6263.00 8.64329
6287.99 8.22385
6300.49 8.03569
6306.74 7.94619
6309.86 7.90513
6311.42 7.89641
6312.20 7.93790
6312.59 8.13440
6312.79 8.86763
6312.84 9.56466
6312.89 11.3351
6312.91 13.5266
6312.94 18.3017
6312.95 23.2442
6312.96 32.4826
6312.97 52.1149
6312.98 70.4573
6312.98 102.230
6312.99 156.929
6313.00 196.681
6313.01 156.992
6313.02 102.307
6313.02 66.8651
6313.03 47.6729
6313.05 27.9065
6313.06 19.6878
6313.07 15.8075
6313.10 11.9698
6313.13 10.3942
6313.19 9.08307
6313.25 8.58126
6313.48 8.04609
6313.95 7.89494
6314.89 7.84401
6316.76 7.80832
6320.51 7.75449
6328.00 7.65309
6335.49 7.55630
6339.23 7.51996
6341.10 7.55043
6342.04 7.75945
6342.27 7.98134
6342.51 8.59837
6342.62 9.42209
6342.74 11.5921
6342.80 14.3543
6342.86 20.9214
6342.89 28.6646
6342.92 44.4502
6342.93 60.1864
6342.95 85.1577
6342.96 134.476
6342.97 227.428
6342.99 356.905
6343.00 448.065
6343.01 357.437
6343.03 228.085
6343.03 166.387
6343.04 122.378
6343.05 93.1287
6343.06 73.2304
6343.08 49.2210
6343.10 36.6556
6343.13 23.6622
6343.17 17.7091
6343.24 12.5644
6343.31 10.5244
6343.45 8.90947
6343.59 8.30301
6343.87 7.84211
6344.15 7.67120
6345.27 7.48822
6347.52 7.41395
6352.02 7.34338
6361.02 7.22360
6379.01 6.98832
6397.00 6.74513
6405.99 6.61718
6410.49 6.55160
6412.74 6.52208
6413.86 6.52432
6414.42 6.59461
6414.70 6.89364
6414.85 7.98393
6414.88 8.98057
6414.92 11.4048
6414.93 14.2774
6414.95 19.9932
6414.97 36.0209
6414.98 55.4642
6414.99 88.6307
6414.99 141.523
6415.00 171.066
6415.01 134.738
6415.02 88.9171
6415.02 62.2200
6415.03 47.7060
6415.04 29.8130
6415.05 21.2056
6415.06 16.5419
6415.08 11.9891
6415.10 9.93939
6415.15 8.20474
6415.19 7.51030
6415.37 6.76249
6415.72 6.54863
6416.42 6.48122
6417.83 6.44387
6420.64 6.39451
6426.26 6.29924
6437.50 6.09026
6448.74 5.83700
6454.36 5.68182
6457.18 5.59431
6458.58 5.55251
6459.28 5.55301
6459.63 5.63947
6459.81 5.99836
6459.90 7.21223
6459.94 10.5940
6459.96 17.5474
6459.98 27.0812
6459.99 46.3029
6459.99 72.5599
6460.00 87.2119
6460.01 69.1561
6460.02 46.4017
6460.02 29.9233
6460.03 21.8755
6460.05 13.6931
6460.07 8.73482
6460.13 6.54103
6460.25 5.78753
6460.48 5.55768
6460.94 5.47916
6461.87 5.42597
6463.73 5.34244
6467.45 5.15624
6471.16 4.91957
6474.87 4.59754
6476.73 4.38433
6478.59 4.11676
6480.45 3.76778
6482.30 3.29106
6483.23 2.98006
6484.16 2.60006
6485.09 2.12950
6486.02 1.54761
6486.95 0.871716
6487.41 0.567358
6487.88 0.451885
6487.99 0.495108
6488.11 0.589362
6488.34 1.01606
6488.57 2.00554
6488.69 2.87428
6488.81 4.15006
6488.92 6.03666
6489.04 8.86537
6489.15 13.1951
6489.27 20.0091
6489.39 31.1170
6489.50 49.9952
6489.62 83.4619
6489.73 143.947
6489.87 262.984
6490.00 371.236
6490.13 333.935
6490.27 233.149
6490.38 171.574
6490.48 130.033
6490.59 102.175
6490.70 82.9808
6490.91 59.2334
6491.12 45.7275
6491.34 37.1993
6491.55 31.4503
6491.98 24.3345
6492.41 20.1607
6492.83 17.4625
6493.26 15.5811
6493.69 14.2061
6494.54 12.3323
6495.40 11.1211
6496.25 10.2753
6497.11 9.65126
6498.82 8.79048
6500.53 8.22190
6502.24 7.81523
6503.95 7.50736
6507.37 7.06519
6510.79 6.75459
6517.63 6.32353
6524.47 6.01250
6531.31 5.75530
6538.15 5.52300
6541.57 5.41127
6543.28 5.35681
6544.13 5.33375
6544.56 5.33857
6544.77 5.40279
6544.88 5.65080
6544.93 6.41060
6544.96 8.29320
6544.97 11.3399
6544.99 21.4088
6545.00 37.5626
6545.01 21.4534
6545.02 13.1920
6545.03 9.82637
6545.05 7.28015
6545.09 5.97073
6545.16 5.49613
6545.31 5.34562
6545.60 5.29519
6546.18 5.26519
6547.36 5.22417
6549.70 5.14678
6554.38 4.99087
6563.75 4.66113
6582.50 3.85555
6591.87 3.32093
6601.24 2.63353
6605.92 2.20855
6610.61 1.71475
6615.29 1.14888
6617.64 0.852545
6618.81 0.736144
6619.39 0.807828
6619.69 1.32329
6619.76 1.84181
6619.83 3.18539
6619.87 4.85836
6619.91 8.61811
6619.93 12.9045
6619.94 20.8860
6619.96 38.8481
6619.97 56.6211
6619.98 85.8574
6619.99 139.737
6620.00 171.413
6620.01 134.717
6620.02 86.0873
6620.03 56.8347
6620.04 39.0348
6620.06 21.0244
6620.08 13.0078
6620.09 9.03508
6620.13 5.03364
6620.16 3.33255
6620.23 1.89002
6620.31 1.31730
6620.59 0.685814
6621.15 0.452029
6622.29 0.280718
6623.42 0.166294
6624.55 0.0919467
6625.69 0.0741101
6626.82 0.143381
6627.95 0.349603
6628.52 0.527649
6629.08 0.774063
6629.65 1.10865
6630.22 1.55554
6631.35 2.93641
6632.48 5.36429
6633.62 9.71092
6634.18 13.1212
6634.75 17.8296
6635.32 24.4630
6635.88 33.9557
6636.45 47.8810
6637.01 68.6730
6637.58 100.276
6638.15 148.286
6639.07 272.538
6640.00 387.785
6640.93 350.291
6641.86 245.542
6642.80 167.138
6643.75 119.819
6644.69 90.8449
6645.64 72.1593
6646.59 59.4476
6647.53 50.4166
6649.43 38.6560
6651.32 31.4822
6653.21 26.7286
6657.00 20.9011
6660.78 17.5107
6664.57 15.3102
6668.35 13.7710
6672.14 12.6345
6679.71 11.0647
6687.28 10.0246
6702.41 8.70640
6717.55 7.87495
6732.69 7.27534
6747.83 6.80215
6755.40 6.59857
6759.19 6.51591
6761.08 6.53058
6762.03 6.75182
6762.26 6.99315
6762.50 7.66163
6762.62 8.56117
6762.74 10.9074
6762.80 13.8426
6762.86 20.8969
6762.89 29.0100
6762.91 45.2488
6762.93 61.1186
6762.94 88.1099
6762.96 137.476
6762.97 223.118
6762.99 358.358
6763.00 440.055
6763.01 348.251
6763.03 223.329
6763.04 157.181
6763.05 114.090
6763.06 85.9495
6763.07 68.6412
6763.09 45.3664
6763.11 33.3438
6763.14 21.1624
6763.18 15.6648
6763.26 11.0068
6763.34 9.14189
6763.50 7.68564
6763.65 7.13733
6763.96 6.72277
6764.27 6.56775
6765.52 6.39014
6768.02 6.29181
6773.00 6.16488
6777.99 6.05162
6780.49 6.00887
6781.73 6.04147
6782.36 6.27520
6782.51 6.52409
6782.67 7.21419
6782.75 8.12955
6782.82 10.5115
6782.86 13.4551
6782.90 20.3880
6782.92 28.2432
6782.94 43.1425
6782.95 57.3505
6782.96 77.6154
6782.97 115.180
6782.98 172.235
6782.99 277.462
6783.00 339.486
6783.01 268.062
6783.02 173.186
6783.03 111.295
6783.04 78.3975
6783.05 56.2910
6783.06 43.7416
6783.08 28.7179
6783.10 21.0657
6783.14 13.9596
6783.17 10.9475
6783.25 8.40635
6783.32 7.40512
6783.47 6.62566
6783.62 6.33461
6784.22 6.02527
6785.43 5.91768
6787.83 5.84270
6792.64 5.73291
6802.26 5.52899
6821.50 5.13377
6840.74 4.73853
6850.36 4.53683
6855.17 4.43527
6857.58 4.38892
6858.78 4.38698
6859.38 4.47217
6859.68 4.84437
6859.83 6.18372
6859.87 7.42817
6859.91 10.3542
6859.93 13.7509
6859.95 20.9358
6859.96 28.3608
6859.97 39.8727
6859.97 60.6899
6859.98 104.767
6859.99 166.176
6860.00 205.594
6860.01 166.485
6860.02 105.156
6860.02 67.7747
6860.03 45.7470
6860.05 25.1422
6860.06 16.6107
6860.08 12.3792
6860.11 8.53226
6860.14 6.93634
6860.21 5.58852
6860.27 5.07379
6860.52 4.52393
6861.03 4.36341
6862.05 4.30094
6864.08 4.24525
6868.14 4.15177
6876.26 3.96596
6892.50 3.57559
6908.75 3.15122
6916.87 2.92337
6920.93 2.80516
6922.96 2.74584
6923.97 2.72001
6924.48 2.72375
6924.73 2.79004
6924.86 3.05410
6924.92 3.89979
6924.96 6.13662
6924.97 10.3549
6924.98 15.6053
6924.99 25.0645
6925.00 47.5252
6925.01 25.1436
6925.02 13.2570
6925.03 8.53330
6925.05 5.06711
6925.10 3.46779
6925.18 2.90704
6925.35 2.73547
6925.68 2.67926
6926.36 2.64642
6927.70 2.60176
6930.38 2.51705
6935.76 2.34461
6946.50 1.98060
6957.24 1.58997
6962.61 1.38558
6965.30 1.28322
6966.64 1.23958
6967.31 1.24980
6967.65 1.37855
6967.82 1.88833
6967.90 3.56750
6967.94 8.05800
6967.96 16.7460
6967.97 27.1268
6967.98 48.4574
6967.99 76.8813
6968.00 95.8761
6968.01 76.9901
6968.02 48.5929
6968.03 25.8461
6968.04 16.1420
6968.06 8.12472
6968.10 3.70107
6968.18 1.93876
6968.34 1.37681
6968.66 1.20656
6969.31 1.13841
6970.61 1.07563
6973.20 0.969366
6978.38 0.762227
6988.75 0.368878
6993.93 0.201062
6996.52 0.131428
6999.11 0.0756243
7001.70 0.0380844
7004.29 0.0245863
7006.88 0.0427107
7009.47 0.102486
7012.07 0.217361
7014.66 0.405327
7017.25 0.691103
7019.84 1.10886
7022.43 1.70664
7025.02 2.55311
7027.61 3.74837
7030.20 5.44153
7032.79 7.86018
7035.38 11.3614
7037.98 16.5226
7040.57 24.3079
7043.16 36.3802
7045.75 55.6789
7048.34 87.3917
7050.93 139.878
7054.47 257.526
7058.00 366.629
7061.54 331.153
7065.07 231.958
7067.25 182.874
7069.43 146.349
7073.80 99.7962
7078.16 73.4226
7082.52 57.2683
7086.89 46.6487
7091.25 39.2624
7095.61 33.8883
7096.71 32.7749
7097.80 31.7480
7098.89 30.8768
7099.43 30.8326
7099.57 31.1402
7099.71 32.1560
7099.77 33.5557
7099.84 37.1579
7099.88 41.4720
7099.91 51.1275
7099.93 61.0690
7099.94 79.4951
7099.96 118.013
7099.97 155.880
7099.98 207.415
7099.99 319.053
7100.00 385.396
7100.01 309.460
7100.02 207.773
7100.03 151.084
7100.04 118.290
7100.06 81.2152
7100.07 62.7785
7100.09 52.5588
7100.12 42.3717
7100.15 37.6905
7100.22 33.6117
7100.28 31.9670
7100.41 30.6028
7100.54 30.0291
7101.05 29.1401
7102.08 28.2398
7103.11 27.4863
7104.14 26.7876
7108.26 24.3514
7116.50 20.6728
7124.74 18.0199
7128.86 16.9520
7130.92 16.4758
7131.95 16.2836
7132.47 16.3287
7132.73 16.8732
7132.79 17.4475
7132.86 18.9405
7132.89 20.7870
7132.92 25.1244
7132.94 29.8559
7132.95 39.2759
7132.97 61.4989
7132.98 84.6491
7132.98 124.643
7132.99 194.059
7133.00 233.677
7133.01 186.188
7133.02 125.037
7133.03 85.0115
7133.03 61.8114
7133.05 40.3804
7133.06 30.8654
7133.08 25.9418
7133.11 21.3055
7133.14 19.2771
7133.20 17.5726
7133.26 16.9087
7133.50 16.1612
7133.99 15.8670
7134.95 15.6155
7136.89 15.2175
7140.76 14.5015
7148.51 13.2610
7163.99 11.2974
7179.48 9.75333
7183.35 9.40863
7187.23 9.07731
7191.10 8.76971
7193.03 8.68333
7193.52 8.72041
7194.00 8.89824
7194.24 9.17658
7194.49 9.97407
7194.61 11.0435
7194.73 13.8387
7194.79 17.3441
7194.85 25.4926
7194.88 34.8118
7194.91 53.1079
7194.92 69.8544
7194.94 97.0780
7194.95 143.917
7194.97 230.495
7194.99 366.432
7195.00 453.468
7195.02 367.145
7195.03 231.395
7195.04 167.400
7195.05 122.733
7195.06 93.2798
7195.07 73.3652
7195.10 49.4855
7195.12 36.5099
7195.14 28.7720
7195.16 23.8164
7195.21 18.0912
7195.29 13.2381
7195.38 11.2904
7195.56 9.76029
7195.73 9.17798
7196.08 8.72039
7196.44 8.53484
7197.84 8.26307
7200.65 7.99643
7206.27 7.54255
7217.51 6.65900
7228.75 5.75022
7234.37 5.27246
7237.18 5.02755
7238.58 4.91544
7239.28 4.91312
7239.63 5.12518
7239.81 6.01264
7239.85 6.85978
7239.90 8.99333
7239.92 11.5215
7239.94 17.1286
7239.95 22.8440
7239.96 33.2977
7239.97 54.6066
7239.98 95.6509
7239.99 150.389
7240.00 187.056
7240.01 150.808
7240.02 96.1730
7240.02 61.0969
7240.03 43.3243
7240.05 24.6007
7240.06 16.6256
7240.08 12.8037
7240.11 8.97369
7240.13 7.38035
7240.25 5.51644
7240.49 4.93924
7240.95 4.74053
7241.89 4.61024
7243.76 4.42012
7247.51 4.04757
7255.01 3.24890
7262.50 2.35650
7270.00 1.37177
7277.49 0.408509
7279.37 0.223770
7281.24 0.0997320
7283.12 0.0772522
7284.05 0.123787
7284.99 0.224130
7285.93 0.394689
7286.86 0.656962
7287.80 1.03999
7288.74 1.58335
7289.67 2.34169
7290.61 3.39169
7291.55 4.84266
7292.49 6.85343
7293.42 9.65953
7294.36 13.6180
7295.30 19.2828
7296.23 27.5340
7297.17 39.7986
7298.11 58.4134
7299.04 87.1375
7299.98 131.391
7301.49 245.967
7303.00 355.106
7304.51 324.462
7306.02 229.408
7307.00 179.729
7307.98 143.152
7309.93 97.1163
7311.89 71.3598
7313.84 55.6633
7315.80 45.3526
7317.75 38.1578
7321.66 28.8733
7325.57 23.1460
7329.48 19.2105
7337.30 13.8798
7345.12 9.89404
7349.03 7.97476
7352.94 5.91819
7356.85 3.59485
7358.80 2.33816
7360.76 1.14302
7361.73 0.682627
7362.22 0.533852
7362.71 0.473403
7363.20 0.540755
7363.69 0.794321
7364.18 1.32059
7364.67 2.24812
7365.15 3.78296
7365.64 6.24467
7366.13 10.1560
7366.62 16.3772
7367.11 26.4403
7367.60 42.9479
7368.09 70.6181
7368.57 116.867
7369.29 233.213
7370.00 355.553
7370.36 366.968
7370.71 340.563
7371.43 251.006
7371.95 195.985
7372.47 156.135
7372.99 127.824
7373.51 107.434
7374.56 80.8747
7375.60 64.8866
7376.64 54.4324
7377.69 47.1638
7379.77 37.8121
7381.86 32.1004
7383.95 28.2657
7388.12 23.4302
7392.29 20.4825
7396.47 18.4728
7404.81 15.8531
7413.16 14.1664
7421.50 12.9497
7438.20 11.2308
7454.89 9.99351
7471.58 8.99219
7488.27 8.11234
7496.62 7.69857
7500.79 7.50585
7502.88 7.45449
7503.92 7.60094
7504.18 7.78546
7504.44 8.30797
7504.57 9.00575
7504.70 10.7949
7504.77 12.9773
7504.83 18.0281
7504.87 23.5634
7504.90 34.0461
7504.92 43.9949
7504.93 58.8500
7504.95 83.1717
7504.96 125.258
7504.98 197.127
7505.00 243.357
7505.02 197.221
7505.04 125.376
7505.06 77.7215
7505.08 52.5318
7505.10 37.6842
7505.11 29.2624
7505.15 20.0145
7505.19 15.5297
7505.27 11.5227
7505.35 9.84727
7505.50 8.49874
7505.66 7.97718
7505.97 7.57237
7506.28 7.41419
7507.53 7.20988
7510.03 7.05033
7515.02 6.79571
7525.00 6.29677
7534.98 5.78389
7539.97 5.52398
7542.47 5.41896
7543.72 5.48084
7544.03 5.59815
7544.34 5.95371
7544.50 6.44229
7544.65 7.74130
7544.73 9.37578
7544.81 13.3118
7544.85 17.7340
7544.89 26.8757
7544.91 35.7740
7544.93 49.9331
7544.94 74.9350
7544.96 122.301
7544.98 193.848
7545.00 240.062
7545.02 194.400
7545.04 122.995
7545.06 75.5682
7545.08 49.5175
7545.10 35.1233
7545.12 26.5870
7545.16 17.5731
7545.20 13.2245
7545.28 9.35080
7545.36 7.73295
7545.52 6.42859
7545.68 5.92361
7546.00 5.52439
7546.31 5.36558
7547.59 5.14868
7550.15 4.96083
7555.25 4.64190
7565.47 3.95886
7570.58 3.56298
7575.69 3.08224
7578.24 2.76919
7579.52 2.57359
7580.79 2.33055
7582.07 2.00324
7582.71 1.78494
7583.35 1.50810
7583.99 1.14690
7584.62 0.714950
7584.94 0.593977
7585.10 0.684735
7585.26 1.08162
7585.42 2.30976
7585.50 3.67827
7585.58 6.13436
7585.66 10.9454
7585.70 15.0493
7585.74 21.1981
7585.78 30.7377
7585.82 46.1212
7585.86 71.8451
7585.90 114.711
7585.95 201.554
7586.00 277.135
7586.05 242.110
7586.10 165.249
7586.14 122.543
7586.17 92.8453
7586.21 72.6623
7586.25 58.9468
7586.32 41.4933
7586.39 31.4552
7586.47 25.1449
7586.54 20.8985
7586.68 15.6611
7586.83 12.6089
7586.98 10.6652
7587.27 8.34786
7587.56 7.02639
7587.85 6.18207
7588.15 5.59295
7588.44 5.16026
7589.02 4.56021
7589.61 4.15921
7590.78 3.64089
7591.95 3.30296
7593.12 3.05117
7595.46 2.67156
7600.14 2.10737
7604.82 1.63489
7614.18 0.802304
7618.86 0.453526
7621.20 0.309659
7623.54 0.196330
7625.88 0.124747
7628.22 0.110589
7630.56 0.175567
7632.89 0.350015
7634.06 0.491191
7635.23 0.677240
7637.57 1.21931
7639.91 2.06707
7642.25 3.35528
7644.59 5.29119
7646.93 8.19596
7649.27 12.5844
7651.61 19.2998
7653.95 29.7767
7656.29 46.4594
7658.63 73.5454
7660.97 117.556
7664.49 228.416
7668.00 340.567
7669.76 348.111
7671.52 320.311
7675.03 232.497
7677.22 186.698
7679.40 152.009
7683.77 107.011
7688.14 81.0328
7692.51 64.8809
7696.88 54.1306
7701.25 46.5748
7705.62 41.0248
7707.80 38.7800
7708.89 37.7764
7709.44 37.3530
7709.71 37.3558
7709.85 38.1003
7709.92 40.7267
7709.95 47.3726
7709.97 59.0979
7709.98 73.9054
7709.99 100.515
7709.99 140.896
7710.00 164.443
7710.01 141.058
7710.01 100.714
7710.03 69.8265
7710.04 55.1845
7710.06 44.8046
7710.10 39.4527
7710.19 37.4450
7710.36 36.7112
7710.70 36.2630
7711.39 35.6678
7712.76 34.6121
7715.51 32.7317
7721.01 29.6453
7732.01 25.2654
7743.01 22.3155
7754.00 20.1952
7775.99 17.3435
7786.99 16.3338
7792.49 15.8981
7795.24 15.6952
7796.61 15.5992
7797.30 15.5611
7797.64 15.5776
7797.82 15.7173
7797.90 16.2298
7797.95 17.7327
7797.97 20.9021
7797.98 25.7989
7797.99 37.2465
7798.00 59.0470
7798.01 37.2995
7798.02 25.2003
7798.04 20.4236
7798.06 17.4746
7798.11 16.1405
7798.20 15.6719
7798.38 15.5237
7798.75 15.4609
7799.50 15.4003
7800.98 15.2983
7803.95 15.1053
7809.88 14.7447
7821.76 14.1060
7845.50 13.0752
7869.24 12.2700
7881.12 11.9269
7887.05 11.7675
7890.02 11.6917
7891.50 11.6595
7892.25 11.6644
7892.62 11.7473
7892.80 12.0832
7892.89 13.2428
7892.94 16.5283
7892.96 23.5502
7892.98 34.3849
7892.99 59.3408
7892.99 88.0141
7893.00 107.161
7893.01 88.0888
7893.01 59.4340
7893.02 41.0559
7893.03 30.7603
7893.04 21.1959
7893.07 15.3054
7893.13 12.7865
7893.24 11.9460
7893.46 11.6943
7893.90 11.6159
7894.79 11.5759
7896.57 11.5273
7900.13 11.4398
7907.25 11.2731
7921.49 10.9627
7928.61 10.8173
7935.73 10.6784
7942.85 10.5487
7946.41 10.5040
7948.19 10.5550
7948.64 10.6323
7949.08 10.8630
7949.30 11.1841
7949.53 12.0594
7949.64 13.2072
7949.75 16.1584
7949.80 19.8085
7949.86 28.1284
7949.89 37.2598
7949.91 55.3389
7949.93 71.6080
7949.94 97.5669
7949.96 141.023
7949.97 211.681
7949.99 334.648
7950.00 413.186
7950.02 334.830
7950.03 211.911
7950.04 141.238
7950.06 97.7561
7950.07 71.7724
7950.09 56.4265
7950.11 37.8181
7950.14 28.7075
7950.20 20.0619
7950.25 16.3892
7950.36 13.3275
7950.47 12.1294
7950.69 11.2070
7950.90 10.8626
7951.34 10.6019
7951.78 10.5030
7953.52 10.3816
7957.01 10.2970
7964.00 10.1720
7970.98 10.0597
7974.47 10.0279
7976.22 10.1120
7976.66 10.2243
7977.09 10.5547
7977.31 11.0117
7977.53 12.2568
7977.64 13.8776
7977.75 17.9839
7977.80 22.9586
7977.83 27.2341
7977.86 33.9446
7977.88 45.8371
7977.91 67.4657
7977.92 86.6206
7977.94 113.342
7977.95 158.049
7977.96 227.700
7977.98 355.493
7978.00 446.385
7978.02 356.740
7978.04 228.620
7978.06 134.489
7978.08 87.7956
7978.10 62.2919
7978.12 47.2644
7978.14 37.7892
7978.16 31.4733
7978.20 23.8828
7978.24 19.6890
7978.28 17.1374
7978.36 14.3262
7978.52 12.0673
7978.68 11.1963
7979.00 10.5280
7979.32 10.2766
7979.96 10.0817
7980.60 10.0036
7983.16 9.89316
7988.28 9.79378
7998.53 9.63393
8008.78 9.48420
8019.03 9.34002
8060.01 8.80171
8141.99 7.82702
8223.97 6.87372
8305.95 5.82258
8387.93 4.51976
8428.92 3.69840
8469.90 2.70284
8510.89 1.49251
8531.39 0.830328
8551.88 0.234077
8557.01 0.124855
8562.13 0.0481232
8567.25 0.0182943
8569.82 0.0270890
8572.38 0.0559486
8574.94 0.108938
8577.50 0.190955
8580.06 0.307981
8582.62 0.467271
8587.75 0.951217
8592.87 1.74450
8598.00 3.00856
8603.12 5.00616
8608.24 8.18154
8613.37 13.3149
8618.49 21.8433
8623.61 36.5064
8628.74 62.6548
8633.86 109.977
8639.93 206.766
8646.00 299.093
8649.04 301.336
8652.07 273.392
8658.14 193.083
8665.16 125.770
8672.18 87.2190
8679.20 64.4583
8686.23 50.0134
8693.25 40.1785
8700.27 33.0531
8714.31 23.1682
8728.35 15.9737
8735.37 12.6882
8742.40 9.32655
8749.42 5.72463
8752.93 3.85827
8756.44 2.13162
8758.19 1.47119
8759.95 1.14071
8760.83 1.18854
8761.70 1.45603
8762.58 2.03348
8763.46 3.04880
8764.34 4.69365
8765.22 7.24861
8766.09 11.1380
8766.97 17.0024
8767.85 25.8549
8768.73 39.2153
8769.60 59.4383
8770.48 89.7176
8771.36 133.841
8772.24 192.898
8774.00 311.849
8774.88 329.878
8775.76 313.034
8777.52 239.618
8779.61 167.923
8781.70 124.620
8783.79 98.2347
8785.87 81.1712
8787.96 69.4509
8790.05 60.9987
8794.23 49.7170
8798.40 42.5706
8802.58 37.6425
8810.93 31.2564
8819.29 27.2457
8827.64 24.4472
8844.35 20.6964
8861.06 18.1942
8877.76 16.3190
8911.18 13.4562
8944.59 10.9732
8961.30 9.64743
8978.00 8.10924
8994.71 6.15383
9003.06 4.91749
9011.42 3.44053
9019.77 1.73249
9023.95 0.892553
9026.04 0.543466
9028.12 0.308050
9029.17 0.260961
9030.21 0.283753
9031.26 0.400842
9032.30 0.645537
9033.35 1.06359
9034.39 1.71860
9035.43 2.70005
9036.48 4.13560
9037.52 6.21249
9038.57 9.19880
9039.61 13.5021
9040.65 19.7370
9041.70 28.8423
9042.74 42.2503
9043.79 62.0902
9044.83 91.2725
9046.92 187.255
9049.00 291.933
9050.04 304.200
9051.09 284.854
9053.17 213.241
9054.48 173.866
9055.78 143.589
9058.40 103.698
9061.01 80.3107
9063.62 65.5890
9066.23 55.6848
9068.85 48.6580
9074.07 39.4654
9079.30 33.7785
9084.52 29.9375
9094.97 25.0886
9105.43 22.1438
9115.88 20.1486
9136.78 17.5690
9157.68 15.9158
9178.58 14.7135
9220.39 12.9356
9262.19 11.4461
9283.09 10.6652
9303.99 9.75890
9324.90 8.57245
9335.35 7.77537
9345.80 6.73179
9351.02 6.06868
9356.25 5.26989
9361.48 4.28958
9366.70 3.07456
9371.93 1.61109
9374.54 0.858050
9375.85 0.529706
9377.15 0.288400
9378.46 0.216837
9379.11 0.288032
9379.76 0.466898
9380.42 0.794167
9381.07 1.32716
9381.72 2.14767
9382.38 3.37419
9383.03 5.18457
9383.68 7.83539
9384.34 11.7288
9384.99 17.4861
9385.64 26.0862
9386.30 39.0764
9386.95 58.8510
9387.60 88.8136
9388.80 180.259
9390.00 278.608
9390.60 289.344
9391.20 270.129
9392.40 201.195
9393.21 161.186
9394.02 131.188
9394.82 109.208
9395.63 92.9758
9397.25 71.2983
9398.86 57.9359
9400.48 49.0781
9402.09 42.8574
9405.32 34.8017
9408.55 29.8707
9411.78 26.5653
9418.24 22.4305
9424.70 19.9469
9431.16 18.2817
9437.62 17.0776
9444.08 16.1576
9457.00 14.8189
9469.92 13.8581
9495.76 12.4553
9521.60 11.2941
9534.53 10.6938
9547.45 10.0089
9560.37 9.13357
9566.83 8.55576
9573.29 7.80320
9579.75 6.73497
9582.98 5.99237
9586.21 5.01455
9587.82 4.39829
9589.44 3.66773
9591.05 2.79865
9592.67 1.78518
9594.28 0.735308
9595.09 0.361127
9595.49 0.299892
9595.90 0.401146
9596.30 0.774923
9596.70 1.61011
9596.91 2.29724
9597.11 3.24407
9597.31 4.53912
9597.51 6.29574
9597.71 8.70509
9597.92 12.0093
9598.12 16.5703
9598.32 22.9181
9598.52 31.8330
9598.72 44.4551
9598.93 62.3984
9599.13 87.6040
9599.56 175.083
9600.00 267.476
9600.22 276.397
9600.44 256.806
9600.88 189.790
9601.16 152.089
9601.45 123.846
9602.02 87.6413
9602.60 66.9884
9603.17 54.2205
9603.75 45.7331
9604.32 39.7813
9605.47 32.0723
9606.62 27.3504
9607.77 24.1880
9610.06 20.2254
9612.36 17.8354
9614.66 16.2199
9619.25 14.1192
9623.85 12.7372
9628.44 11.6804
9637.63 9.92219
9646.81 8.10358
9651.41 6.99569
9656.00 5.62456
9660.60 3.84264
9662.89 2.75525
9665.19 1.56980
9666.34 0.996707
9667.49 0.528807
9668.06 0.382067
9668.64 0.339844
9669.21 0.459030
9669.78 0.828272
9670.36 1.58952
9670.93 2.96755
9671.51 5.34132
9672.08 9.35885
9672.65 16.1651
9673.23 27.8336
9673.80 48.1290
9674.38 83.4345
9674.78 121.871
9675.19 172.456
9676.00 270.634
9676.41 282.878
9676.81 265.619
9677.63 199.896
9678.20 159.450
9678.77 129.448
9679.35 107.645
9679.92 91.6849
9681.07 70.5430
9682.21 57.6124
9683.36 49.0630
9684.51 43.0738
9686.80 35.3179
9689.09 30.5671
9691.38 27.3785
9695.97 23.3835
9700.56 20.9822
9705.14 19.3742
9709.73 18.2164
9714.31 17.3384
9723.49 16.0825
9732.66 15.2136
9751.00 14.0528
9769.35 13.2733
9787.69 12.6791
9824.38 11.7331
9861.07 10.8417
9879.41 10.3252
9897.76 9.68046
9906.93 9.27247
9916.10 8.77085
9925.27 8.12548
9934.45 7.24679
9939.03 6.67103
9943.62 5.96027
9948.20 5.06197
9952.79 3.90142
9957.38 2.39756
9961.96 0.682387
9963.11 0.365114
9964.25 0.247397
9964.83 0.325878
9965.40 0.552128
9965.97 0.993439
9966.55 1.75020
9967.12 2.97778
9967.69 4.90947
9968.27 7.92390
9968.84 12.6338
9969.41 20.0727
9969.99 31.9280
9970.56 51.0549
9971.13 81.8246
9972.07 167.860
9973.00 261.712
9973.47 272.830
9973.93 255.589
9974.87 191.599
9975.50 153.797
9976.13 125.461
9976.77 104.686
9977.40 89.3220
9978.67 68.8003
9979.93 56.1566
9981.20 47.7655
9982.47 41.8760
9985.00 34.2455
9985.00 22.1229
10000.0 22.1102
12500.0 20.3166
15000.0 18.9819
17000.0 18.1273
20000.0 17.0863
25000.0 15.7715
30000.0 14.7853
35000.0 14.0067
40000.0 13.3694
50000.0 12.3736
60000.0 11.6175
70000.0 11.0143
80000.0 10.5161
90000.0 10.0942
100000 9.72994
125000 8.99763
150000 8.43765
170000 8.07331
200000 7.62560
250000 7.06134
300000 6.64873
300000 6.64779
303757 6.62972
303757 6.62971
315000 6.57564
400000 6.45385
500000 6.46307
600000 6.54674
693000 6.64826
693000 6.64826
700000 6.65590
757329 6.71264
757330 6.71264
800000 6.75487
900000 6.85383
923052 6.87387
923052 6.87387
976615 6.92045
976615 6.92045
1.00000E+06 6.94078
1.00601E+06 6.94491
1.00602E+06 6.94491
1.03010E+06 6.96148
1.03010E+06 6.96149
1.10000E+06 7.00957
1.17888E+06 7.04955
1.17889E+06 7.04952
1.20000E+06 7.06025
1.25061E+06 7.07209
1.25061E+06 7.07209
1.25733E+06 7.07366
1.25733E+06 7.07367
1.28842E+06 7.08093
1.28842E+06 7.08093
1.30000E+06 7.08364
1.40000E+06 7.10703
1.50000E+06 7.10565
1.52182E+06 7.10535
1.52182E+06 7.10535
1.52594E+06 7.10529
1.52594E+06 7.10530
1.53184E+06 7.10522
1.53184E+06 7.10522
1.60000E+06 7.10427
1.61091E+06 7.10170
1.61091E+06 7.10170
1.65622E+06 7.09102
1.65622E+06 7.09102
1.65642E+06 7.09098
1.70000E+06 7.08071
1.80000E+06 7.05714
1.90000E+06 7.01673
2.00000E+06 6.97633
2.50000E+06 6.67809
3.00000E+06 6.30829
3.50000E+06 5.92030
4.00000E+06 5.55072
4.17830E+06 5.44750
5.00000E+06 4.97179
6.00000E+06 4.67753
6.34095E+06 4.65281
7.00000E+06 4.60501
7.30000E+06 4.61100
7.38301E+06 4.61265
7.38301E+06 4.61265
7.50000E+06 4.61499
8.00000E+06 4.64197
9.00000E+06 4.72711
9.29898E+06 4.76017
9.29898E+06 4.76017
1.00000E+07 4.83768
1.10000E+07 4.95613
1.20000E+07 5.07458
1.27101E+07 5.14100
1.30000E+07 5.16812
1.40000E+07 5.22953
1.45000E+07 5.24210
1.50000E+07 5.25467
1.60000E+07 5.24430
1.61212E+07 5.23926
1.61212E+07 5.23926
1.70000E+07 5.20268
1.80000E+07 5.13566
1.90000E+07 5.04949
2.00000E+07 4.95059