Nd-145(n,tot) ENDF/B-VII.1
Energy(eV) XS(b)
1.00000E-05 2130.50
1.25000E-05 1907.34
1.50000E-05 1742.60
1.77828E-05 1601.82
2.00000E-05 1511.37
2.75000E-05 1291.36
3.16228E-05 1205.36
3.50000E-05 1146.56
4.25000E-05 1042.03
5.00000E-05 962.002
5.62341E-05 908.064
7.50000E-05 788.530
0.000100000 685.120
0.000125000 614.550
0.000150000 562.457
0.000177828 517.936
0.000200000 489.334
0.000275000 419.759
0.000316228 392.565
0.000350000 373.969
0.000425000 340.913
0.000500000 315.606
0.000562341 298.549
0.000750000 260.749
0.00100000 228.046
0.00125000 205.729
0.00150000 189.255
0.00177828 175.175
0.00200000 166.130
0.00275000 144.126
0.00316228 135.525
0.00350000 129.644
0.00425000 119.188
0.00500000 111.184
0.00562341 105.789
0.00750000 93.8307
0.0100000 83.4841
0.0125000 76.4218
0.0150000 71.2075
0.0177828 66.7500
0.0200000 63.8858
0.0253000 58.6347
0.0316228 54.1884
0.0376500 51.0385
0.0500000 46.4631
0.0562341 44.7478
0.0750000 40.9399
0.100000 37.6342
0.125000 35.3684
0.150000 33.6878
0.177828 32.2440
0.200000 31.3114
0.275000 29.0195
0.316228 28.1109
0.350000 27.4839
0.425000 26.3542
0.500000 25.4726
0.562341 24.8677
0.750000 23.4858
0.999999 22.2274
1.00000 22.2274
1.00000 22.2274
1.00001 22.2273
1.00001 22.2273
1.00001 22.2273
1.00003 22.2273
1.00005 22.2271
1.00011 22.2269
1.00021 22.2265
1.00042 22.2256
1.00083 22.2239
1.00165 22.2205
1.00331 22.2136
1.00661 22.1998
1.01322 22.1725
1.02644 22.1186
1.05288 22.0135
1.10577 21.8132
1.21153 21.4484
1.21153 21.4484
1.21154 21.4484
1.21155 21.4483
1.21156 21.4483
1.21159 21.4482
1.21166 21.4480
1.21178 21.4476
1.21203 21.4468
1.21253 21.4451
1.21353 21.4419
1.21554 21.4354
1.21954 21.4225
1.22755 21.3968
1.24357 21.3462
1.27560 21.2476
1.33967 21.0601
1.46780 20.7209
1.46780 20.7209
1.46781 20.7209
1.46782 20.7209
1.46783 20.7208
1.46786 20.7207
1.46793 20.7206
1.46805 20.7203
1.46831 20.7196
1.46881 20.7184
1.46981 20.7159
1.47183 20.7110
1.47585 20.7010
1.48390 20.6814
1.50000 20.6425
1.53479 20.5606
1.56957 20.4816
1.63914 20.3318
1.77828 20.0638
1.77828 20.0638
1.77829 20.0638
1.77830 20.0638
1.77831 20.0637
1.77834 20.0637
1.77839 20.0636
1.77850 20.0634
1.77872 20.0630
1.77915 20.0622
1.78001 20.0607
1.78175 20.0576
1.78521 20.0515
1.79214 20.0393
1.80600 20.0152
1.83371 19.9682
1.88914 19.8787
2.00000 19.7184
2.15443 19.5371
2.15443 19.5371
2.15444 19.5371
2.15444 19.5371
2.15446 19.5371
2.15448 19.5371
2.15454 19.5370
2.15464 19.5369
2.15485 19.5367
2.15526 19.5363
2.15610 19.5355
2.15776 19.5338
2.16109 19.5305
2.16774 19.5239
2.18105 19.5110
2.20767 19.4865
2.26091 19.4424
2.36739 19.3747
2.58035 19.3355
2.61016 19.3422
2.61016 19.3422
2.61017 19.3422
2.61017 19.3422
2.61018 19.3422
2.61020 19.3422
2.61023 19.3422
2.61030 19.3422
2.61043 19.3422
2.61070 19.3423
2.61124 19.3425
2.61231 19.3428
2.61446 19.3434
2.61876 19.3447
2.62737 19.3475
2.64457 19.3541
2.67898 19.3709
2.74780 19.4205
2.88543 19.5961
3.16070 20.4081
3.16228 20.4153
3.16228 20.4164
3.16229 20.4164
3.16229 20.4164
3.16230 20.4165
3.16232 20.4165
3.16236 20.4167
3.16245 20.4171
3.16261 20.4179
3.16294 20.4194
3.16359 20.4224
3.16489 20.4284
3.16751 20.4405
3.17273 20.4651
3.18319 20.5156
3.20409 20.6220
3.24590 20.8584
3.32951 21.4431
3.49674 23.2727
3.66396 26.7540
3.83119 34.2878
3.83119 34.2869
3.83120 34.2875
3.83121 34.2879
3.83122 34.2890
3.83125 34.2910
3.83131 34.2951
3.83143 34.3033
3.83167 34.3196
3.83215 34.3524
3.83311 34.4181
3.83502 34.5508
3.83885 34.8206
3.84651 35.3790
3.86183 36.5758
3.89247 39.3405
3.95374 46.9113
4.01502 58.9701
4.07630 79.8722
4.13757 120.868
4.16821 157.977
4.19885 218.738
4.22949 328.005
4.24481 418.286
4.26012 552.728
4.27544 763.718
4.29076 1116.26
4.30608 1746.44
4.32140 2916.17
4.33570 4647.04
4.35000 5793.51
4.36430 4631.59
4.37860 2897.09
4.39504 1669.02
4.41147 1037.40
4.42791 696.137
4.44435 496.836
4.46079 372.069
4.47722 289.391
4.51010 190.708
4.54297 136.611
4.57584 103.910
4.64159 68.1523
4.64159 68.1516
4.64160 68.1493
4.64160 68.1475
4.64161 68.1434
4.64164 68.1353
4.64168 68.1190
4.64177 68.0866
4.64194 68.0221
4.64229 67.8934
4.64299 67.6374
4.64439 67.1309
4.64719 66.1391
4.65279 64.2366
4.66399 60.7299
4.68639 54.7300
4.73119 45.7290
4.82080 34.7833
4.91040 28.6283
5.00000 24.8181
5.15585 20.9227
5.31171 18.7160
5.62341 16.3721
5.62341 16.3721
5.62342 16.3721
5.62342 16.3721
5.62343 16.3720
5.62345 16.3719
5.62348 16.3717
5.62356 16.3714
5.62370 16.3706
5.62399 16.3691
5.62457 16.3661
5.62574 16.3602
5.62806 16.3483
5.63271 16.3248
5.64200 16.2784
5.66058 16.1880
5.69776 16.0167
5.77210 15.7074
5.92079 15.1935
6.21817 14.4387
6.81292 13.4677
6.81292 13.4677
6.81293 13.4677
6.81293 13.4677
6.81294 13.4677
6.81296 13.4677
6.81301 13.4676
6.81309 13.4675
6.81326 13.4673
6.81359 13.4669
6.81426 13.4660
6.81561 13.4643
6.81829 13.4608
6.82366 13.4539
6.83439 13.4401
6.85586 13.4128
6.89881 13.3593
6.98469 13.2562
7.15646 13.0632
7.50000 12.7192
8.25404 12.0912
8.25404 12.0912
8.25405 12.0912
8.25406 12.0912
8.25407 12.0912
8.25410 12.0912
8.25415 12.0911
8.25426 12.0911
8.25447 12.0909
8.25489 12.0906
8.25575 12.0899
8.25745 12.0887
8.26086 12.0861
8.26768 12.0810
8.28132 12.0708
8.30860 12.0506
8.36316 12.0104
8.47229 11.9315
8.69053 11.7792
9.12702 11.4932
9.99999 10.9801
10.0000 10.9801
10.0000 10.9801
10.0001 10.9801
10.0001 10.9801
10.0001 10.9800
10.0003 10.9800
10.0005 10.9798
10.0011 10.9795
10.0021 10.9790
10.0042 10.9778
10.0083 10.9756
10.0165 10.9710
10.0331 10.9620
10.0661 10.9439
10.1322 10.9081
10.2644 10.8373
10.5288 10.6995
11.0577 10.4376
12.1153 9.96154
12.1153 9.96153
12.1154 9.96150
12.1155 9.96147
12.1156 9.96140
12.1159 9.96127
12.1166 9.96100
12.1178 9.96047
12.1203 9.95941
12.1253 9.95730
12.1353 9.95307
12.1554 9.94463
12.1954 9.92781
12.2755 9.89440
12.4357 9.82848
12.7560 9.70014
13.3967 9.45678
14.6780 9.01884
14.6780 9.01883
14.6781 9.01881
14.6782 9.01878
14.6783 9.01873
14.6786 9.01863
14.6793 9.01843
14.6805 9.01803
14.6831 9.01723
14.6881 9.01563
14.6981 9.01244
14.7183 9.00606
14.7585 8.99334
14.8390 8.96809
15.0000 8.91826
15.3479 8.81365
15.6957 8.71315
16.3914 8.52412
17.7828 8.19229
17.7828 8.19228
17.7829 8.19227
17.7830 8.19225
17.7831 8.19222
17.7834 8.19216
17.7839 8.19204
17.7850 8.19181
17.7872 8.19134
17.7915 8.19040
17.8001 8.18853
17.8175 8.18479
17.8521 8.17733
17.9214 8.16253
18.0600 8.13338
18.3371 8.07686
18.8914 7.97095
20.0000 7.78803
21.5443 7.60043
21.5443 7.60043
21.5444 7.60042
21.5444 7.60042
21.5446 7.60041
21.5448 7.60038
21.5453 7.60034
21.5463 7.60024
21.5483 7.60006
21.5522 7.59968
21.5601 7.59894
21.5759 7.59746
21.6075 7.59453
21.6706 7.58877
21.7969 7.57769
22.0494 7.55732
22.5546 7.52394
23.5648 7.48886
25.5853 7.56990
26.1016 7.63034
26.1016 7.63035
26.1017 7.63036
26.1018 7.63037
26.1019 7.63039
26.1022 7.63043
26.1029 7.63052
26.1041 7.63069
26.1066 7.63102
26.1115 7.63170
26.1214 7.63305
26.1412 7.63577
26.1808 7.64131
26.2600 7.65275
26.4184 7.67707
26.7352 7.73176
27.3688 7.86751
28.6361 8.26624
31.1705 9.85058
31.6228 10.3042
31.6228 10.3071
31.6229 10.3072
31.6229 10.3073
31.6230 10.3074
31.6232 10.3076
31.6236 10.3080
31.6245 10.3089
31.6261 10.3107
31.6294 10.3142
31.6359 10.3213
31.6489 10.3355
31.6751 10.3642
31.7273 10.4223
31.8319 10.5416
32.0409 10.7935
32.4590 11.3556
33.2951 12.7652
34.9674 17.3791
36.6396 27.0106
37.4758 36.0713
38.3119 51.3271
38.3119 51.3248
38.3120 51.3265
38.3120 51.3279
38.3122 51.3308
38.3124 51.3368
38.3129 51.3486
38.3139 51.3721
38.3159 51.4196
38.3198 51.5144
38.3277 51.7050
38.3434 52.0896
38.3749 52.8723
38.4378 54.4935
38.5637 57.9766
38.8156 66.0617
39.3192 88.4405
39.8228 124.648
40.3265 188.579
40.5783 240.526
40.8301 316.891
41.0819 435.426
41.3337 633.202
41.5856 998.002
41.7115 1306.76
41.8374 1777.15
41.9633 2538.03
42.0892 3863.70
42.2151 6379.29
42.2781 8472.66
42.3410 11438.5
42.4455 18374.2
42.5500 23028.4
42.6545 18461.7
42.7590 11576.6
42.8733 6855.47
42.9876 4341.41
43.1018 2946.23
43.2161 2115.45
43.3304 1587.71
43.4447 1233.98
43.6732 806.379
43.9018 568.627
44.1303 423.280
44.5875 262.274
45.0446 179.741
45.5017 131.796
45.9588 101.442
46.4159 80.9787
46.4159 80.9779
46.4160 80.9757
46.4160 80.9739
46.4161 80.9698
46.4164 80.9616
46.4168 80.9452
46.4177 80.9125
46.4194 80.8475
46.4229 80.7179
46.4299 80.4595
46.4439 79.9469
46.4719 78.9375
46.5279 76.9805
46.6399 73.2981
46.8639 66.7507
47.3119 56.2437
48.2080 42.0223
49.1040 33.0523
50.0000 27.0035
51.5585 20.2861
53.1171 16.1705
56.2341 11.5088
56.2341 11.5088
56.2342 11.5087
56.2342 11.5087
56.2343 11.5086
56.2345 11.5084
56.2348 11.5080
56.2355 11.5073
56.2370 11.5058
56.2398 11.5028
56.2455 11.4969
56.2568 11.4850
56.2795 11.4613
56.3248 11.4142
56.4155 11.3212
56.5969 11.1400
56.9596 10.7953
57.6852 10.1699
59.1362 9.12556
62.0383 7.60165
67.8426 5.73819
68.1292 5.66952
68.1292 5.66955
68.1293 5.66953
68.1293 5.66952
68.1294 5.66950
68.1297 5.66944
68.1301 5.66934
68.1310 5.66913
68.1327 5.66871
68.1363 5.66788
68.1433 5.66621
68.1574 5.66289
68.1855 5.65624
68.2418 5.64299
68.3544 5.61666
68.5796 5.56467
69.0299 5.46326
69.9306 5.26988
71.7320 4.91529
75.3348 4.29860
78.9376 3.75346
80.7390 3.49813
81.6397 3.38197
82.5404 3.29501
82.5404 3.29521
82.5405 3.29521
82.5405 3.29520
82.5406 3.29520
82.5408 3.29519
82.5412 3.29516
82.5420 3.29512
82.5435 3.29502
82.5466 3.29483
82.5527 3.29445
82.5650 3.29371
82.5896 3.29228
82.6387 3.28964
82.7370 3.28534
82.9335 3.28146
83.3266 3.30195
83.7197 3.39260
84.1128 3.64355
84.3093 3.89804
84.5059 4.32687
84.7024 5.08785
84.8989 6.55495
84.9972 7.82548
85.0955 9.78683
85.1938 13.0061
85.2920 18.7570
85.3412 23.4594
85.3903 30.3889
85.4394 41.1545
85.4886 59.0715
85.5131 72.8004
85.5377 91.8773
85.5623 119.360
85.5868 160.715
85.6114 226.449
85.6360 337.923
85.6483 423.590
85.6605 540.911
85.6728 703.284
85.6851 926.406
85.7076 1496.35
85.7300 1889.48
85.7525 1527.76
85.7749 965.693
85.7951 629.207
85.8153 428.243
85.8355 306.263
85.8557 228.796
85.8961 141.312
85.9366 96.3035
85.9770 70.3094
86.0174 53.9825
86.0982 35.3960
86.1790 25.5916
86.2598 19.7741
86.3407 16.0260
86.4215 13.4607
86.5831 10.2536
86.7448 8.38216
86.9064 7.18282
87.0681 6.36029
87.3913 5.31963
87.7146 4.69508
88.3612 3.98051
89.0078 3.57226
89.6543 3.29570
90.9475 2.91718
92.2406 2.65296
93.5338 2.49052
94.1803 2.49822
94.5036 2.56401
94.8269 2.72829
95.1502 3.13363
95.3118 3.55625
95.4735 4.33478
95.6351 5.98018
95.7159 7.57975
95.7968 10.4006
95.8776 16.0708
95.9180 21.3318
95.9584 30.1685
95.9988 46.6653
96.0190 60.8268
96.0392 82.7175
96.0594 118.927
96.0796 184.099
96.0897 237.324
96.0998 314.368
96.1099 428.331
96.1200 596.581
96.1350 954.335
96.1500 1193.40
96.1650 955.972
96.1800 598.956
96.1949 370.386
96.2098 242.083
96.2247 167.941
96.2397 122.540
96.2546 93.1182
96.2695 73.1383
96.2994 48.6630
96.3292 34.8900
96.3590 26.4165
96.4187 16.9878
96.4784 12.1466
96.5381 9.34007
96.6575 6.38571
96.7769 4.94878
96.8962 4.14944
97.1350 3.35750
97.6125 2.89756
98.0899 2.97681
98.5674 3.41587
99.0449 4.33444
99.5224 6.10866
99.7612 7.56781
99.9999 9.67440
100.000 9.67523
100.000 9.67630
100.000 9.67949
100.001 9.68162
100.001 9.68694
100.002 9.69760
100.004 9.71791
100.008 9.75979
100.016 9.84438
100.031 10.0158
100.062 10.3734
100.125 11.1480
100.249 12.9754
100.498 18.1934
100.746 26.9739
100.995 43.0737
101.120 56.5256
101.244 76.7128
101.368 108.764
101.493 163.599
101.617 268.152
101.679 359.295
101.741 501.724
101.804 740.841
101.866 1178.89
101.897 1541.64
101.928 2073.99
101.959 2873.58
101.990 4070.09
102.035 6600.07
102.080 8356.65
102.125 6759.52
102.170 4270.99
102.213 2702.11
102.257 1800.58
102.300 1267.67
102.343 936.925
102.430 570.548
102.517 385.842
102.604 280.909
102.690 216.261
102.864 146.550
103.037 118.657
103.124 117.029
103.210 127.044
103.297 159.551
103.340 193.497
103.384 252.013
103.427 360.858
103.449 451.897
103.470 587.090
103.492 799.512
103.514 1149.05
103.535 1764.33
103.557 2867.78
103.579 4592.34
103.600 5777.21
103.622 4697.20
103.643 2998.27
103.660 2066.56
103.677 1472.10
103.694 1091.07
103.711 838.767
103.746 541.878
103.780 382.785
103.814 288.279
103.848 227.613
103.917 156.776
103.985 118.183
104.053 94.5495
104.190 67.7081
104.327 53.1173
104.464 43.9983
104.737 33.1917
105.011 26.9464
105.285 22.8423
105.832 17.7382
106.379 14.6745
106.926 12.6296
108.021 10.0748
109.115 8.54573
110.209 7.52858
112.398 6.25544
114.587 5.48233
116.776 4.95461
121.153 4.25965
121.153 4.25965
121.154 4.25955
121.155 4.25945
121.156 4.25925
121.159 4.25886
121.166 4.25808
121.178 4.25652
121.203 4.25340
121.253 4.24718
121.353 4.23483
121.554 4.21047
121.954 4.16301
122.755 4.07275
124.357 3.90819
127.560 3.62671
133.967 3.17078
137.170 2.96257
138.772 2.85646
140.373 2.74632
141.975 2.63269
142.776 2.57852
143.577 2.53598
144.378 2.53383
144.778 2.57464
145.178 2.68426
145.579 2.95018
145.979 3.62788
146.179 4.35261
146.380 5.69762
146.580 8.49603
146.680 11.1214
146.780 15.5183
146.780 15.5298
146.781 15.5586
146.781 15.5876
146.782 15.6400
146.784 15.7455
146.788 15.9661
146.795 16.4162
146.809 17.3796
146.839 19.5978
146.897 25.6275
146.956 35.0505
147.014 50.8464
147.043 63.0426
147.073 80.0124
147.102 104.684
147.131 141.955
147.160 201.919
147.190 304.473
147.219 494.184
147.233 648.260
147.248 862.583
147.274 1401.59
147.300 1778.31
147.326 1438.48
147.352 908.591
147.369 669.414
147.385 502.794
147.418 305.675
147.451 203.169
147.484 144.637
147.517 108.457
147.550 84.6407
147.616 56.3262
147.682 40.7340
147.748 31.2524
147.880 20.7244
148.012 15.2798
148.144 12.0821
148.276 10.0303
148.407 8.62812
148.671 6.87646
148.935 5.86062
149.199 5.22445
149.463 4.81659
149.990 4.47863
150.254 4.57581
150.518 5.00931
150.650 5.46947
150.782 6.24060
150.914 7.58421
151.046 10.1032
151.178 15.4381
151.244 20.5623
151.310 29.3646
151.376 46.2464
151.409 61.0298
151.442 84.1851
151.475 123.311
151.491 153.507
151.508 195.535
151.524 255.786
151.541 344.815
151.557 479.643
151.573 682.489
151.597 1102.95
151.620 1394.28
151.643 1129.72
151.667 715.961
151.685 496.678
151.702 355.745
151.720 264.230
151.738 203.011
151.774 130.256
151.809 90.9484
151.845 67.5243
151.880 52.4919
151.952 35.0264
152.023 25.6259
152.094 19.9870
152.165 16.3219
152.236 13.7969
152.379 10.6167
152.521 8.74951
152.664 7.54637
152.806 6.71923
153.091 5.67017
153.376 5.04136
153.661 4.62543
153.946 4.33042
154.516 3.93806
155.085 3.68627
156.225 3.37339
157.364 3.17810
158.504 3.03824
160.783 2.83870
163.062 2.69083
165.341 2.56747
166.480 2.51288
167.050 2.48935
167.620 2.47285
168.190 2.47707
168.474 2.50089
168.759 2.56370
168.902 2.62612
169.044 2.72988
169.187 2.91182
169.329 3.25745
169.400 3.55369
169.472 4.00582
169.543 4.73829
169.614 6.02395
169.685 8.55689
169.721 10.8379
169.756 14.5276
169.792 21.0031
169.828 33.7081
169.845 44.9901
169.863 62.7133
169.881 91.7481
169.890 112.896
169.899 139.988
169.909 179.884
169.919 225.392
169.940 284.197
169.961 230.441
169.981 146.848
169.997 103.459
170.012 75.2193
170.027 56.5648
170.043 44.0660
170.073 29.0300
170.104 20.8622
170.135 15.9505
170.165 12.7967
170.227 9.11200
170.288 7.12463
170.349 5.92832
170.411 5.15001
170.472 4.61352
170.594 3.93798
170.717 3.54097
170.840 3.28531
170.962 3.10934
171.207 2.88585
171.453 2.75114
171.943 2.59629
172.433 2.50731
172.924 2.44670
173.905 2.36260
175.866 2.24687
177.828 2.15081
177.828 2.15083
177.829 2.15079
177.830 2.15076
177.831 2.15069
177.834 2.15056
177.840 2.15029
177.851 2.14975
177.873 2.14867
177.919 2.14652
178.009 2.14222
178.190 2.13361
178.552 2.11638
179.276 2.08168
180.723 2.00999
182.170 1.93290
183.617 1.84816
185.065 1.75888
185.788 1.72162
186.512 1.71252
186.874 1.73717
187.236 1.80787
187.598 1.97612
187.959 2.37306
188.140 2.75876
188.321 3.39976
188.502 4.53100
188.683 6.71089
188.774 8.60238
188.864 11.5235
188.954 16.3302
189.045 24.9152
189.090 31.9502
189.135 42.2912
189.181 58.3240
189.226 84.9224
189.271 133.465
189.294 173.795
189.316 234.083
189.339 328.922
189.361 487.432
189.384 770.027
189.407 1292.19
189.428 2094.56
189.450 2652.51
189.472 2148.59
189.493 1359.76
189.514 867.223
189.535 581.910
189.555 412.024
189.576 305.560
189.617 186.685
189.658 126.384
189.699 91.6930
189.740 70.0361
189.822 45.4066
189.904 32.4296
189.986 24.7250
190.068 19.7558
190.150 16.3539
190.314 12.0877
190.479 9.59395
190.643 7.99525
190.807 6.90079
191.135 5.52240
191.464 4.70664
191.792 4.17502
192.120 3.80419
192.777 3.32424
193.433 3.02828
194.090 2.82708
194.747 2.68055
196.060 2.47843
197.373 2.34187
200.000 2.15875
203.861 1.98081
207.722 1.84526
215.443 1.61574
215.443 1.61578
215.444 1.61577
215.444 1.61575
215.445 1.61572
215.447 1.61567
215.451 1.61555
215.459 1.61532
215.475 1.61486
215.508 1.61394
215.572 1.61210
215.701 1.60843
215.959 1.60108
216.475 1.58638
217.507 1.55696
219.572 1.49768
223.700 1.37531
225.764 1.31188
226.796 1.28058
227.828 1.25198
228.861 1.23371
229.377 1.23642
229.893 1.26132
230.151 1.29179
230.409 1.34677
230.667 1.44876
230.925 1.65156
231.054 1.83051
231.183 2.11005
231.312 2.57521
231.441 3.42075
231.505 4.12336
231.570 5.17499
231.634 6.84230
231.699 9.69929
231.763 15.1650
231.796 19.9681
231.828 27.5236
231.860 40.3907
231.892 64.3634
231.909 84.7763
231.925 115.192
231.941 162.062
231.957 234.536
231.978 377.419
232.000 475.041
232.022 383.101
232.043 241.640
232.069 137.783
232.095 85.3035
232.121 57.2816
232.146 41.0195
232.172 30.8673
232.198 24.1437
232.250 16.1047
232.301 11.6763
232.353 8.98144
232.456 6.00441
232.559 4.47426
232.662 3.58212
232.765 3.01308
232.869 2.62685
233.075 2.14643
233.281 1.86699
233.488 1.68741
233.694 1.56335
234.107 1.40358
234.519 1.30420
235.344 1.18221
236.170 1.10383
236.995 1.04440
238.645 0.955448
240.296 0.913464
241.121 0.937733
241.946 1.04876
242.359 1.17675
242.772 1.40561
243.184 1.83177
243.597 2.68978
243.803 3.45636
244.010 4.66799
244.216 6.71251
244.422 10.4946
244.525 13.6884
244.629 18.5306
244.732 26.3511
244.835 40.0575
244.886 51.1148
244.938 67.2289
244.990 91.9273
245.041 132.262
245.093 204.556
245.119 263.817
245.144 351.216
245.170 486.368
245.196 707.189
245.222 1088.93
245.247 1763.45
245.274 2842.15
245.300 3578.92
245.326 2884.94
245.353 1817.08
245.379 1134.73
245.404 748.225
245.430 522.443
245.456 382.985
245.482 291.726
245.508 229.607
245.559 152.930
245.611 109.321
245.663 82.3185
245.766 51.9243
245.869 36.0999
245.972 26.7998
246.076 20.8564
246.179 16.8208
246.386 11.8176
246.592 8.93669
246.799 7.11779
247.005 5.89454
247.418 4.42154
247.625 3.99320
247.832 3.74220
248.038 3.74631
248.141 3.93475
248.245 4.39793
248.348 5.49087
248.400 6.57166
248.451 8.43167
248.503 11.9592
248.529 14.9864
248.555 19.6446
248.580 27.2560
248.606 40.6638
248.632 66.4427
248.645 88.1404
248.658 119.168
248.679 191.417
248.700 241.414
248.721 195.712
248.742 124.510
248.763 79.4857
248.783 53.5827
248.803 38.3213
248.824 28.8301
248.865 18.3232
248.905 13.0052
248.946 9.95716
248.987 8.04684
249.069 5.86455
249.150 4.69754
249.232 3.98930
249.395 3.18611
249.558 2.74390
249.721 2.46011
250.048 2.10501
250.700 1.71613
251.353 1.48242
252.659 1.18765
253.964 1.01684
255.269 0.997313
255.922 1.12158
256.575 1.48687
256.901 1.86493
257.228 2.50953
257.554 3.66749
257.717 4.59717
257.880 5.92812
258.043 7.90610
258.207 10.9854
258.370 16.0891
258.533 25.3107
258.615 32.9357
258.696 44.2844
258.778 62.1322
258.859 92.3423
258.941 149.003
258.982 197.644
259.023 272.670
259.063 395.922
259.104 615.115
259.145 1043.18
259.165 1409.02
259.186 1935.46
259.218 3127.80
259.250 3949.38
259.282 3193.34
259.314 2017.62
259.341 1358.58
259.368 947.548
259.394 688.984
259.421 520.245
259.474 324.701
259.527 221.759
259.580 161.254
259.634 122.869
259.740 78.8052
259.846 55.3532
259.953 41.3869
260.059 32.3585
260.165 26.1783
260.378 18.4480
260.591 13.9464
260.803 11.0732
261.016 9.11468
261.016 9.11305
261.017 9.10920
261.017 9.10612
261.018 9.09920
261.020 9.08615
261.023 9.06016
261.030 9.00783
261.044 8.90483
261.071 8.70592
261.126 8.33184
261.236 7.66648
261.456 6.59823
261.897 5.14103
262.337 4.20385
262.777 3.55465
263.658 2.71469
264.538 2.18922
266.299 1.54161
268.060 1.13157
269.821 0.874406
270.701 0.849696
271.141 0.896930
271.582 1.01826
272.022 1.26761
272.462 1.75182
272.682 2.14559
272.902 2.70248
273.122 3.50396
273.342 4.68598
273.563 6.48866
273.783 9.35985
274.003 14.2199
274.223 23.1798
274.333 30.6841
274.443 41.9391
274.553 59.8035
274.663 90.2586
274.773 147.889
274.828 197.596
274.883 274.559
274.938 401.782
274.993 628.685
275.048 1073.95
275.076 1456.04
275.103 2011.11
275.147 3270.39
275.190 4149.98
275.233 3369.20
275.277 2138.72
275.307 1525.83
275.338 1116.52
275.369 841.642
275.399 653.881
275.461 424.586
275.522 297.715
275.583 220.666
275.644 170.688
275.767 111.843
275.889 79.8148
276.012 60.4095
276.134 47.7224
276.257 38.9437
276.502 27.8439
276.747 21.3033
276.992 17.0884
277.237 14.1920
277.727 10.5362
278.217 8.36843
278.707 6.95461
279.197 5.96856
280.177 4.69274
281.157 3.90637
283.118 2.98305
285.078 2.44609
287.038 2.08213
290.958 1.58952
294.879 1.24496
296.839 1.11047
298.799 1.01171
300.759 0.987420
301.739 1.03771
302.720 1.18211
303.700 1.54426
304.190 1.91769
304.680 2.60052
305.170 4.05293
305.415 5.49194
305.660 8.09852
305.782 10.2755
305.905 13.5622
306.027 18.8433
306.150 28.0710
306.211 35.4879
306.272 46.2345
306.334 62.6321
306.395 89.1743
306.456 136.007
306.487 173.680
306.517 228.245
306.548 310.892
306.579 441.029
306.609 655.584
306.640 1014.84
306.675 1645.67
306.710 2086.64
306.745 1695.12
306.780 1076.83
306.816 669.820
306.851 441.699
306.887 309.659
306.922 228.584
306.958 175.767
306.993 139.849
307.064 95.5881
307.136 70.4603
307.207 54.9169
307.349 37.5250
307.491 28.6178
307.633 23.5778
307.917 18.7724
308.201 17.2966
308.485 17.6177
309.053 22.5372
309.337 27.7117
309.621 35.9002
309.906 49.2287
310.190 72.2914
310.474 116.299
310.616 154.552
310.758 214.103
310.900 313.227
311.042 492.389
311.113 639.043
311.184 851.322
311.255 1165.22
311.326 1628.52
311.433 2636.55
311.540 3335.30
311.647 2701.68
311.754 1710.50
311.824 1249.61
311.894 931.824
312.034 560.096
312.174 369.099
312.313 260.904
312.453 194.389
312.593 150.772
312.873 99.0427
313.152 70.6882
313.432 53.4534
313.991 34.3366
314.550 24.4269
315.110 18.5642
315.669 14.7592
316.228 12.1091
316.228 12.1084
316.229 12.1056
316.229 12.1032
316.231 12.0984
316.233 12.0887
316.238 12.0691
316.248 12.0300
316.267 11.9525
316.306 11.8002
316.385 11.5044
316.541 10.9471
316.854 9.95178
317.168 9.08968
317.481 8.34937
317.794 7.77579
317.950 7.62078
318.107 7.68876
318.264 8.34443
318.342 9.22955
318.420 11.0149
318.498 14.9161
318.538 18.6397
318.577 24.8522
318.616 36.1034
318.635 45.3000
318.655 58.6430
318.675 78.9622
318.694 110.897
318.704 133.914
318.714 163.662
318.723 202.192
318.733 251.114
318.745 326.815
318.757 415.051
318.780 537.980
318.792 516.380
318.804 448.310
318.827 293.533
318.850 189.651
318.874 130.055
318.897 94.7142
318.921 72.7323
318.944 58.1551
318.968 48.1038
319.015 35.4330
319.061 28.0405
319.108 23.3240
319.202 17.8033
319.296 14.7556
319.390 12.8539
319.577 10.6270
319.765 9.35838
319.953 8.52540
320.328 7.46266
320.703 6.77874
321.078 6.27872
321.828 5.56007
323.329 4.64016
324.830 4.03666
327.831 3.25152
330.833 2.73681
333.834 2.34912
335.335 2.18073
336.836 2.02332
338.337 1.88244
339.087 1.83092
339.837 1.82123
340.213 1.85434
340.588 1.94350
340.963 2.14703
341.338 2.61041
341.526 3.05046
341.713 3.77085
341.901 5.02273
342.088 7.39687
342.182 9.43091
342.276 12.5461
342.370 17.6114
342.464 26.5498
342.511 33.7728
342.557 44.3023
342.604 60.4206
342.651 86.7114
342.698 133.407
342.722 171.432
342.745 226.725
342.769 311.423
342.792 446.518
342.815 673.411
342.839 1062.07
342.864 1721.65
342.890 2177.27
342.916 1762.20
342.941 1116.19
342.958 824.020
342.974 619.703
343.006 377.034
343.039 250.393
343.071 177.935
343.103 133.095
343.136 103.560
343.201 68.3897
343.265 49.0553
343.330 37.2833
343.460 24.2317
343.589 17.4910
343.719 13.5306
343.849 10.9901
343.978 9.25415
344.237 7.07794
344.496 5.80068
344.756 4.97602
345.015 4.40618
345.533 3.67723
346.051 3.23430
346.570 2.93680
347.088 2.72233
348.125 2.42988
349.162 2.23482
351.235 1.97749
353.308 1.80237
355.382 1.66633
359.528 1.45158
363.675 1.27465
367.822 1.11620
369.895 1.04226
371.968 0.977734
373.005 0.960216
373.523 0.964466
374.042 0.992051
374.560 1.08189
374.819 1.18696
375.078 1.39342
375.208 1.57416
375.338 1.85530
375.467 2.32088
375.597 3.16204
375.662 3.85866
375.726 4.89811
375.791 6.54024
375.856 9.34173
375.921 14.6696
375.953 19.3161
375.986 26.6070
376.018 38.8877
376.050 61.5787
376.067 80.5512
376.083 108.666
376.099 151.416
376.115 216.022
376.138 347.618
376.160 437.386
376.183 352.403
376.205 222.002
376.219 165.573
376.232 125.829
376.259 77.6655
376.286 52.0123
376.313 37.1498
376.340 27.8825
376.367 21.7507
376.421 14.4271
376.475 10.3918
376.529 7.94416
376.637 5.24127
376.745 3.85471
376.853 3.04754
376.961 2.53385
377.069 2.18526
377.285 1.75262
377.501 1.50156
377.934 1.22969
378.366 1.08754
378.798 0.999881
379.662 0.894219
381.391 0.781678
383.119 0.716869
383.119 0.716965
383.120 0.716951
383.120 0.716937
383.121 0.716909
383.123 0.716855
383.127 0.716748
383.134 0.716534
383.150 0.716108
383.180 0.715261
383.241 0.713599
383.363 0.710395
383.607 0.704492
384.094 0.694873
385.069 0.686707
386.044 0.701896
387.019 0.764248
387.995 0.943563
388.482 1.14156
388.970 1.51761
389.213 1.84001
389.457 2.33538
389.701 3.14795
389.945 4.60921
390.067 5.81958
390.188 7.63277
390.310 10.5219
390.432 15.5254
390.554 25.3340
390.615 34.1994
390.676 48.6358
390.737 74.4634
390.767 95.6447
390.798 126.811
390.828 175.289
390.859 254.605
390.889 393.271
390.920 641.325
390.950 1026.59
390.980 1284.19
391.010 1028.88
391.040 644.209
391.067 422.301
391.093 287.998
391.119 205.613
391.145 152.906
391.198 93.1060
391.250 62.2821
391.302 44.5113
391.355 33.3910
391.460 20.8307
391.564 14.2779
391.669 10.4438
391.774 8.00538
391.879 6.36184
392.088 4.34891
392.298 3.20996
392.717 2.03515
393.136 1.47466
393.555 1.16909
394.393 0.890428
395.231 0.847822
395.650 0.915918
396.069 1.09564
396.278 1.26566
396.488 1.53853
396.592 1.73795
396.697 2.00219
396.802 2.36147
396.907 2.86369
397.011 3.59361
397.116 4.70346
397.221 6.50181
397.273 7.84446
397.326 9.66470
397.378 12.2222
397.430 15.9542
397.483 21.6786
397.535 31.0250
397.588 47.7408
397.614 61.3976
397.640 81.4569
397.666 112.286
397.692 162.197
397.719 247.331
397.745 395.212
397.772 639.349
397.800 808.603
397.828 655.161
397.855 415.005
397.880 273.699
397.904 188.047
397.928 135.431
397.953 101.701
398.001 63.2831
398.050 43.3829
398.098 31.8000
398.147 24.5016
398.244 16.1814
398.341 11.7887
398.438 9.19588
398.633 6.42309
398.827 5.07329
399.021 4.34891
399.410 3.74744
399.798 3.69878
400.187 3.98397
400.964 5.51554
401.352 6.97274
401.741 9.24363
402.129 12.9464
402.518 19.4617
402.712 24.7259
402.907 32.4266
403.101 44.3272
403.295 64.1265
403.489 100.776
403.586 132.042
403.684 180.269
403.781 260.064
403.878 404.125
403.926 522.498
403.975 694.856
404.024 952.829
404.072 1336.97
404.141 2116.27
404.210 2613.20
404.279 2060.11
404.348 1266.93
404.412 794.186
404.476 520.769
404.540 359.173
404.604 258.762
404.668 193.156
404.731 148.366
404.859 93.4879
404.987 62.8127
405.115 44.3277
405.242 32.6903
405.370 25.4075
405.498 21.3296
405.562 20.3847
405.626 20.2132
405.690 20.9269
405.722 21.6757
405.754 22.7278
405.786 24.1365
405.817 25.9526
405.849 28.2558
405.881 31.1441
405.945 39.2374
406.009 51.8077
406.073 71.7053
406.137 104.330
406.201 161.079
406.233 205.561
406.265 267.580
406.297 356.825
406.328 487.728
406.360 684.101
406.392 978.575
406.441 1654.18
406.490 2181.69
406.539 1838.62
406.588 1208.70
406.627 850.348
406.666 617.823
406.705 465.848
406.744 363.894
406.822 241.227
406.899 173.677
406.977 132.540
407.055 105.529
407.211 73.0878
407.367 54.8117
407.523 43.3265
407.834 29.9601
408.146 22.5602
408.457 17.9266
409.080 12.5112
409.704 9.48890
410.327 7.58258
411.573 5.33847
412.819 4.07507
414.065 3.27001
416.558 2.30227
419.050 1.73337
421.543 1.34884
426.528 0.835339
431.513 0.482999
434.005 0.345460
436.498 0.242234
437.744 0.214194
438.367 0.210648
438.990 0.217588
439.613 0.239377
440.237 0.282841
440.860 0.359105
441.171 0.415000
441.483 0.487101
441.794 0.580222
442.106 0.700936
442.418 0.858529
442.729 1.06632
443.041 1.34428
443.352 1.72250
443.664 2.24921
443.975 3.00344
444.287 4.12434
444.598 5.87008
444.910 8.76928
445.221 14.0268
445.377 18.3891
445.533 24.9068
445.689 35.2122
445.845 52.7781
446.000 86.1425
446.078 115.154
446.156 160.501
446.234 236.413
446.312 375.255
446.351 490.276
446.390 658.498
446.429 910.791
446.468 1289.10
446.524 2082.41
446.580 2627.75
446.636 2121.93
446.692 1338.65
446.727 996.842
446.761 755.442
446.829 463.911
446.897 308.998
446.965 219.581
447.034 163.806
447.102 126.972
447.238 82.9590
447.375 58.6986
447.511 43.9394
447.784 27.6009
448.057 19.2004
448.330 14.2979
448.603 11.1762
448.876 9.06014
449.422 6.44902
449.968 4.95886
451.059 3.43060
452.151 2.76108
453.242 2.50533
454.334 2.52550
455.426 2.79944
456.517 3.37966
457.609 4.40777
458.701 6.18721
459.792 9.38565
460.884 15.6552
461.430 21.1934
461.976 29.9408
462.522 44.7917
463.067 72.6833
463.340 96.6408
463.613 133.615
463.886 194.442
464.159 303.071
464.159 303.178
464.160 303.502
464.160 303.827
464.162 304.477
464.164 305.729
464.169 308.310
464.178 313.506
464.197 324.329
464.234 347.578
464.309 401.383
464.458 548.527
464.608 775.303
464.757 1125.68
464.959 1821.57
465.160 2302.36
465.362 1863.27
465.563 1178.37
465.734 786.409
465.904 544.728
466.075 394.135
466.246 296.600
466.587 184.260
466.928 125.407
467.270 91.0006
467.611 69.2167
468.294 44.2146
468.976 30.9190
469.659 22.9862
471.024 14.3334
472.390 9.92602
473.755 7.36829
476.486 4.72889
479.216 3.77079
480.582 3.83071
481.947 4.46904
483.312 6.34197
483.995 8.33914
484.677 11.9858
485.360 19.5073
485.701 26.6199
486.043 38.8054
486.384 62.3040
486.555 83.2109
486.725 116.823
486.896 175.802
487.067 292.355
487.152 397.449
487.237 565.354
487.323 847.799
487.408 1333.01
487.499 2124.14
487.590 2643.16
487.681 2102.66
487.772 1306.42
487.849 859.967
487.926 587.558
488.003 419.300
488.080 311.255
488.233 188.084
488.387 124.460
488.541 87.7768
488.694 64.8824
489.002 39.1105
489.309 25.7755
489.617 18.0371
489.924 13.1705
490.232 9.92777
490.846 6.05800
491.461 4.00831
492.076 2.92156
492.691 2.47315
492.999 2.45736
493.306 2.58730
493.613 2.88330
493.921 3.38122
494.228 4.13979
494.536 5.25101
494.843 6.86273
495.151 9.21712
495.458 12.7292
495.765 18.1428
496.073 26.9062
496.380 42.0797
496.688 71.0465
496.842 96.1065
496.995 134.847
497.149 198.366
497.303 310.386
497.456 525.180
497.533 705.296
497.610 961.705
497.740 1586.86
497.870 2044.35
498.000 1683.22
498.130 1082.50
498.247 716.537
498.364 495.294
498.481 359.638
498.598 272.744
498.831 173.492
499.065 121.821
499.299 91.7291
499.533 72.7982
500.000 51.5348
500.629 38.9257
501.259 34.9222
501.888 36.7640
502.518 45.5042
503.147 67.0759
503.462 87.8053
503.776 122.184
504.091 183.519
504.406 305.235
504.563 414.045
504.720 585.564
504.878 867.658
505.035 1338.39
505.218 2174.87
505.400 2763.30
505.583 2247.81
505.765 1429.72
505.934 927.094
506.102 629.786
506.271 450.546
506.439 337.133
506.776 209.367
507.113 143.615
507.450 105.487
507.787 81.4112
508.461 53.7158
509.136 38.8491
509.810 29.8457
511.158 19.7501
512.506 14.3278
513.854 10.9155
514.528 9.60750
514.865 9.02230
515.202 8.49100
515.540 8.07314
515.708 7.97924
515.877 8.09820
516.045 8.79561
516.129 9.69901
516.214 11.5038
516.298 15.4363
516.340 19.1812
516.382 25.4544
516.424 36.8539
516.445 46.2068
516.466 59.8326
516.488 80.6776
516.509 113.667
516.530 168.623
516.551 260.669
516.575 429.588
516.600 556.563
516.612 534.264
516.625 464.159
516.649 303.861
516.673 198.913
516.697 137.472
516.721 100.750
516.745 77.6141
516.769 62.2478
516.793 51.5625
516.841 38.0744
516.889 30.1800
516.937 25.1359
517.033 19.2343
517.129 15.9762
517.225 13.9484
517.417 11.5851
517.609 10.2460
517.801 9.37100
518.185 8.25619
518.569 7.53442
518.953 6.99909
519.721 6.20614
521.256 5.11780
522.792 4.33542
525.863 3.22133
528.934 2.49419
532.005 2.20579
533.540 2.39566
535.076 3.13635
535.844 3.93443
536.612 5.29753
537.379 7.71627
538.147 12.3248
538.531 16.2539
538.915 22.2189
539.299 31.7818
539.683 48.2845
540.066 79.9284
540.258 107.603
540.450 150.960
540.642 223.691
540.834 356.606
540.930 466.399
541.026 626.797
541.122 866.849
541.218 1225.16
541.359 1991.94
541.500 2529.60
541.641 2055.73
541.782 1305.22
541.943 767.084
542.103 485.041
542.264 330.155
542.425 238.422
542.585 180.233
542.746 141.244
543.067 93.9633
543.388 67.4792
543.710 51.1434
544.352 32.7720
544.994 23.1244
545.637 17.3722
546.922 11.0291
548.207 7.69536
549.492 5.66596
552.062 3.33418
554.631 2.09820
555.916 1.75414
557.201 1.60947
558.486 1.73915
559.771 2.31007
560.414 2.86064
561.056 3.68196
561.699 4.89261
562.341 6.67950
562.341 6.68013
562.342 6.68249
562.343 6.68485
562.344 6.68957
562.347 6.69903
562.352 6.71799
562.363 6.75578
562.386 6.83249
562.430 6.98916
562.520 7.31598
562.698 8.02728
563.055 9.72103
563.768 14.6159
564.481 22.8602
565.195 37.6966
565.551 49.7235
565.908 67.1479
566.265 93.4116
566.621 135.010
566.978 205.265
567.335 333.930
567.513 439.826
567.691 593.714
567.870 821.782
568.048 1159.31
568.324 1927.88
568.600 2502.33
568.876 2078.24
569.152 1348.00
569.321 1019.14
569.490 783.444
569.827 495.208
570.165 339.642
570.502 248.304
570.840 190.519
571.177 151.738
571.852 104.445
572.527 77.6479
573.203 60.8844
574.553 41.6415
575.903 31.2377
577.253 24.8627
578.603 20.6068
579.953 17.5833
582.654 13.5831
585.354 11.0243
586.704 10.0265
588.054 9.11149
588.729 8.64850
589.067 8.40496
589.404 8.14953
589.742 7.89128
589.911 7.78101
590.079 7.72998
590.164 7.76194
590.248 7.87997
590.333 8.17126
590.417 8.84078
590.501 10.4532
590.544 12.0838
590.586 14.9294
590.628 20.3093
590.670 31.7217
590.691 42.4887
590.702 50.2587
590.712 60.2731
590.723 73.5982
590.733 91.1771
590.744 114.672
590.754 145.843
590.766 189.721
590.777 241.790
590.800 316.964
590.811 306.718
590.823 268.681
590.846 179.443
590.860 137.258
590.875 107.213
590.904 70.8629
590.932 51.3540
590.961 39.9046
590.990 32.6281
591.019 27.7449
591.077 21.7471
591.135 18.3044
591.193 16.1277
591.308 13.5794
591.424 12.1631
591.540 11.2698
591.656 10.6555
591.771 10.2056
592.003 9.58401
592.234 9.16576
592.697 8.61304
593.160 8.23885
593.622 7.95062
594.548 7.50313
596.399 6.83941
598.250 6.31696
600.102 5.87051
601.953 5.47254
602.878 5.28815
603.341 5.20141
603.804 5.12325
604.267 5.06947
604.498 5.06811
604.730 5.11286
604.845 5.17192
604.961 5.27998
605.077 5.48004
605.192 5.87158
605.308 6.72531
605.366 7.55593
605.424 8.98832
605.482 11.7320
605.511 14.1153
605.540 17.8270
605.568 23.9883
605.597 35.0781
605.626 57.0656
605.641 76.1895
605.655 103.990
605.678 166.790
605.700 211.022
605.723 172.674
605.745 111.703
605.761 80.9000
605.777 60.3495
605.793 46.6464
605.809 37.2822
605.842 25.8970
605.874 19.6146
605.906 15.7926
605.938 13.3080
606.002 10.3824
606.067 8.77937
606.131 7.80307
606.260 6.70874
606.388 6.13015
606.517 5.77906
606.646 5.54469
606.775 5.37679
607.032 5.14942
607.289 4.99807
607.804 4.79574
608.319 4.65282
608.834 4.53668
609.863 4.34182
611.922 4.01290
613.981 3.71560
618.099 3.14913
622.217 2.56733
626.335 1.91150
628.394 1.53669
630.453 1.13315
631.483 0.936044
632.512 0.773039
633.542 0.715297
634.056 0.778035
634.571 0.962701
634.828 1.12767
635.086 1.36404
635.343 1.69814
635.601 2.16791
635.858 2.83027
636.115 3.77131
636.373 5.12680
636.630 7.11802
636.887 10.1273
637.145 14.8460
637.402 22.6250
637.660 36.3560
637.788 47.3424
637.917 63.1032
638.046 86.6013
638.174 123.359
638.303 184.444
638.432 293.945
638.496 382.342
638.560 508.411
638.625 691.339
638.689 955.939
638.795 1588.21
638.900 2059.45
639.006 1706.02
639.111 1103.24
639.178 823.725
639.245 626.595
639.379 390.264
639.513 265.259
639.648 192.802
639.782 147.391
639.916 117.105
640.184 80.4220
640.452 59.7746
640.720 46.9276
641.257 32.2594
641.793 24.3841
642.330 19.5977
642.866 16.4397
643.403 14.2412
644.475 11.5527
645.012 10.8499
645.548 10.6587
646.085 11.4433
646.353 12.6610
646.621 15.1763
646.889 20.7590
647.023 26.1928
647.158 35.5525
647.292 53.3494
647.359 68.7628
647.426 92.6172
647.493 132.036
647.560 202.306
647.627 340.256
647.660 458.301
647.694 629.532
647.747 1019.55
647.800 1292.53
647.853 1051.31
647.906 670.190
647.949 457.750
647.992 324.201
648.036 239.241
648.079 183.520
648.165 118.320
648.251 83.6174
648.338 63.1040
648.424 49.9928
648.596 34.7856
648.769 26.5782
648.942 21.6141
649.287 16.0809
649.632 13.1580
649.977 11.3807
650.667 9.33542
651.357 8.17803
652.048 7.41538
653.428 6.43065
654.809 5.78353
656.189 5.30038
656.879 5.10763
657.225 5.03367
657.570 4.99677
657.915 5.06136
658.087 5.19514
658.260 5.50384
658.346 5.79304
658.433 6.25686
658.519 7.03894
658.605 8.45653
658.691 11.3341
658.735 13.9771
658.778 18.2951
658.821 25.9838
658.864 41.2174
658.886 54.8954
658.907 76.4144
658.929 112.075
658.950 171.496
658.975 277.728
659.000 353.212
659.025 289.540
659.050 186.822
659.066 140.032
659.081 107.265
659.113 67.8354
659.144 47.0373
659.175 35.0326
659.206 27.5462
659.238 22.5799
659.300 16.6174
659.363 13.2910
659.425 11.2434
659.550 8.93022
659.676 7.70399
659.801 6.96338
659.926 6.47404
660.051 6.12868
660.301 5.67404
660.551 5.38615
661.052 5.03160
661.552 4.80901
662.053 4.64632
663.053 4.40525
664.054 4.21938
665.055 4.06620
665.556 4.00750
665.806 3.99068
666.056 3.99586
666.306 4.05988
666.431 4.14868
666.556 4.33228
666.682 4.74854
666.744 5.16330
666.807 5.89184
666.869 7.31872
666.901 8.58652
666.932 10.5935
666.963 14.0260
666.994 20.4533
667.010 25.9027
667.026 33.9890
667.041 46.3748
667.057 65.3947
667.078 104.304
667.100 131.903
667.122 108.285
667.143 70.3675
667.157 52.8617
667.171 40.7323
667.199 26.3373
667.226 18.8023
667.254 14.5028
667.282 11.8265
667.309 10.0650
667.364 7.95505
667.420 6.78280
667.475 6.06239
667.585 5.25203
667.696 4.82236
667.807 4.56256
668.028 4.26745
668.249 4.10371
668.470 3.99730
668.912 3.86027
669.354 3.76821
669.796 3.69650
670.680 3.58176
672.449 3.40015
674.218 3.24561
677.755 2.97237
681.292 2.72179
681.292 2.72185
681.293 2.72182
681.293 2.72178
681.294 2.72172
681.296 2.72160
681.299 2.72135
681.307 2.72084
681.321 2.71984
681.350 2.71784
681.409 2.71382
681.525 2.70581
681.758 2.68983
682.223 2.65809
683.154 2.59582
684.085 2.53696
685.016 2.48744
685.948 2.46769
686.413 2.49002
686.879 2.57111
687.111 2.65870
687.344 2.80952
687.577 3.08020
687.810 3.60376
687.926 4.05685
688.042 4.75454
688.159 5.89458
688.275 7.91467
688.392 11.9572
688.450 15.6538
688.508 21.7293
688.566 32.6440
688.595 41.6141
688.624 54.8659
688.653 75.3922
688.683 108.983
688.712 167.140
688.741 270.133
688.770 435.488
688.800 549.643
688.830 445.024
688.859 282.058
688.885 187.312
688.911 129.535
688.937 93.8650
688.962 70.9129
689.014 44.6798
689.065 31.0458
689.116 23.0940
689.168 18.0745
689.270 12.3365
689.373 9.29128
689.476 7.47900
689.579 6.30735
689.681 5.50283
689.887 4.49191
690.092 3.89771
690.298 3.51365
690.503 3.24776
690.914 2.90579
691.325 2.69616
692.147 2.45821
692.969 2.37331
693.380 2.41348
693.791 2.58415
693.996 2.77195
694.202 3.09721
694.407 3.68306
694.613 4.81811
694.715 5.80034
694.818 7.30761
694.921 9.75714
695.023 14.0584
695.126 22.5103
695.178 30.0725
695.229 42.1684
695.280 63.1226
695.332 103.125
695.357 137.740
695.383 190.622
695.409 274.109
695.434 406.201
695.467 660.316
695.500 838.514
695.533 682.358
695.566 434.783
695.592 298.728
695.618 212.390
695.644 156.872
695.670 120.259
695.723 77.0750
695.775 53.9719
695.827 40.2291
695.879 31.4401
695.984 21.2153
696.088 15.7048
696.193 12.3813
696.297 10.2118
696.402 8.71030
696.611 6.80661
696.820 5.67765
697.029 4.94358
697.238 4.43361
697.656 3.77779
698.074 3.37657
698.910 2.90759
699.746 2.63372
700.582 2.44533
702.254 2.18108
703.927 1.98073
704.763 1.89222
705.599 1.81239
706.435 1.75560
706.853 1.75323
707.271 1.80110
707.480 1.86669
707.689 1.98960
707.898 2.22307
708.107 2.69369
708.211 3.10998
708.316 3.75921
708.420 4.83128
708.525 6.74832
708.629 10.5997
708.682 14.1261
708.734 19.8941
708.786 30.2056
708.812 38.5922
708.838 50.8615
708.865 69.6940
708.891 99.8245
708.917 150.578
708.943 237.796
708.972 385.979
709.000 489.543
709.029 398.194
709.057 253.754
709.084 164.438
709.110 111.698
709.137 79.9792
709.163 60.0129
709.216 37.4838
709.269 25.9452
709.322 19.2656
709.375 15.0699
709.481 10.2672
709.587 7.71391
709.693 6.18473
709.798 5.18958
709.904 4.50160
710.116 3.62589
710.328 3.10135
710.751 2.50908
711.175 2.18052
711.598 1.96522
712.445 1.68398
713.292 1.51160
713.716 1.47929
714.139 1.53953
714.351 1.64749
714.563 1.86507
714.775 2.29851
714.986 3.20209
715.092 4.01678
715.198 5.30085
715.304 7.43803
715.357 9.05613
715.410 11.2707
715.463 14.3982
715.516 18.9593
715.569 25.9456
715.622 37.2436
715.675 57.0453
715.701 72.8401
715.728 95.3598
715.754 128.885
715.780 180.344
715.807 262.737
715.833 394.802
715.867 647.950
715.900 830.051
715.933 680.606
715.967 436.609
716.006 256.033
716.045 162.518
716.084 111.371
716.123 81.2505
716.162 62.1188
716.201 49.3153
716.279 33.7427
716.357 24.9663
716.435 19.5214
716.591 13.3525
716.748 10.0764
716.904 8.10657
717.060 6.81455
717.216 5.91380
717.528 4.75446
717.841 4.04943
718.153 3.57874
718.465 3.24289
719.090 2.79386
719.714 2.50414
720.963 2.14060
722.212 1.90844
723.461 1.73646
725.960 1.47549
730.956 1.07278
735.952 0.708001
740.949 0.358444
743.447 0.223213
744.072 0.202033
744.696 0.189617
745.321 0.189011
745.945 0.204406
746.570 0.241642
747.194 0.308952
747.819 0.418227
748.443 0.586855
749.068 0.841111
749.693 1.22149
750.317 1.79310
750.942 2.66408
751.566 4.02464
752.191 6.22846
752.815 9.99157
753.440 16.9175
753.752 22.6636
754.064 31.1770
754.377 44.3954
754.689 66.1973
755.001 105.227
755.157 137.007
755.314 183.322
755.470 253.676
755.626 365.282
755.782 550.146
755.938 861.181
756.119 1420.42
756.300 1829.71
756.481 1508.76
756.662 971.980
756.839 623.042
757.015 420.472
757.192 300.263
757.368 225.049
757.721 141.067
758.074 98.1826
758.427 73.5218
758.780 58.1771
759.485 41.4849
760.191 34.9659
760.544 34.8599
760.897 37.8175
761.250 46.6802
761.427 55.6800
761.603 70.9401
761.780 98.6621
761.956 154.660
762.044 205.632
762.132 287.374
762.221 425.059
762.309 661.546
762.404 1056.26
762.500 1325.04
762.596 1069.54
762.691 677.803
762.781 436.372
762.871 295.736
762.960 211.945
763.050 159.414
763.230 100.795
763.409 70.9272
763.589 53.7047
763.768 42.8637
764.127 30.3887
764.486 23.6416
764.844 19.5008
765.562 14.7338
766.280 12.0693
766.998 10.3520
768.433 8.22882
769.869 6.93597
771.304 6.04894
774.175 4.88775
777.046 4.14551
779.917 3.61823
782.788 3.20567
783.505 3.10965
784.223 3.01320
784.582 2.96866
784.761 2.95259
784.941 2.95055
785.120 2.99098
785.210 3.05461
785.300 3.19265
785.389 3.51444
785.434 3.83718
785.479 4.39982
785.524 5.47804
785.546 6.40486
785.569 7.82509
785.591 10.1323
785.614 14.0912
785.636 21.4009
785.647 27.3073
785.658 35.4895
785.669 45.4879
785.679 57.2374
785.700 73.5903
785.721 61.6463
785.742 40.9943
785.759 29.1953
785.776 21.7107
785.793 16.8807
785.809 13.6937
785.843 9.90863
785.877 7.86420
785.911 6.63189
785.945 5.83244
786.013 4.88714
786.080 4.36264
786.148 4.03776
786.284 3.66367
786.419 3.45768
786.555 3.32752
786.826 3.17002
787.368 3.00753
787.910 2.91266
788.994 2.78534
790.077 2.69033
794.413 2.42605
803.085 2.20496
807.420 2.26055
811.756 2.49632
813.924 2.71893
816.092 3.04933
817.176 3.28248
817.718 3.43843
818.260 3.66223
818.802 4.08216
819.073 4.49909
819.344 5.29099
819.615 7.07839
819.750 8.91306
819.886 12.2719
820.021 19.2186
820.089 25.7245
820.157 36.5643
820.225 56.3214
820.258 72.6769
820.292 96.8283
820.326 134.352
820.360 195.355
820.394 300.430
820.428 484.663
820.464 797.021
820.500 1026.18
820.536 847.192
820.572 547.433
820.610 342.415
820.648 228.093
820.686 162.011
820.723 121.584
820.761 95.2038
820.799 77.2030
820.874 54.8633
820.950 42.0702
821.025 34.0531
821.176 24.9183
821.327 20.0948
821.478 17.2473
821.780 14.2498
822.082 12.8895
822.384 12.2899
822.988 12.2436
823.592 13.1482
824.196 14.9118
824.800 17.8318
825.404 22.7364
825.404 22.7385
825.405 22.7449
825.405 22.7513
825.407 22.7641
825.409 22.7897
825.414 22.8411
825.423 22.9447
825.443 23.1548
825.481 23.5875
825.558 24.5045
825.711 26.5778
826.018 31.9945
826.325 40.0389
826.632 52.8566
826.939 75.4183
827.092 93.9147
827.246 121.478
827.399 165.234
827.552 240.212
827.706 381.115
827.783 497.819
827.859 662.379
827.980 1012.44
828.100 1207.63
828.220 921.205
828.341 548.870
828.413 396.049
828.486 290.408
828.558 217.615
828.630 166.680
828.775 103.658
828.920 68.6953
829.065 47.7879
829.209 34.5422
829.354 25.7536
829.499 19.7085
829.789 12.3126
830.078 8.29552
830.368 5.99663
830.657 4.64979
830.947 3.86631
831.236 3.43525
831.815 3.19160
832.973 3.89936
834.132 5.38424
835.290 7.45601
837.606 13.9845
838.764 19.2368
839.922 26.8640
841.080 38.4718
842.239 57.1938
843.397 89.7439
844.555 152.187
845.134 206.094
845.713 288.170
846.292 417.071
846.871 620.672
847.636 1026.08
848.400 1322.99
849.165 1090.40
849.929 701.760
850.411 523.677
850.892 397.865
851.855 246.632
852.818 166.529
853.782 120.092
854.745 91.0054
855.708 71.6233
857.634 48.1766
859.560 34.9999
861.486 26.7964
865.339 17.3889
869.191 12.2443
873.044 8.97420
874.970 7.71233
876.896 6.59526
877.859 6.07673
878.341 5.83083
878.822 5.60553
879.304 5.43810
879.545 5.41440
879.785 5.49747
880.026 5.85953
880.147 6.30235
880.267 7.16935
880.387 9.04450
880.448 10.8472
880.508 13.9244
880.568 19.7056
880.598 24.6485
880.628 32.2179
880.658 44.4978
880.688 65.8881
880.718 106.283
880.733 139.556
880.748 186.419
880.774 300.911
880.800 381.732
880.826 311.519
880.852 199.653
880.868 149.702
880.884 114.632
880.915 72.2890
880.947 49.8794
880.979 36.9542
881.011 28.8574
881.043 23.4860
881.107 17.0386
881.170 13.4422
881.234 11.2265
881.362 8.71449
881.489 7.36809
881.617 6.53919
881.872 5.56371
882.127 4.98280
882.382 4.56911
882.892 3.95050
883.402 3.46054
883.657 3.27609
883.912 3.21127
884.167 3.51881
884.294 4.06308
884.422 5.28510
884.485 6.41108
884.549 8.18264
884.581 9.45099
884.613 11.0954
884.645 13.2602
884.677 16.1514
884.708 20.1212
884.740 25.6986
884.772 33.7787
884.804 45.8781
884.836 64.9304
884.868 96.2849
884.900 150.947
884.931 247.980
884.966 417.156
885.000 548.996
885.034 462.756
885.069 304.950
885.102 201.314
885.134 139.727
885.167 102.472
885.200 78.7713
885.233 62.9028
885.266 51.7921
885.332 37.6507
885.398 29.2936
885.463 23.9118
885.595 17.5601
885.727 14.0251
885.858 11.8149
886.121 9.23693
886.384 7.78679
886.648 6.85238
887.174 5.69277
887.700 4.96879
888.226 4.44631
889.279 3.68315
891.384 2.58787
893.489 1.68249
895.594 0.891525
896.646 0.617183
897.173 0.563915
897.436 0.574755
897.699 0.621491
897.962 0.716202
898.225 0.875576
898.488 1.12347
898.752 1.49393
899.015 2.03774
899.278 2.83085
899.541 3.99245
899.804 5.71480
900.067 8.32319
900.330 12.3913
900.593 19.0100
900.857 30.4181
901.120 51.7363
901.251 69.6365
901.383 96.3364
901.514 137.952
901.646 205.924
901.778 322.595
901.909 526.886
902.055 889.245
902.200 1170.83
902.346 985.791
902.491 647.705
902.664 387.367
902.837 250.503
903.010 175.053
903.183 130.046
903.356 101.204
903.529 81.6420
903.875 57.5113
904.221 43.6536
904.567 34.9001
905.259 24.7651
905.950 19.2907
906.642 16.0282
908.026 12.8816
909.410 12.9000
910.102 14.5320
910.794 18.3743
911.485 27.1836
911.831 35.7319
912.177 50.2373
912.523 77.0658
912.696 99.5659
912.869 133.297
913.042 186.483
913.215 275.280
913.388 433.168
913.561 723.085
913.731 1179.24
913.900 1504.41
914.070 1229.43
914.239 785.797
914.408 496.330
914.576 331.163
914.745 234.442
914.913 174.512
915.081 135.206
915.250 108.193
915.587 74.5325
915.924 55.1217
916.261 42.8619
916.934 28.6303
917.608 20.7546
917.945 18.0058
918.282 15.7920
918.619 14.1606
918.788 13.7353
918.956 13.9251
919.124 15.6714
919.209 17.9689
919.293 22.4862
919.377 31.9621
919.419 40.5985
919.461 54.3942
919.503 77.7149
919.546 120.079
919.567 154.588
919.588 203.825
919.609 275.842
919.630 379.854
919.665 637.438
919.700 839.461
919.735 710.844
919.770 472.415
919.807 304.467
919.844 209.035
919.880 152.994
919.917 118.220
919.954 95.2149
919.990 79.3083
920.064 59.1902
920.137 47.3524
920.210 39.7213
920.357 30.6421
920.503 25.5054
920.650 22.2197
920.943 18.2403
921.236 15.8738
921.530 14.2646
922.116 12.1369
922.702 10.7264
923.289 9.68194
924.461 8.17376
926.807 6.23309
929.152 4.90366
931.498 3.82521
933.843 2.83640
935.016 2.35239
935.602 2.12133
936.188 1.92161
936.775 1.82882
937.068 1.89993
937.361 2.18453
937.654 3.03221
937.801 3.98631
937.947 5.80026
938.021 7.33769
938.094 9.65432
938.167 13.3258
938.241 19.5526
938.314 31.1564
938.351 41.0154
938.387 55.9519
938.424 79.9833
938.461 121.058
938.497 196.723
938.534 342.513
938.567 559.402
938.600 713.178
938.633 582.087
938.666 371.714
938.692 259.757
938.717 186.932
938.742 139.441
938.767 107.654
938.818 69.5679
938.868 48.8347
938.919 36.3718
938.970 28.3376
939.071 18.9114
939.172 13.7680
939.273 10.6366
939.475 7.12492
939.677 5.26046
939.879 4.12590
940.283 2.82855
940.687 2.12149
941.091 1.71035
941.495 1.51192
941.899 1.53503
942.304 1.86604
942.506 2.20361
942.708 2.70829
942.910 3.44413
943.112 4.50618
943.314 6.04370
943.516 8.29161
943.718 11.6449
943.920 16.7864
944.122 24.9782
944.324 38.7157
944.526 63.4509
944.627 83.4770
944.728 112.380
944.829 155.533
944.930 222.116
945.031 328.160
945.132 498.304
945.266 847.602
945.400 1124.03
945.534 952.535
945.668 629.862
945.772 448.584
945.876 329.233
945.981 250.511
946.085 197.168
946.293 132.498
946.502 96.5924
946.710 74.6129
946.919 60.1329
947.336 42.6986
947.753 32.8564
948.170 26.6678
949.004 19.4602
949.838 15.4614
950.671 12.9431
952.339 9.95916
954.007 8.24667
955.675 7.13221
959.011 5.79416
962.346 5.18616
964.014 5.18343
965.682 5.55224
967.350 6.75091
968.184 8.06855
969.018 10.4953
969.852 15.4866
970.269 20.1626
970.686 28.0714
971.103 43.0300
971.311 56.0849
971.520 76.6852
971.728 111.914
971.937 179.022
972.041 237.254
972.145 326.888
972.249 470.418
972.353 702.570
972.477 1107.85
972.600 1364.33
972.723 1074.85
972.847 661.344
972.919 489.361
972.992 367.857
973.138 221.302
973.283 143.806
973.428 99.3605
973.574 71.9170
973.719 53.9733
974.010 32.8967
974.301 21.6169
974.592 15.0090
974.883 10.9490
975.174 8.48031
975.465 7.20183
975.756 7.07502
976.047 8.46278
976.192 10.0226
976.337 12.4811
976.483 16.2928
976.628 22.2374
976.774 31.7677
976.919 47.7101
977.065 76.1894
977.137 99.0394
977.210 131.747
977.283 180.110
977.356 253.778
977.428 369.309
977.501 551.425
977.601 933.160
977.700 1232.01
977.800 1039.54
977.899 684.319
977.985 467.824
978.072 332.507
978.158 247.047
978.244 191.042
978.417 125.334
978.590 89.9662
978.762 68.7042
978.935 54.8729
979.280 38.3823
979.626 29.1500
979.971 23.3656
980.662 16.6387
981.352 12.9058
982.043 10.5527
983.424 7.76099
984.805 6.15522
986.187 5.10407
988.949 3.80344
991.712 3.07413
994.474 2.79006
997.237 3.21166
998.618 3.97582
999.999 5.53196
1000.00 5.53350
1000.00 5.53507
1000.01 5.54135
1000.01 5.54607
1000.02 5.55712
1000.03 5.57934
1000.06 5.62264
1000.11 5.71107
1000.22 5.89550
1000.44 6.29891
1000.87 7.25607
1001.73 10.0107
1002.60 14.6130
1003.47 22.8189
1003.90 29.4305
1004.33 38.9869
1004.77 53.4076
1005.20 76.4364
1005.63 116.148
1006.06 192.398
1006.28 259.212
1006.50 362.553
1006.71 530.918
1006.93 805.202
1007.17 1229.18
1007.28 1402.98
1007.40 1435.35
1007.64 1039.38
1007.87 569.247
1008.00 400.332
1008.13 285.549
1008.25 212.249
1008.38 172.930
1008.51 166.188
1008.64 200.605
1008.70 240.063
1008.76 300.673
1008.83 389.577
1008.89 513.406
1008.97 728.925
1009.05 1009.58
1009.20 1539.69
1009.28 1589.81
1009.36 1473.64
1009.51 1078.68
1009.68 740.961
1009.84 532.497
1010.01 402.893
1010.18 318.412
1010.51 217.267
1010.84 161.128
1011.18 126.029
1011.51 102.459
1012.18 73.1735
1012.84 56.0076
1013.51 44.9387
1014.84 31.7214
1016.18 24.2560
1017.51 19.5336
1020.18 13.9501
1022.84 10.7608
1025.51 8.67011
1030.84 5.96486
1036.17 4.07798
1038.84 3.25450
1041.51 2.48831
1044.17 1.88933
1045.51 1.80780
1046.17 1.90493
1046.84 2.17217
1047.51 2.72712
1048.17 3.78767
1048.84 5.80431
1049.17 7.44249
1049.50 9.77785
1049.84 13.2016
1050.17 18.3578
1050.50 26.4941
1050.84 40.1311
1051.17 65.1005
1051.34 85.8298
1051.50 116.433
1051.67 164.380
1051.84 242.807
1052.00 380.322
1052.17 624.807
1052.34 1001.48
1052.50 1250.52
1052.67 1001.69
1052.83 623.965
1052.97 411.285
1053.10 279.513
1053.24 196.364
1053.38 141.895
1053.51 104.492
1053.65 78.2400
1053.92 45.0254
1054.06 34.7161
1054.19 27.9446
1054.33 25.0402
1054.40 25.5032
1054.47 27.7547
1054.53 32.4726
1054.60 40.7476
1054.67 54.3676
1054.74 76.3367
1054.81 111.843
1054.87 170.036
1054.94 266.999
1055.01 428.657
1055.11 811.253
1055.20 1179.23
1055.25 1193.25
1055.30 1086.48
1055.39 775.647
1055.47 583.113
1055.54 449.257
1055.61 357.233
1055.69 293.253
1055.83 211.335
1055.98 163.146
1056.13 131.952
1056.28 110.627
1056.57 83.4423
1056.86 66.9546
1057.16 56.0101
1057.75 42.3826
1058.34 34.2467
1058.92 28.8643
1060.10 22.1763
1061.28 18.1897
1062.46 15.5448
1064.81 12.2346
1067.16 10.2197
1069.52 8.83632
1074.23 6.96945
1078.94 5.61922
1083.65 4.34214
1086.00 3.57587
1087.18 3.10987
1088.35 2.55428
1089.53 1.88918
1090.12 1.53917
1090.71 1.26889
1091.00 1.24321
1091.30 1.40696
1091.45 1.62091
1091.59 1.98326
1091.74 2.57342
1091.89 3.52305
1092.03 5.07338
1092.18 7.62363
1092.33 12.0017
1092.48 19.9611
1092.55 26.4672
1092.62 35.7198
1092.70 49.7150
1092.77 71.1898
1092.84 106.880
1092.92 168.308
1092.99 284.863
1093.03 380.231
1093.06 509.348
1093.13 868.226
1093.20 1147.11
1093.27 969.865
1093.34 643.126
1093.38 476.583
1093.43 363.042
1093.52 228.301
1093.61 157.622
1093.71 116.711
1093.80 90.7801
1093.89 73.6239
1094.08 52.6452
1094.26 40.6150
1094.44 33.0623
1094.81 24.2559
1095.18 19.3832
1095.55 16.3503
1095.92 14.2876
1096.29 12.8067
1097.02 10.8186
1097.76 9.54642
1099.23 7.99963
1100.71 7.07522
1102.18 6.44605
1105.13 5.61906
1108.08 5.10739
1109.55 4.95440
1111.03 4.91323
1112.50 5.12446
1113.24 5.46006
1113.98 6.17334
1114.71 7.81786
1115.08 9.48190
1115.45 12.4554
1115.82 18.4777
1116.00 24.0159
1116.19 33.1855
1116.37 49.9617
1116.47 63.8560
1116.56 84.6214
1116.65 117.297
1116.74 171.967
1116.83 269.646
1116.93 450.705
1117.01 727.749
1117.10 915.466
1117.19 737.897
1117.28 467.575
1117.37 286.559
1117.46 187.648
1117.55 130.523
1117.64 96.1863
1117.73 73.7831
1117.82 58.7536
1118.00 40.2212
1118.18 29.7654
1118.36 23.2970
1118.72 16.0293
1119.09 12.2341
1119.45 9.98934
1120.17 7.54627
1120.90 6.28794
1121.62 5.53690
1123.07 4.69236
1124.52 4.23508
1125.96 3.96322
1128.86 3.79046
1131.75 4.31443
1133.20 5.18446
1134.65 7.06262
1135.37 8.76023
1136.10 11.4135
1136.82 15.7547
1137.55 23.3274
1138.27 37.7975
1138.63 50.2685
1138.99 69.4098
1139.36 100.408
1139.72 153.975
1140.08 253.391
1140.44 445.374
1140.77 735.775
1141.10 951.364
1141.43 791.454
1141.76 515.337
1142.10 325.938
1142.44 218.640
1142.78 155.847
1143.12 117.089
1143.46 91.6008
1143.80 74.1007
1144.48 52.2199
1145.15 39.5225
1145.83 31.4705
1147.19 22.1202
1148.55 16.9997
1149.91 13.8279
1151.26 11.6766
1152.62 10.1144
1155.34 7.92382
1156.69 7.06898
1158.05 6.27329
1159.41 5.46585
1160.09 5.03666
1160.77 4.59200
1161.44 4.19386
1161.78 4.10454
1162.12 4.27637
1162.46 5.24166
1162.63 6.52204
1162.80 9.10647
1162.89 11.3695
1162.97 14.8071
1163.06 20.2316
1163.14 29.0964
1163.23 44.9503
1163.27 57.7849
1163.31 75.6395
1163.35 102.463
1163.40 142.055
1163.44 203.101
1163.48 297.488
1163.54 506.756
1163.60 670.342
1163.66 569.108
1163.72 379.868
1163.78 254.771
1163.83 180.216
1163.89 134.168
1163.95 104.399
1164.06 69.9480
1164.17 51.5864
1164.28 40.5310
1164.40 33.4254
1164.62 24.9541
1164.84 20.1837
1165.07 17.2000
1165.29 15.1697
1165.52 13.7064
1165.97 11.7421
1166.41 10.4877
1167.31 8.96766
1168.21 8.05958
1169.11 7.44036
1170.90 6.61410
1172.70 6.05395
1174.49 5.62435
1178.08 4.95127
1181.67 4.37204
1183.46 4.07801
1185.26 3.75690
1187.05 3.37819
1187.95 3.15202
1188.85 2.88863
1189.74 2.57750
1190.19 2.40603
1190.64 2.23987
1191.09 2.13965
1191.31 2.18269
1191.54 2.41253
1191.76 3.16560
1191.82 3.53654
1191.87 4.04272
1191.93 4.74468
1191.99 5.73880
1192.04 7.18516
1192.10 9.36360
1192.13 10.8748
1192.15 12.7949
1192.18 15.2725
1192.21 18.5273
1192.24 22.8929
1192.27 28.8929
1192.29 37.3783
1192.32 49.7886
1192.35 68.6590
1192.38 98.6132
1192.41 148.128
1192.43 231.111
1192.47 383.102
1192.50 497.640
1192.53 416.722
1192.57 273.368
1192.60 185.643
1192.62 132.748
1192.65 99.1845
1192.68 77.0857
1192.74 51.1511
1192.79 37.2447
1192.85 28.8588
1192.90 23.6011
1193.02 17.5598
1193.13 14.4720
1193.24 12.9328
1193.47 12.6055
1193.69 15.9591
1193.80 20.0161
1193.92 27.1736
1194.03 40.6759
1194.09 51.7897
1194.14 68.1196
1194.20 93.5674
1194.25 133.466
1194.31 199.469
1194.37 310.225
1194.43 518.269
1194.50 678.191
1194.57 568.164
1194.63 372.376
1194.70 242.259
1194.77 166.400
1194.83 121.180
1194.90 92.7173
1194.96 73.8089
1195.03 60.6477
1195.16 43.9981
1195.29 34.2172
1195.43 27.9435
1195.69 20.5620
1195.95 16.4724
1196.22 13.9230
1196.75 10.9647
1197.27 9.32073
1197.80 8.27957
1198.33 7.56082
1198.86 7.03337
1199.91 6.30597
1200.97 5.82142
1203.08 5.19810
1205.19 4.79586
1207.31 4.50050
1211.53 4.06584
1211.53 4.06566
1211.54 4.06505
1211.54 4.06452
1211.56 4.06338
1211.58 4.06110
1211.64 4.05655
1211.74 4.04757
1211.95 4.02970
1212.36 3.99464
1213.19 3.92664
1214.84 3.79796
1218.15 3.56064
1224.76 3.10988
1228.07 2.86300
1229.72 2.72267
1231.38 2.56354
1233.03 2.38037
1233.86 2.28396
1234.68 2.20281
1235.10 2.18467
1235.51 2.20677
1235.92 2.31939
1236.34 2.65007
1236.54 2.99629
1236.75 3.58836
1236.96 4.64566
1237.16 6.65678
1237.27 8.38480
1237.37 10.9672
1237.47 15.0455
1237.58 21.9005
1237.68 34.6064
1237.73 45.2034
1237.78 60.6219
1237.84 85.0173
1237.89 124.045
1237.94 192.415
1237.99 310.222
1238.05 515.441
1238.10 664.419
1238.16 548.420
1238.21 356.196
1238.27 219.603
1238.33 145.549
1238.39 103.079
1238.45 77.0901
1238.51 59.9574
1238.57 48.4606
1238.69 34.1761
1238.80 25.8985
1238.92 20.7283
1239.16 14.7418
1239.40 11.5091
1239.63 9.53817
1239.87 8.23216
1240.11 7.31598
1240.58 6.11860
1241.05 5.38256
1241.53 4.88493
1242.00 4.52738
1242.95 4.04341
1243.90 3.72748
1245.79 3.32472
1247.68 3.06186
1249.58 2.86304
1253.37 2.55110
1257.16 2.28454
1260.94 2.02538
1262.84 1.89241
1263.79 1.82678
1264.73 1.76801
1265.68 1.73845
1266.15 1.75913
1266.63 1.84836
1266.86 1.94965
1267.10 2.12846
1267.34 2.45577
1267.57 3.09485
1267.69 3.65584
1267.81 4.51359
1267.93 5.92433
1268.05 8.38527
1268.17 13.2590
1268.23 17.5767
1268.29 24.4641
1268.34 36.2796
1268.40 58.5913
1268.43 77.9883
1268.46 106.211
1268.49 151.477
1268.52 219.458
1268.56 357.946
1268.60 452.580
1268.64 368.530
1268.68 237.284
1268.72 148.909
1268.76 99.8275
1268.80 70.9431
1268.84 52.9773
1268.88 40.9332
1268.92 32.8878
1268.99 22.8591
1269.07 17.0322
1269.15 13.4270
1269.31 9.30077
1269.46 7.08975
1269.62 5.76389
1269.78 4.89904
1269.93 4.30219
1270.25 3.53458
1270.56 3.07341
1271.19 2.54971
1271.81 2.25866
1272.44 2.06987
1273.69 1.82938
1274.95 1.67297
1276.20 1.55954
1278.71 1.42516
1281.21 1.47311
1282.47 1.65603
1283.72 2.10096
1284.35 2.52166
1284.97 3.19616
1285.60 4.33121
1286.23 6.38678
1286.54 8.08515
1286.85 10.5908
1287.17 14.4962
1287.48 21.0244
1287.79 33.1074
1287.95 43.3257
1288.11 58.7415
1288.26 83.7096
1288.42 126.570
1288.58 207.386
1288.73 365.884
1288.87 588.723
1289.00 738.078
1289.13 593.105
1289.27 372.212
1289.38 251.681
1289.48 175.963
1289.59 128.025
1289.70 96.5934
1289.92 60.0189
1290.13 40.7473
1290.35 29.3711
1290.56 22.1558
1290.99 13.8895
1291.43 9.49009
1291.86 6.87798
1292.29 5.19389
1292.72 4.04443
1293.58 2.62948
1294.44 1.86441
1295.31 1.48478
1296.17 1.41908
1297.03 1.70779
1297.90 2.51739
1298.33 3.22632
1298.76 4.23932
1299.19 5.68853
1299.62 7.78102
1300.05 10.8654
1300.48 15.5119
1300.91 22.7845
1301.35 34.7333
1301.78 55.7377
1302.21 95.7574
1302.42 129.907
1302.64 180.725
1302.86 258.862
1303.07 378.098
1303.39 642.743
1303.70 851.954
1304.02 721.975
1304.33 477.273
1304.60 329.730
1304.87 236.238
1305.13 176.659
1305.40 137.384
1305.94 90.7681
1306.47 65.5058
1307.01 50.2104
1307.54 40.2272
1308.61 28.2488
1309.69 21.5236
1310.22 19.2419
1310.76 17.5354
1311.29 16.5556
1311.56 16.5763
1311.83 17.3599
1312.10 19.9760
1312.23 22.8969
1312.36 28.2172
1312.50 38.9304
1312.56 48.5023
1312.63 63.6680
1312.70 89.2656
1312.76 136.136
1312.80 175.402
1312.83 230.834
1312.86 312.570
1312.90 432.878
1312.95 710.591
1313.00 909.801
1313.05 749.370
1313.10 488.160
1313.13 371.922
1313.17 288.518
1313.23 187.442
1313.29 132.306
1313.35 99.6894
1313.41 78.6882
1313.47 64.8103
1313.59 47.8099
1313.72 38.0623
1313.84 31.9865
1314.08 24.9285
1314.33 21.0152
1314.57 18.5597
1315.06 15.6079
1315.55 13.8525
1316.04 12.6534
1317.02 11.0441
1318.00 9.95565
1318.97 9.13984
1320.93 7.95332
1322.89 7.10191
1324.84 6.44107
1325.82 6.15528
1326.80 5.88902
1327.29 5.76405
1327.53 5.70753
1327.78 5.66384
1328.02 5.65860
1328.15 5.69633
1328.27 5.80502
1328.39 6.09829
1328.45 6.40987
1328.51 6.97838
1328.57 8.12120
1328.60 9.17196
1328.63 10.7984
1328.67 13.6796
1328.70 18.8866
1328.71 23.5737
1328.73 30.1263
1328.74 40.0032
1328.76 54.8912
1328.78 87.1178
1328.80 110.869
1328.82 92.7681
1328.84 61.9648
1328.86 46.7841
1328.87 36.9179
1328.90 25.0582
1328.93 18.7650
1328.96 15.1072
1328.99 12.7441
1329.01 11.2294
1329.07 9.38592
1329.13 8.32766
1329.18 7.67840
1329.30 6.92727
1329.41 6.51158
1329.52 6.25354
1329.75 5.94414
1329.97 5.76037
1330.20 5.63299
1330.65 5.45536
1331.55 5.21845
1332.45 5.03969
1334.25 4.74847
1336.05 4.50287
1343.25 3.73828
1350.45 3.13817
1354.06 2.84694
1354.96 2.76580
1355.86 2.67353
1356.31 2.62041
1356.76 2.56670
1356.98 2.55465
1357.10 2.56692
1357.21 2.61484
1357.32 2.76153
1357.38 2.92626
1357.43 3.23603
1357.49 3.88963
1357.52 4.47899
1357.55 5.42698
1357.57 7.05129
1357.60 10.0700
1357.63 16.2608
1357.64 21.7638
1357.66 29.9871
1357.67 38.8309
1357.68 49.2851
1357.70 63.3740
1357.71 61.1398
1357.72 53.3202
1357.74 36.1645
1357.76 24.4528
1357.79 17.5561
1357.81 13.4156
1357.83 10.8975
1357.87 7.93026
1357.91 6.36861
1357.95 5.44348
1357.99 4.84684
1358.07 4.14146
1358.16 3.74525
1358.24 3.50096
1358.40 3.21546
1358.73 2.94989
1359.06 2.82007
1359.72 2.67770
1360.37 2.58810
1361.69 2.45642
1363.00 2.34699
1365.63 2.15170
1368.26 1.98211
1370.88 1.88389
1372.20 1.91823
1373.51 2.11363
1374.17 2.34371
1374.83 2.75450
1375.48 3.51022
1376.14 4.99560
1376.47 6.28949
1376.80 8.27396
1377.13 11.5076
1377.45 17.1479
1377.78 28.1573
1377.95 37.8704
1378.11 53.2394
1378.28 79.5162
1378.44 128.109
1378.52 168.824
1378.60 229.173
1378.69 320.870
1378.77 460.397
1378.88 750.849
1379.00 957.259
1379.12 781.877
1379.23 499.229
1379.30 375.411
1379.37 288.053
1379.51 180.906
1379.65 122.703
1379.79 88.8831
1379.93 67.4385
1380.06 53.2291
1380.34 35.9840
1380.62 26.3440
1380.89 20.3928
1381.45 13.6895
1382.00 10.1400
1382.56 8.00738
1383.66 5.62621
1384.77 4.34404
1385.88 3.53985
1388.09 2.55131
1390.31 1.91871
1392.52 1.44720
1393.63 1.25739
1394.74 1.11078
1395.29 1.06874
1395.57 1.06648
1395.84 1.09395
1396.12 1.19962
1396.26 1.32973
1396.40 1.58978
1396.54 2.18435
1396.60 2.77828
1396.67 3.83216
1396.71 4.69603
1396.74 5.90948
1396.78 7.79441
1396.81 10.7028
1396.83 12.9576
1396.85 15.7957
1396.86 19.6332
1396.88 24.9504
1396.90 33.0550
1396.92 44.3707
1396.93 61.2792
1396.95 86.5177
1396.98 143.310
1397.00 183.185
1397.01 175.265
1397.03 151.218
1397.05 99.2934
1397.07 67.6110
1397.10 47.9047
1397.12 35.5464
1397.14 27.4890
1397.18 18.1324
1397.23 13.2523
1397.27 10.2836
1397.31 8.42169
1397.40 6.22329
1397.49 5.03130
1397.58 4.33190
1397.75 3.59683
1397.92 3.27445
1398.10 3.15376
1398.45 3.23459
1399.14 4.25993
1399.49 5.25697
1399.84 6.73865
1400.19 8.97119
1400.54 12.4171
1400.89 17.9634
1401.24 27.4029
1401.59 44.9699
1401.76 59.7523
1401.93 81.7288
1402.11 116.313
1402.28 172.988
1402.46 271.344
1402.63 446.446
1402.82 745.019
1403.00 968.429
1403.19 805.089
1403.37 523.644
1403.57 319.642
1403.78 209.368
1403.98 146.803
1404.19 109.109
1404.39 84.6409
1404.60 68.0475
1405.00 47.4898
1405.41 35.6438
1405.82 28.1816
1406.64 19.5262
1407.46 14.8019
1408.27 11.8916
1409.91 8.53945
1411.54 6.67498
1413.18 5.48053
1416.45 4.00686
1419.71 3.16112
1421.35 2.96152
1422.98 3.06221
1424.62 3.93709
1425.44 5.11572
1426.25 7.51209
1426.66 9.60774
1427.07 12.7961
1427.48 17.8825
1427.89 26.4313
1428.30 42.0434
1428.50 54.8566
1428.70 73.6525
1428.91 102.497
1429.11 148.280
1429.32 224.322
1429.52 352.571
1429.76 589.147
1430.00 769.382
1430.24 643.334
1430.48 420.357
1430.75 255.916
1431.02 167.416
1431.30 117.801
1431.57 87.8824
1431.84 68.6007
1432.11 55.4724
1432.66 39.2242
1433.20 29.8739
1433.74 23.9538
1434.83 17.0650
1435.92 13.2658
1437.01 10.8922
1439.18 8.08011
1441.36 6.41046
1442.45 5.77375
1443.53 5.21560
1444.62 4.74160
1445.16 4.57656
1445.71 4.55377
1445.98 4.66572
1446.25 4.95387
1446.52 5.58950
1446.80 6.97975
1447.07 10.2565
1447.20 13.5721
1447.34 19.4240
1447.48 30.7667
1447.54 40.6664
1447.61 56.0364
1447.68 81.2958
1447.75 125.817
1447.82 210.748
1447.85 281.394
1447.88 377.939
1447.94 625.553
1448.00 810.910
1448.06 675.394
1448.12 440.343
1448.16 327.018
1448.20 249.640
1448.27 156.140
1448.35 107.116
1448.43 78.8497
1448.50 61.1870
1448.58 49.4257
1448.73 35.1883
1448.89 27.1696
1449.04 22.1664
1449.35 16.4388
1449.66 13.3219
1449.96 11.4080
1450.27 10.1178
1450.58 9.19760
1451.19 7.96680
1451.81 7.17827
1453.04 6.20832
1454.27 5.61381
1455.50 5.19641
1457.96 4.62007
1460.42 4.21664
1462.88 3.90274
1467.80 3.41692
1467.80 3.41679
1467.81 3.41618
1467.81 3.41567
1467.83 3.41455
1467.85 3.41239
1467.90 3.40801
1468.01 3.39927
1468.21 3.38192
1468.62 3.34765
1469.43 3.28080
1471.07 3.15289
1474.33 2.91427
1480.86 2.46521
1484.12 2.22725
1485.75 2.09413
1487.38 1.94248
1489.02 1.75872
1489.83 1.64845
1490.65 1.52338
1491.06 1.45719
1491.46 1.39401
1491.87 1.34788
1492.28 1.36052
1492.48 1.42402
1492.69 1.57337
1492.89 1.89661
1493.10 2.60492
1493.20 3.25635
1493.30 4.28964
1493.40 6.00719
1493.50 9.05467
1493.55 11.4943
1493.61 14.9893
1493.66 20.1825
1493.71 28.2551
1493.76 41.5283
1493.81 64.9092
1493.84 83.8530
1493.86 109.419
1493.89 145.501
1493.91 196.176
1493.96 328.106
1494.00 428.740
1494.05 357.827
1494.09 233.258
1494.12 174.505
1494.15 133.144
1494.21 83.6476
1494.26 57.5142
1494.32 42.3643
1494.38 32.8572
1494.44 26.5044
1494.55 18.8321
1494.67 14.4452
1494.78 11.7205
1495.02 8.56558
1495.25 6.84584
1495.48 5.79257
1495.71 5.08658
1495.94 4.58352
1496.40 3.91642
1496.87 3.49634
1497.79 2.99156
1498.71 2.69154
1499.64 2.48593
1501.49 2.20655
1505.19 1.85052
1508.89 1.59021
1512.58 1.38283
1514.43 1.31310
1516.28 1.30409
1518.13 1.46612
1519.06 1.71894
1519.98 2.26751
1520.45 2.77108
1520.91 3.57013
1521.37 4.91211
1521.83 7.35230
1522.06 9.37716
1522.29 12.3670
1522.53 17.0294
1522.76 24.8071
1522.99 39.0378
1523.10 50.9889
1523.22 68.7536
1523.33 97.0506
1523.45 144.128
1523.57 229.265
1523.68 386.161
1523.79 626.997
1523.90 795.596
1524.01 646.311
1524.12 410.321
1524.19 302.815
1524.26 228.615
1524.40 140.025
1524.54 93.5079
1524.67 66.7648
1524.81 50.1506
1524.95 39.1698
1525.23 26.0393
1525.50 18.7609
1525.78 14.3253
1526.33 9.36728
1526.88 6.77010
1527.44 5.22450
1528.54 3.50900
1529.65 2.59288
1530.75 2.02052
1532.96 1.32735
1535.17 0.933908
1536.28 0.842919
1537.38 0.893478
1537.93 1.02780
1538.49 1.30815
1539.04 1.86848
1539.31 2.33704
1539.59 3.01950
1539.87 4.04554
1540.14 5.63587
1540.42 8.23939
1540.70 12.8198
1540.83 16.5163
1540.97 21.8041
1541.11 29.7385
1541.25 42.2902
1541.39 63.5430
1541.52 102.840
1541.59 135.585
1541.66 183.849
1541.73 256.655
1541.80 366.553
1541.90 600.764
1542.00 769.056
1542.10 629.932
1542.20 403.022
1542.29 264.100
1542.38 181.541
1542.47 131.022
1542.56 98.6849
1542.74 61.6827
1542.92 42.5365
1543.10 31.2894
1543.28 24.1865
1543.64 15.9629
1544.00 11.5133
1544.36 8.82040
1545.09 5.79843
1545.81 4.18960
1546.53 3.20986
1547.97 2.10314
1549.41 1.58608
1550.13 1.52452
1550.86 1.68739
1551.22 1.92462
1551.58 2.35643
1551.94 3.13961
1552.30 4.62406
1552.48 5.88236
1552.66 7.75775
1552.84 10.7085
1553.02 15.6747
1553.20 24.9308
1553.29 32.7178
1553.38 44.5199
1553.47 63.4268
1553.56 95.8300
1553.65 155.692
1553.74 271.604
1553.82 439.920
1553.90 556.658
1553.98 450.777
1554.06 285.162
1554.13 192.306
1554.19 134.998
1554.26 98.2152
1554.32 74.4908
1554.45 46.6256
1554.58 31.8646
1554.72 23.1725
1554.85 17.6349
1555.11 11.2516
1555.37 7.80822
1555.63 5.73940
1556.15 3.43927
1556.68 2.23682
1557.20 1.52516
1557.72 1.08463
1557.98 0.937196
1558.25 0.833426
1558.51 0.772932
1558.77 0.760211
1559.03 0.803562
1559.29 0.916775
1559.55 1.12334
1559.81 1.45715
1560.08 1.97768
1560.34 2.77373
1560.60 4.01034
1560.86 5.96149
1561.12 9.18715
1561.38 14.7905
1561.51 19.2125
1561.65 25.4460
1561.78 34.5170
1561.91 48.1063
1562.04 69.7569
1562.17 105.939
1562.30 169.869
1562.43 284.882
1562.57 480.359
1562.70 630.067
1562.84 529.153
1562.97 347.829
1563.06 256.393
1563.16 193.752
1563.25 150.141
1563.34 119.860
1563.53 81.6546
1563.71 59.8791
1563.90 46.2362
1564.08 37.2160
1564.45 26.2845
1564.82 20.1641
1565.19 16.3956
1565.92 12.2549
1566.66 10.3206
1567.40 9.54380
1568.88 10.3749
1569.61 12.0830
1570.35 15.0993
1571.09 20.2465
1571.83 29.2542
1572.57 46.0762
1572.94 60.1323
1573.30 81.0134
1573.67 113.353
1574.04 165.894
1574.41 255.423
1574.78 411.282
1575.19 687.168
1575.60 896.339
1576.01 745.219
1576.42 483.623
1576.69 358.955
1576.96 272.238
1577.49 169.204
1578.03 115.305
1578.57 84.2832
1579.10 64.8408
1579.64 51.8979
1580.71 36.1658
1581.79 27.2599
1582.86 21.6701
1585.01 15.1943
1587.15 11.6272
1589.30 9.39015
1593.59 6.72345
1597.88 5.13397
1600.03 4.53351
1602.18 4.01623
1604.32 3.59157
1605.40 3.45050
1606.47 3.43735
1607.54 3.78381
1608.08 4.31641
1608.61 5.45619
1609.15 8.09750
1609.42 10.7301
1609.69 15.3257
1609.96 24.1677
1610.09 31.7869
1610.22 43.5128
1610.36 62.5776
1610.49 95.7216
1610.63 157.814
1610.76 279.865
1610.88 462.643
1611.00 598.585
1611.12 496.459
1611.24 322.135
1611.32 242.387
1611.39 185.751
1611.54 117.568
1611.69 80.8947
1611.84 59.6484
1611.99 46.1822
1612.14 37.2335
1612.44 26.3135
1612.74 20.1445
1613.03 16.2897
1613.63 11.8670
1614.23 9.46111
1614.83 7.97770
1616.02 6.25459
1617.22 5.27959
1618.41 4.64166
1620.80 3.82394
1623.19 3.28640
1625.58 2.87884
1630.36 2.24640
1635.14 1.73340
1639.93 1.31997
1642.32 1.20355
1643.51 1.20654
1644.71 1.29856
1645.90 1.58335
1646.50 1.88236
1647.10 2.40808
1647.69 3.43957
1647.99 4.37685
1648.29 5.93337
1648.59 8.88325
1648.74 11.5088
1648.89 15.7414
1649.04 23.4152
1649.11 29.8360
1649.19 39.4184
1649.26 55.0920
1649.34 82.1421
1649.41 135.007
1649.45 179.264
1649.49 242.699
1649.54 378.021
1649.60 460.214
1649.66 359.312
1649.71 219.305
1649.77 128.436
1649.83 80.5588
1649.89 53.4727
1649.95 37.6818
1650.01 27.5603
1650.07 20.9655
1650.19 13.0732
1650.31 8.83504
1650.43 6.34985
1650.55 4.80044
1650.67 3.79948
1650.78 3.12347
1650.90 2.66527
1651.14 2.14928
1651.38 1.94935
1651.62 1.93623
1652.09 2.26521
1652.57 2.96111
1653.04 4.04357
1653.52 5.63795
1653.99 7.99412
1654.47 11.5397
1654.94 17.0958
1655.42 26.2084
1655.90 42.2501
1656.37 72.9476
1656.61 99.2641
1656.85 138.634
1657.08 199.510
1657.32 293.057
1657.66 496.306
1658.00 655.818
1658.34 555.437
1658.68 367.219
1658.94 262.615
1659.20 193.395
1659.46 147.449
1659.72 116.116
1660.24 77.9544
1660.76 56.6729
1661.28 43.5955
1661.80 34.9894
1662.84 24.6173
1663.88 18.7576
1664.92 15.0767
1667.00 10.7836
1669.09 8.39471
1671.17 6.89020
1672.21 6.35146
1672.73 6.14010
1673.25 5.99265
1673.77 5.98491
1674.03 6.10666
1674.29 6.43365
1674.55 7.26542
1674.68 8.13407
1674.81 9.70713
1674.94 12.8837
1675.00 15.7891
1675.07 20.5429
1675.13 28.9976
1675.20 45.8808
1675.23 61.4216
1675.26 85.4822
1675.30 127.061
1675.33 195.772
1675.36 314.645
1675.40 397.658
1675.44 323.667
1675.47 207.035
1675.50 144.487
1675.53 105.432
1675.55 79.8469
1675.58 62.6006
1675.64 41.9266
1675.69 30.6507
1675.74 23.7834
1675.80 19.4456
1675.91 14.3607
1676.02 11.5750
1676.12 9.89997
1676.34 8.02520
1676.56 7.02703
1676.77 6.41769
1677.21 5.70987
1677.64 5.29719
1678.07 5.01524
1678.94 4.62684
1679.81 4.34834
1680.67 4.12559
1682.41 3.77334
1684.14 3.50431
1685.87 3.32021
1686.74 3.29081
1687.17 3.31593
1687.61 3.40236
1688.04 3.63673
1688.26 3.88671
1688.47 4.34485
1688.69 5.30438
1688.80 6.21441
1688.91 7.77755
1689.01 10.8293
1689.07 13.5208
1689.12 17.8307
1689.18 25.3216
1689.23 39.8851
1689.26 52.7423
1689.28 72.8650
1689.31 105.714
1689.34 160.055
1689.37 253.824
1689.40 316.112
1689.43 253.817
1689.46 160.043
1689.50 94.1755
1689.53 60.5157
1689.57 41.4411
1689.60 30.4929
1689.64 23.3685
1689.67 18.7530
1689.74 13.1659
1689.81 10.0229
1689.87 8.13590
1690.01 6.03520
1690.15 4.95762
1690.29 4.33906
1690.56 3.68342
1690.84 3.35679
1691.11 3.16923
1691.66 2.96785
1692.21 2.86541
1692.76 2.80757
1693.85 2.76250
1696.05 2.87449
1698.24 3.36617
1700.44 4.75559
1701.53 6.26397
1702.63 9.05232
1703.73 14.8045
1704.28 20.1468
1704.83 28.9771
1705.38 44.9443
1705.65 58.0586
1705.92 77.4080
1706.20 107.420
1706.47 156.122
1706.75 239.720
1707.02 386.949
1707.31 633.016
1707.60 808.185
1707.89 656.618
1708.18 416.353
1708.47 260.078
1708.76 172.169
1709.05 120.897
1709.34 89.4000
1709.63 68.7751
1709.92 54.6955
1710.50 37.2285
1711.08 27.2043
1711.66 20.9267
1712.83 13.7279
1713.99 9.85625
1715.15 7.48651
1717.47 4.74143
1719.79 3.15126
1720.95 2.57927
1722.11 2.15798
1723.28 2.05513
1723.86 2.31824
1724.44 3.13680
1724.73 3.98317
1725.02 5.39147
1725.31 7.82202
1725.60 12.2649
1725.74 15.9177
1725.89 21.1877
1726.03 29.1214
1726.18 41.6313
1726.32 62.5462
1726.47 100.174
1726.54 130.792
1726.61 173.894
1726.69 237.229
1726.76 327.421
1726.88 549.162
1727.00 719.506
1727.12 603.544
1727.24 395.432
1727.34 274.211
1727.44 196.880
1727.54 147.311
1727.64 114.683
1727.84 75.5855
1728.04 54.4638
1728.24 41.6665
1728.44 33.3744
1728.84 23.4956
1729.24 17.9706
1729.64 14.5257
1730.43 10.5459
1731.23 8.34477
1732.03 6.95917
1733.62 5.30326
1735.22 4.33296
1736.81 3.68024
1740.00 2.82458
1743.19 2.25742
1746.38 1.83230
1752.76 1.20214
1759.14 0.745669
1765.52 0.448877
1768.71 0.391450
1770.31 0.399292
1771.90 0.441323
1773.50 0.528851
1775.09 0.678315
1776.69 0.914244
1778.28 1.27423
1778.28 1.27478
1778.29 1.27643
1778.29 1.27809
1778.31 1.28142
1778.33 1.28811
1778.38 1.30161
1778.47 1.32882
1778.66 1.38562
1779.05 1.50803
1779.81 1.79243
1781.34 2.57038
1782.86 3.77199
1784.39 5.72605
1785.92 9.21472
1786.68 12.1425
1787.44 16.6929
1788.21 24.6184
1788.59 31.1596
1788.97 41.0826
1789.35 57.4941
1789.73 87.6486
1789.93 113.052
1790.12 151.216
1790.31 210.499
1790.50 302.780
1790.75 485.780
1791.00 618.231
1791.25 514.124
1791.50 342.698
1791.79 219.629
1792.08 156.882
1792.36 124.756
1792.65 108.444
1793.22 99.5643
1793.80 109.167
1794.37 134.580
1794.94 180.863
1795.52 261.122
1796.09 398.080
1796.75 638.746
1797.40 803.571
1798.06 646.384
1798.71 405.723
1799.19 283.846
1799.67 203.606
1800.15 150.651
1800.63 114.733
1801.58 71.3602
1802.54 47.5742
1803.50 33.6537
1803.98 29.2709
1804.46 26.7455
1804.94 27.2058
1805.18 29.5918
1805.42 34.8254
1805.66 45.6451
1805.90 68.4709
1806.02 89.1710
1806.14 121.446
1806.26 173.060
1806.37 255.053
1806.54 430.340
1806.70 573.618
1806.86 492.689
1807.03 332.010
1807.16 235.434
1807.30 173.145
1807.43 132.798
1807.57 105.880
1807.84 73.1363
1808.11 54.8971
1808.38 43.4883
1808.66 35.8105
1809.20 26.1293
1809.74 20.2799
1810.28 16.3592
1811.37 11.6317
1812.46 9.94894
1813.00 10.6997
1813.54 13.5898
1813.81 16.5068
1814.08 21.1115
1814.36 28.5088
1814.63 40.6276
1814.90 61.5161
1815.17 99.4227
1815.31 130.129
1815.44 173.380
1815.58 235.927
1815.71 324.659
1815.96 565.177
1816.20 766.343
1816.45 664.014
1816.69 449.114
1816.95 289.166
1817.22 198.060
1817.48 144.683
1817.74 111.457
1818.01 89.3162
1818.27 73.9102
1818.80 54.1805
1819.33 42.3451
1819.85 34.5934
1820.91 25.1346
1821.96 19.5974
1823.02 15.9536
1825.13 11.3815
1827.23 8.55599
1829.34 6.58091
1833.56 3.92853
1837.78 2.38327
1839.89 2.14399
1840.94 2.27487
1842.00 2.68720
1843.05 3.54991
1844.10 5.16961
1845.16 8.15242
1846.21 13.7709
1846.74 18.3947
1847.27 25.0690
1847.80 35.0063
1848.32 50.3574
1848.85 75.1766
1849.38 117.542
1849.90 194.137
1850.43 337.046
1850.97 578.942
1851.50 774.712
1852.04 662.162
1852.57 441.118
1853.10 289.622
1853.63 200.217
1854.16 146.315
1854.69 112.049
1855.22 89.0770
1855.75 72.9476
1856.80 52.2968
1857.86 39.9517
1858.92 31.9061
1861.04 22.1889
1863.15 16.5677
1865.27 12.8757
1869.50 8.13386
1873.73 4.90196
1875.85 3.52555
1877.97 2.26490
1880.08 1.28172
1880.61 1.15318
1881.14 1.12403
1881.67 1.25033
1881.94 1.39930
1882.20 1.62607
1882.46 1.95528
1882.73 2.41522
1882.99 3.05169
1883.26 3.91838
1883.52 5.10508
1883.79 6.72236
1884.05 8.96008
1884.32 12.0695
1884.58 16.4957
1884.84 22.8848
1885.11 32.4368
1885.37 47.1025
1885.64 70.7666
1885.90 110.570
1886.17 181.559
1886.43 310.446
1886.72 542.170
1887.00 735.369
1887.29 635.970
1887.57 428.642
1887.77 319.970
1887.96 244.429
1888.16 192.005
1888.36 154.931
1888.75 107.855
1889.15 80.5633
1889.54 63.2486
1889.94 51.5711
1890.72 37.0699
1891.51 28.5605
1892.30 23.0103
1893.88 16.1439
1895.46 11.8296
1897.03 8.43934
1897.82 6.75267
1898.22 5.84878
1898.61 4.89837
1899.01 3.98125
1899.20 3.67054
1899.40 3.73114
1899.50 4.09259
1899.60 4.90359
1899.70 6.57961
1899.75 7.95999
1899.80 9.92642
1899.85 12.8311
1899.89 17.0246
1899.94 23.3281
1899.99 33.0964
1900.04 49.2243
1900.09 75.9483
1900.14 122.979
1900.19 207.478
1900.25 369.640
1900.30 509.038
1900.33 503.418
1900.36 448.745
1900.41 309.969
1900.45 234.443
1900.49 182.460
1900.53 145.930
1900.56 119.818
1900.64 85.9797
1900.72 66.3422
1900.79 53.6307
1900.87 45.0867
1901.02 34.3745
1901.18 28.0161
1901.33 23.9004
1901.63 18.8775
1901.94 15.9394
1902.24 13.9990
1902.85 11.5551
1903.46 10.0424
1904.07 9.00588
1905.29 7.76696
1906.51 7.55140
1907.12 8.08729
1907.73 9.54447
1908.34 13.0652
1908.65 16.5201
1908.95 22.3647
1909.26 33.0305
1909.41 41.8656
1909.56 54.8131
1909.72 74.8957
1909.87 107.210
1910.02 162.630
1910.17 258.484
1910.34 418.628
1910.50 530.520
1910.66 430.564
1910.83 273.217
1911.02 158.390
1911.21 99.4868
1911.40 67.4541
1911.59 48.5826
1911.78 36.6453
1911.97 28.6443
1912.35 18.9367
1912.73 13.5221
1913.11 10.2727
1913.49 8.32234
1913.87 7.33089
1914.25 7.25402
1914.63 8.31101
1915.01 11.1024
1915.39 16.9809
1915.58 21.9292
1915.77 29.0759
1915.96 39.5743
1916.15 55.3639
1916.34 79.8221
1916.53 118.999
1916.72 183.747
1916.91 291.757
1917.15 519.340
1917.40 717.757
1917.65 632.697
1917.89 434.461
1918.10 309.634
1918.31 228.728
1918.52 175.974
1918.73 140.407
1919.14 97.3104
1919.56 73.3415
1919.98 58.5238
1920.39 48.7370
1921.23 37.1094
1922.06 31.5978
1922.48 30.7957
1922.89 31.8807
1923.31 36.5069
1923.52 41.4282
1923.72 49.7184
1923.93 64.2612
1924.14 91.0625
1924.35 144.631
1924.45 190.831
1924.56 258.087
1924.73 422.060
1924.90 547.780
1925.07 461.970
1925.24 308.634
1925.41 205.322
1925.58 145.261
1925.75 109.274
1925.92 86.4919
1926.26 60.5202
1926.60 46.8582
1926.94 38.6428
1927.27 33.2619
1927.95 26.6643
1928.63 22.7720
1929.31 20.1763
1930.66 16.8533
1932.01 14.7397
1933.37 13.2218
1936.07 11.0761
1938.78 9.49227
1941.49 8.06223
1942.84 7.25964
1943.52 6.78427
1944.20 6.21567
1944.88 5.49532
1945.21 5.05539
1945.55 4.56826
1945.89 4.12142
1946.06 4.04032
1946.23 4.30246
1946.40 5.56924
1946.48 7.17735
1946.53 8.46003
1946.57 10.2596
1946.61 12.8962
1946.65 16.6561
1946.69 22.2656
1946.74 30.9063
1946.78 45.1649
1946.82 68.6502
1946.86 109.890
1946.91 183.914
1946.95 325.879
1947.00 446.459
1947.02 440.222
1947.05 391.051
1947.10 268.901
1947.13 195.513
1947.17 147.809
1947.21 115.872
1947.24 93.8967
1947.32 66.7827
1947.39 51.3826
1947.47 41.6621
1947.54 35.2459
1947.69 27.3395
1947.84 22.7261
1947.99 19.7787
1948.28 16.2360
1948.58 14.2051
1948.88 12.8899
1949.47 11.2774
1950.07 10.3096
1950.66 9.64910
1951.85 8.77331
1953.04 8.18811
1954.22 7.74816
1956.60 7.09401
1961.35 6.21681
1966.10 5.67516
1970.86 5.54379
1973.23 5.79653
1975.61 6.54925
1977.98 8.49886
1979.17 10.5171
1980.36 14.1037
1981.55 21.1017
1982.14 27.2621
1982.74 36.9367
1983.33 53.1474
1983.92 82.6763
1984.22 106.933
1984.52 142.221
1984.81 194.613
1985.11 271.951
1985.56 440.391
1986.00 558.544
1986.45 454.858
1986.89 290.008
1987.23 201.910
1987.58 145.046
1987.92 108.000
1988.26 83.2714
1988.95 53.7620
1989.63 37.7273
1990.32 28.0850
1991.00 21.8150
1992.37 14.3170
1993.74 9.98414
1994.42 8.39801
1995.11 7.05213
1995.79 5.94028
1996.14 5.54718
1996.48 5.43645
1996.82 6.09116
1996.99 7.14578
1997.16 9.35904
1997.33 14.1784
1997.42 18.6802
1997.51 25.8289
1997.59 38.0657
1997.68 59.8766
1997.72 77.5998
1997.76 102.772
1997.81 138.965
1997.85 189.370
1997.92 326.707
1998.00 438.593
1998.08 376.976
1998.15 254.288
1998.24 157.678
1998.33 105.717
1998.42 76.5389
1998.51 59.0058
1998.60 47.4647
1998.69 39.5373
1998.87 29.6260
1999.05 23.7566
1999.23 19.9739
1999.59 15.4149
1999.95 12.7769
2000.31 11.0568
2001.02 8.92162
2001.74 7.60995
2002.46 6.69823
2003.89 5.46918
2006.76 4.10103
2009.63 3.60391
2011.07 3.75483
2012.50 4.36875
2013.94 5.80901
2015.37 8.87901
2016.09 11.5581
2016.81 15.5607
2017.52 21.7166
2018.24 31.4981
2018.96 47.8184
2019.68 76.5597
2020.39 130.502
2020.75 174.510
2021.11 235.660
2021.81 411.075
2022.50 559.167
2023.20 486.148
2023.89 329.575
2024.58 220.408
2025.26 155.078
2025.95 115.345
2026.64 89.9312
2027.32 72.7563
2028.01 60.6462
2029.38 45.0206
2030.76 35.6140
2032.13 29.4427
2034.88 21.9616
2037.62 17.6450
2040.37 14.8424
2045.86 11.3748
2051.35 9.20497
2054.10 8.34029
2056.84 7.54141
2059.59 6.76327
2060.96 6.37815
2062.34 6.02082
2063.71 5.80679
2064.40 5.88703
2065.08 6.33783
2065.77 7.80521
2066.11 9.49655
2066.45 12.7063
2066.80 19.3691
2066.97 25.4572
2067.14 35.1704
2067.31 51.8374
2067.48 82.3724
2067.57 107.680
2067.66 144.495
2067.74 199.019
2067.83 278.497
2067.96 468.770
2068.10 616.629
2068.24 521.248
2068.37 345.923
2068.50 231.792
2068.63 163.382
2068.76 121.375
2068.88 94.3502
2069.14 63.1641
2069.39 46.7289
2069.65 36.9164
2069.90 30.5953
2070.41 23.0811
2070.92 18.8859
2071.43 16.2556
2071.94 14.4682
2072.44 13.1820
2073.46 11.4498
2074.48 10.3354
2076.51 8.95850
2078.55 8.10964
2080.58 7.50742
2084.65 6.65291
2088.73 6.01561
2092.80 5.46102
2094.83 5.18160
2095.85 5.03159
2096.87 4.86690
2097.88 4.67553
2098.39 4.56421
2098.90 4.44007
2099.41 4.31000
2099.66 4.25819
2099.92 4.25153
2100.05 4.29287
2100.17 4.40077
2100.30 4.64344
2100.43 5.18251
2100.55 6.46312
2100.62 7.77004
2100.68 10.0222
2100.75 14.3853
2100.78 18.1325
2100.81 23.6242
2100.84 32.6201
2100.87 47.8192
2100.90 75.0638
2100.94 124.629
2100.97 207.885
2101.00 271.469
2101.03 229.570
2101.06 151.844
2101.10 101.496
2101.13 71.8909
2101.16 53.2860
2101.19 41.8052
2101.25 28.4435
2101.31 21.4339
2101.37 17.2928
2101.43 14.6288
2101.55 11.4900
2101.67 9.75226
2101.80 8.67157
2101.92 7.94325
2102.04 7.42265
2102.28 6.73196
2102.53 6.29545
2102.77 5.99370
2103.02 5.77118
2103.50 5.46019
2103.99 5.24720
2104.97 4.95799
2105.94 4.75355
2106.92 4.58904
2108.87 4.31514
2112.77 3.84362
2116.67 3.38136
2120.58 2.88147
2122.53 2.61306
2124.48 2.34840
2126.43 2.16623
2127.41 2.19915
2128.38 2.48887
2128.87 2.84872
2129.36 3.50170
2129.85 4.70718
2130.33 7.04275
2130.58 9.03563
2130.82 12.0270
2131.07 16.7094
2131.31 24.4527
2131.55 38.2302
2131.68 49.3232
2131.80 65.2897
2131.92 89.0677
2132.04 125.797
2132.16 184.413
2132.28 277.751
2132.44 464.738
2132.60 607.528
2132.76 507.800
2132.92 331.522
2133.08 211.470
2133.24 143.137
2133.40 102.710
2133.56 77.6797
2133.72 61.0711
2133.88 49.6488
2134.20 35.2655
2134.52 26.8325
2134.84 21.4569
2135.48 15.1261
2136.12 11.6017
2136.76 9.37507
2138.05 6.69483
2139.33 5.10017
2139.97 4.55651
2140.61 4.24244
2141.25 4.45927
2141.57 5.07242
2141.89 6.51188
2142.05 7.84792
2142.21 9.91862
2142.37 13.2468
2142.53 18.8456
2142.69 28.9655
2142.77 37.0679
2142.85 48.6655
2142.93 65.7597
2143.01 91.7383
2143.09 132.259
2143.17 195.730
2143.29 333.919
2143.40 445.761
2143.51 380.895
2143.63 254.359
2143.71 184.834
2143.80 138.604
2143.88 107.204
2143.96 85.8478
2144.13 59.3723
2144.30 44.4266
2144.47 35.1640
2144.64 29.0002
2144.98 21.5030
2145.32 17.1895
2145.65 14.4431
2146.33 11.1644
2147.00 9.27732
2147.68 8.04178
2149.03 6.47494
2150.38 5.46816
2151.73 4.73307
2153.08 4.21666
2153.75 4.10943
2154.43 4.27383
2154.43 4.27509
2154.44 4.27817
2154.44 4.28129
2154.45 4.28764
2154.47 4.30082
2154.51 4.32913
2154.59 4.39421
2154.75 4.56433
2155.07 5.13009
2155.39 6.22095
2155.71 8.38030
2156.03 13.0512
2156.19 17.4605
2156.35 24.7027
2156.51 37.6330
2156.67 62.9090
2156.75 84.9800
2156.83 118.834
2156.91 172.342
2156.99 256.100
2157.09 429.363
2157.20 561.402
2157.31 471.395
2157.41 310.762
2157.52 205.037
2157.62 142.217
2157.72 104.231
2157.82 80.0791
2158.03 52.6137
2158.23 38.2391
2158.43 29.7561
2158.64 24.3000
2159.05 17.8658
2159.45 14.2930
2159.86 12.0601
2160.68 9.45413
2161.49 7.98618
2162.31 7.03732
2163.94 5.85511
2165.57 5.11217
2167.20 4.57307
2170.47 3.78053
2173.73 3.16871
2176.99 2.67066
2178.63 2.48960
2180.26 2.44025
2181.07 2.55747
2181.48 2.71057
2181.89 3.00476
2182.30 3.62211
2182.50 4.20825
2182.71 5.21669
2182.91 7.18456
2183.01 8.96815
2183.11 11.9086
2183.22 17.2827
2183.27 21.8152
2183.32 28.7232
2183.37 39.9432
2183.42 59.6882
2183.47 97.8853
2183.50 129.557
2183.52 174.823
2183.56 276.655
2183.60 342.576
2183.64 271.040
2183.68 167.837
2183.71 111.571
2183.75 77.8509
2183.78 56.6273
2183.81 42.7837
2183.87 26.7959
2183.94 18.4404
2184.00 13.5995
2184.07 10.5717
2184.19 7.17404
2184.32 5.43736
2184.45 4.45023
2184.71 3.46697
2184.96 3.05680
2185.22 2.89878
2185.73 2.94020
2186.76 3.84872
2187.78 6.07305
2188.29 8.07752
2188.81 11.1503
2189.32 16.0474
2189.83 24.2085
2190.34 38.7983
2190.60 50.4848
2190.86 67.1943
2191.11 91.9287
2191.37 129.415
2191.62 187.961
2191.88 279.876
2192.24 479.494
2192.60 640.324
2192.96 543.961
2193.32 360.185
2193.57 266.712
2193.82 202.092
2194.07 157.652
2194.32 126.569
2194.81 87.4228
2195.31 64.9075
2195.81 50.7795
2196.30 41.3433
2197.30 29.7987
2198.29 23.1764
2199.29 18.9700
2201.28 14.0018
2203.26 11.1850
2205.25 9.36057
2209.23 7.05186
2213.21 5.48360
2215.20 4.78536
2217.18 4.07236
2219.17 3.29147
2220.17 2.86955
2221.16 2.45898
2222.16 2.21814
2222.65 2.34665
2223.15 2.97972
2223.40 3.71013
2223.65 4.98254
2223.90 7.25622
2224.14 11.4588
2224.27 14.9186
2224.39 19.8689
2224.52 27.2120
2224.64 38.5042
2224.77 56.8330
2224.89 87.6518
2225.01 142.643
2225.14 243.512
2225.27 420.934
2225.40 567.936
2225.53 490.120
2225.66 330.034
2225.74 254.475
2225.82 199.531
2225.99 131.556
2226.15 94.0398
2226.31 71.5589
2226.47 57.0763
2226.63 47.1854
2226.95 34.8487
2227.27 27.6344
2227.60 23.0168
2228.24 17.5316
2228.89 14.4314
2229.53 12.4614
2230.17 11.1004
2230.82 10.1032
2232.11 8.73209
2233.39 7.82478
2235.97 6.66546
2238.55 5.92255
2241.13 5.37871
2246.28 4.57495
2251.43 3.93790
2256.59 3.33880
2259.16 3.01635
2260.45 2.83849
2261.74 2.64216
2263.03 2.41975
2263.67 2.29918
2264.32 2.18157
2264.96 2.10813
2265.29 2.13635
2265.61 2.29839
2265.93 2.83649
2266.09 3.46935
2266.25 4.69410
2266.41 7.29881
2266.49 9.76257
2266.57 13.7831
2266.65 21.0228
2266.69 26.7785
2266.73 35.0351
2266.78 47.6553
2266.82 66.6793
2266.86 96.8660
2266.90 145.109
2266.95 243.090
2267.00 316.300
2267.05 264.415
2267.11 174.171
2267.14 132.884
2267.17 103.919
2267.23 67.7600
2267.29 47.8036
2267.35 35.8881
2267.42 28.1579
2267.48 23.0146
2267.60 16.6670
2267.73 12.9991
2267.85 10.7014
2268.10 8.01908
2268.35 6.54592
2268.60 5.62892
2269.10 4.55716
2269.60 3.94724
2270.09 3.54590
2271.09 3.02680
2272.09 2.67842
2273.08 2.40605
2275.07 1.96464
2277.07 1.61882
2278.06 1.52093
2279.06 1.57289
2279.56 1.72689
2280.05 2.05963
2280.55 2.73679
2281.05 4.14162
2281.30 5.38555
2281.55 7.30333
2281.80 10.3937
2282.05 15.6845
2282.29 25.5383
2282.42 33.8629
2282.54 46.2383
2282.67 65.8166
2282.79 97.9488
2282.92 153.962
2283.04 254.230
2283.17 423.012
2283.30 549.782
2283.43 457.188
2283.56 296.925
2283.64 222.034
2283.73 169.695
2283.89 106.505
2284.05 72.6925
2284.22 53.1324
2284.38 40.7491
2284.55 32.5100
2284.88 22.4370
2285.21 16.7161
2285.53 13.1138
2286.19 8.91576
2286.85 6.55957
2287.51 5.03952
2288.82 3.13039
2290.14 1.98234
2290.80 1.69933
2291.13 1.69311
2291.45 1.84326
2291.78 2.25201
2292.11 3.11016
2292.28 3.81709
2292.44 4.79980
2292.61 6.18956
2292.77 8.15187
2292.93 11.0034
2293.10 15.1901
2293.26 21.6014
2293.43 31.6759
2293.59 48.4967
2293.76 77.9167
2293.92 133.050
2294.00 177.956
2294.08 240.554
2294.24 418.480
2294.40 567.122
2294.56 490.073
2294.72 329.943
2294.85 231.736
2294.98 169.094
2295.12 128.393
2295.25 101.415
2295.52 69.0001
2295.78 51.1490
2296.05 40.2320
2296.32 33.0195
2296.85 24.2684
2297.39 19.2624
2297.92 16.0673
2298.99 12.2644
2300.06 10.0899
2301.12 8.67944
2303.26 6.93784
2305.40 5.87565
2307.53 5.13389
2311.80 4.10020
2316.08 3.33429
2318.21 2.99819
2320.35 2.69028
2322.48 2.45268
2323.55 2.41490
2324.62 2.53533
2325.69 3.09384
2326.22 3.79618
2326.76 5.19037
2327.29 8.21585
2327.56 11.0998
2327.82 15.9369
2328.09 24.7201
2328.23 31.9688
2328.36 42.5273
2328.49 58.7817
2328.63 84.5556
2328.76 127.467
2328.89 200.088
2329.05 332.647
2329.20 431.305
2329.36 358.003
2329.51 232.854
2329.63 163.588
2329.75 118.906
2329.87 89.5199
2329.99 69.9291
2330.23 46.3310
2330.47 33.4428
2330.71 25.6028
2330.95 20.5069
2331.43 14.4207
2331.92 11.0243
2332.40 8.90160
2333.36 6.42690
2334.32 5.02814
2335.28 4.11231
2337.21 2.93971
2339.13 2.25255
2340.09 2.13338
2341.05 2.36990
2341.54 2.77165
2342.02 3.55311
2342.50 5.04099
2342.98 7.95622
2343.22 10.4341
2343.46 14.0995
2343.70 19.7606
2343.94 28.8278
2344.18 44.3449
2344.42 72.6748
2344.54 96.0681
2344.66 129.557
2344.78 178.601
2344.90 250.257
2345.10 427.365
2345.30 569.680
2345.50 485.368
2345.70 322.731
2345.90 211.942
2346.09 146.934
2346.29 107.631
2346.48 82.8337
2346.68 66.1629
2346.88 54.5481
2347.27 39.6952
2347.66 30.8839
2348.06 25.1831
2348.84 18.4033
2349.63 14.5965
2350.41 12.1950
2351.99 9.36354
2353.56 7.75432
2355.13 6.71096
2358.27 5.41545
2361.42 4.61428
2364.56 4.04552
2370.85 3.23746
2377.14 2.63734
2380.28 2.38334
2383.43 2.16677
2386.57 2.03687
2388.14 2.05919
2389.71 2.23754
2391.29 2.82565
2392.07 3.50442
2392.86 4.80354
2393.64 7.56046
2394.04 10.1699
2394.43 14.5531
2394.82 22.5889
2395.02 29.3050
2395.22 39.2711
2395.41 54.9404
2395.61 80.7085
2395.80 125.746
2396.00 206.747
2396.20 338.423
2396.40 433.318
2396.60 355.487
2396.80 228.076
2396.99 147.057
2397.18 99.8658
2397.37 71.5070
2397.56 53.7592
2397.94 33.7877
2398.32 23.5449
2398.70 17.5820
2399.08 13.8148
2399.85 9.45074
2400.61 7.08173
2401.37 5.63069
2402.89 3.96441
2404.41 3.02952
2405.94 2.41430
2408.98 1.59592
2412.02 1.01734
2413.55 0.793238
2415.07 0.658858
2415.83 0.668129
2416.59 0.788659
2416.97 0.921761
2417.35 1.13282
2417.73 1.46200
2418.11 1.97140
2418.50 2.77373
2418.88 4.06375
2419.26 6.23690
2419.64 10.1067
2419.83 13.2291
2420.02 17.6823
2420.21 24.2913
2420.40 34.5377
2420.59 51.4227
2420.78 80.8457
2420.97 136.280
2421.06 181.857
2421.16 245.845
2421.33 412.287
2421.50 539.686
2421.67 451.918
2421.84 295.403
2422.01 192.731
2422.17 132.403
2422.34 96.0076
2422.50 72.9081
2422.66 57.3985
2422.83 46.6386
2423.16 32.9786
2423.49 24.9146
2423.81 19.7574
2424.47 13.6847
2425.13 10.3272
2425.78 8.23699
2427.10 5.80771
2428.41 4.44314
2429.73 3.55841
2432.35 2.43171
2434.98 1.66651
2436.30 1.33899
2437.61 1.03657
2438.92 0.805254
2439.58 0.786915
2439.91 0.842020
2440.24 0.978326
2440.57 1.25551
2440.89 1.78392
2441.06 2.20937
2441.22 2.79792
2441.39 3.62627
2441.55 4.81221
2441.72 6.56221
2441.88 9.19050
2442.04 13.3142
2442.21 20.1190
2442.37 32.1190
2442.45 41.6632
2442.54 55.2168
2442.62 75.0267
2442.70 104.856
2442.78 150.902
2442.86 222.219
2442.98 379.142
2443.10 504.658
2443.22 428.809
2443.34 284.257
2443.42 211.772
2443.50 161.215
2443.58 126.186
2443.66 101.724
2443.82 70.3982
2443.97 52.4139
2444.13 41.0539
2444.29 33.4972
2444.61 24.2436
2444.93 18.9814
2445.25 15.6764
2445.89 11.8791
2446.53 9.85536
2447.16 8.66779
2448.44 7.50502
2449.72 7.18145
2450.99 7.37637
2453.54 9.17203
2456.10 13.8034
2457.37 18.1981
2458.65 25.3314
2459.92 37.6126
2461.20 60.5776
2461.84 79.8299
2462.48 108.309
2463.11 151.420
2463.75 216.603
2464.68 356.537
2465.60 458.254
2466.53 376.158
2467.45 241.018
2468.02 180.964
2468.58 138.224
2469.71 86.1519
2470.84 58.1923
2471.97 41.8240
2473.09 31.4629
2474.22 24.4905
2476.48 15.9072
2478.74 10.8867
2481.00 7.50419
2482.12 6.09766
2483.25 4.71401
2483.82 3.97471
2484.10 3.59190
2484.38 3.22671
2484.66 2.99261
2484.80 3.05073
2484.95 3.44772
2485.02 3.91907
2485.09 4.72795
2485.16 6.16746
2485.23 8.73670
2485.26 10.8448
2485.30 13.7389
2485.33 17.9031
2485.37 24.0625
2485.40 33.8057
2485.44 48.8915
2485.47 73.5512
2485.51 114.221
2485.56 199.659
2485.60 270.475
2485.62 265.962
2485.65 235.950
2485.69 162.006
2485.74 107.605
2485.79 75.6241
2485.83 56.4537
2485.88 44.5085
2485.93 36.2968
2485.97 30.5294
2486.07 23.1884
2486.16 18.7259
2486.25 15.8285
2486.44 12.2847
2486.63 10.2299
2486.81 8.88902
2487.19 7.22608
2487.56 6.20758
2487.94 5.49530
2488.68 4.51360
2490.18 3.28013
2491.67 2.43613
2494.67 1.26388
2496.16 0.870689
2497.66 0.628013
2498.40 0.581333
2499.15 0.601575
2499.90 0.708619
2500.65 0.930666
2501.40 1.30983
2502.14 1.90731
2502.89 2.81585
2503.64 4.17692
2504.39 6.22352
2505.13 9.33474
2505.88 14.1694
2506.63 21.9137
2507.38 34.8969
2508.13 57.8395
2508.87 100.850
2509.25 135.784
2509.62 184.197
2510.36 326.869
2511.10 450.287
2511.84 395.273
2512.58 269.804
2513.44 169.647
2514.30 114.496
2515.16 82.9503
2516.02 63.6118
2516.88 50.9255
2517.74 42.1683
2519.46 31.1443
2521.18 24.7274
2522.90 20.7347
2526.35 16.7385
2529.79 16.5862
2531.51 18.3502
2533.23 22.3640
2534.95 30.8686
2535.81 38.4213
2536.67 50.1073
2537.53 69.0771
2538.39 101.675
2539.25 161.600
2540.11 276.209
2540.91 449.665
2541.70 574.317
2542.50 471.230
2543.29 302.852
2544.08 192.322
2544.87 128.993
2545.66 91.7423
2546.45 68.5265
2548.04 42.5981
2549.62 29.1877
2551.20 21.2524
2552.78 16.0676
2555.95 9.69829
2559.11 6.02259
2560.69 4.98428
2562.27 4.82855
2563.06 5.36734
2563.86 6.67002
2564.65 9.30634
2565.44 14.4360
2565.83 18.6451
2566.23 24.6265
2566.62 33.3247
2567.02 46.1974
2567.42 65.8704
2567.81 96.6768
2568.21 146.288
2568.60 226.625
2569.15 406.458
2569.70 566.864
2570.25 503.541
2570.80 347.804
2571.46 218.949
2572.12 148.590
2572.78 108.617
2573.44 84.1062
2574.10 68.0032
2574.76 56.8105
2576.08 42.5335
2577.40 33.9370
2578.72 28.2487
2581.36 21.1770
2584.00 16.8733
2586.64 13.8281
2587.96 12.5292
2589.28 11.2603
2589.94 10.5976
2590.27 10.2559
2590.60 9.92194
2590.93 9.66280
2591.09 9.63881
2591.26 9.82650
2591.42 10.5864
2591.50 11.5022
2591.59 13.2138
2591.67 16.7119
2591.75 24.4712
2591.79 32.0552
2591.83 44.9244
2591.87 67.9775
2591.91 110.489
2591.96 184.999
2592.00 246.594
2592.04 213.143
2592.09 145.557
2592.13 96.3236
2592.18 68.8223
2592.22 52.2994
2592.27 42.2052
2592.31 35.3623
2592.36 30.6983
2592.45 24.6870
2592.54 21.1115
2592.63 18.7814
2592.81 15.9654
2593.00 14.3348
2593.18 13.2657
2593.54 11.9206
2593.91 11.0635
2594.27 10.4362
2595.00 9.49562
2596.45 8.06856
2597.90 6.76368
2599.36 5.36563
2600.08 4.60869
2600.81 3.86458
2601.54 3.39059
2601.90 3.54720
2602.27 4.47616
2602.45 5.55382
2602.63 7.41326
2602.81 10.6358
2602.99 16.3271
2603.17 26.9812
2603.27 35.7069
2603.36 48.2831
2603.45 66.8490
2603.54 94.9369
2603.63 138.274
2603.72 204.298
2603.86 367.012
2604.00 511.856
2604.14 456.200
2604.28 317.269
2604.37 245.687
2604.47 193.789
2604.65 129.717
2604.83 94.6213
2605.02 73.6989
2605.20 60.0874
2605.38 50.7413
2605.75 38.9915
2606.12 32.0047
2606.49 27.4530
2607.22 21.9156
2607.96 18.6833
2608.69 16.5623
2610.16 13.9182
2610.16 13.9154
2610.17 13.9059
2610.17 13.8978
2610.19 13.8815
2610.21 13.8479
2610.26 13.7815
2610.36 13.6518
2610.56 13.4051
2610.96 12.9529
2611.76 12.1794
2613.35 10.9910
2614.94 10.0901
2616.53 9.35052
2618.13 8.69355
2618.93 8.37466
2619.72 8.04941
2620.52 7.70747
2620.92 7.53303
2621.31 7.37312
2621.71 7.29475
2621.91 7.36087
2622.11 7.63070
2622.31 8.44427
2622.41 9.35866
2622.51 11.0352
2622.61 14.4345
2622.66 17.4583
2622.71 22.0749
2622.76 29.8033
2622.81 43.3632
2622.86 68.8596
2622.91 117.509
2622.95 196.431
2623.00 257.750
2623.05 219.553
2623.09 148.573
2623.12 113.932
2623.15 89.2773
2623.21 59.7763
2623.27 43.8444
2623.33 34.4433
2623.39 28.3745
2623.45 24.3476
2623.57 19.3702
2623.69 16.4754
2623.80 14.6469
2624.04 12.4807
2624.28 11.2641
2624.52 10.4892
2624.75 9.95121
2624.99 9.55361
2625.46 8.99752
2625.94 8.61749
2626.88 8.10630
2627.83 7.75302
2628.78 7.47760
2630.67 7.04489
2634.46 6.39592
2638.25 5.88026
2645.84 5.03728
2653.42 4.32595
2661.00 3.67705
2668.58 3.04189
2672.37 2.71483
2674.26 2.55021
2676.16 2.39566
2678.05 2.29364
2679.00 2.31011
2679.95 2.45974
2680.90 2.97846
2681.37 3.59427
2681.84 4.79058
2682.32 7.36866
2682.55 9.82355
2682.79 13.9502
2683.03 21.4830
2683.15 27.7427
2683.26 36.9114
2683.38 51.1662
2683.50 74.0236
2683.62 112.693
2683.74 179.409
2683.87 296.970
2684.00 383.646
2684.13 318.134
2684.26 207.038
2684.36 150.393
2684.45 112.321
2684.54 86.2487
2684.63 68.3904
2684.82 46.1970
2685.00 33.6980
2685.19 26.0081
2685.37 20.9420
2685.74 14.8697
2686.11 11.4783
2686.48 9.37114
2687.22 6.95852
2687.96 5.64327
2688.70 4.82632
2690.18 3.86256
2691.66 3.30093
2693.14 2.91912
2696.10 2.39811
2699.06 2.02074
2702.01 1.70159
2703.49 1.55020
2704.97 1.40288
2705.71 1.34127
2706.45 1.33908
2706.82 1.43996
2707.01 1.57753
2707.19 1.86350
2707.38 2.51764
2707.47 3.17668
2707.56 4.32515
2707.65 6.59069
2707.70 8.57076
2707.75 11.6825
2707.79 16.8985
2707.84 26.3917
2707.86 34.1758
2707.88 45.4765
2707.91 62.2162
2707.93 87.9126
2707.97 144.181
2708.00 184.623
2708.04 152.211
2708.07 97.9714
2708.10 68.3285
2708.13 49.6288
2708.15 37.4167
2708.18 29.2002
2708.23 19.3559
2708.29 13.9765
2708.34 10.7350
2708.40 8.63213
2708.50 6.15195
2708.61 4.79026
2708.72 3.95506
2708.94 3.01149
2709.15 2.50636
2709.37 2.19650
2709.80 1.83739
2710.23 1.63220
2710.66 1.49583
2711.53 1.31497
2713.26 1.09023
2714.99 0.928686
2718.44 0.673543
2721.90 0.476063
2725.36 0.360111
2727.09 0.365457
2727.95 0.399003
2728.82 0.466048
2729.68 0.585041
2730.54 0.789143
2731.41 1.14523
2732.27 1.80382
2732.71 2.35288
2733.14 3.16990
2733.57 4.45756
2734.00 6.64949
2734.43 10.8204
2734.65 14.4733
2734.87 20.2462
2735.08 30.0977
2735.30 48.7298
2735.41 64.7197
2735.51 89.0526
2735.62 127.351
2735.73 188.029
2735.87 300.707
2736.00 374.619
2736.14 299.034
2736.27 186.371
2736.40 115.963
2736.54 75.9518
2736.67 52.6225
2736.80 38.3372
2736.93 28.9647
2737.06 22.6237
2737.33 14.8073
2737.59 10.4040
2737.85 7.72381
2738.38 4.80205
2738.91 3.39502
2739.43 2.70099
2739.96 2.41911
2740.48 2.44167
2741.01 2.76052
2741.54 3.45116
2742.06 4.71955
2742.59 7.04954
2743.12 11.6971
2743.38 15.8604
2743.64 22.5506
2743.90 34.1901
2744.17 56.7844
2744.30 76.7679
2744.43 107.703
2744.56 158.374
2744.69 241.155
2744.85 387.625
2745.00 484.891
2745.15 387.379
2745.31 242.105
2745.45 151.639
2745.60 99.7323
2745.75 69.2280
2745.90 50.3177
2746.04 37.9581
2746.19 29.5000
2746.48 19.0897
2746.78 13.1641
2747.07 9.50871
2747.36 7.08669
2747.66 5.41305
2748.24 3.31061
2748.83 2.11163
2749.42 1.39629
2750.00 0.986442
2750.30 0.872114
2750.59 0.815432
2750.89 0.819723
2751.18 0.893284
2751.47 1.05242
2751.77 1.32228
2752.06 1.74781
2752.35 2.39718
2752.65 3.39682
2752.94 4.95763
2753.23 7.50806
2753.53 11.8945
2753.82 20.1604
2753.97 27.1637
2754.11 37.6430
2754.26 54.3118
2754.41 82.1908
2754.56 131.604
2754.70 221.079
2754.85 370.286
2755.00 482.498
2755.15 401.772
2755.30 261.735
2755.48 155.669
2755.65 100.296
2755.83 69.7599
2756.00 51.5602
2756.18 39.8814
2756.35 32.0418
2756.70 22.4305
2757.05 16.9655
2757.40 13.5768
2758.10 9.76675
2758.80 7.82700
2759.50 6.77267
2760.91 5.96233
2762.31 6.08797
2763.71 6.84562
2766.51 10.2617
2767.91 13.2560
2769.31 17.5793
2770.71 23.9074
2772.12 33.4023
2773.52 48.1541
2774.92 71.9894
2776.32 112.110
2777.72 180.719
2779.36 308.865
2781.00 411.443
2782.64 351.926
2784.28 238.776
2785.85 169.026
2787.42 139.845
2788.20 140.993
2788.98 157.753
2789.77 201.834
2790.55 297.865
2791.28 451.547
2792.00 565.695
2792.73 472.690
2793.45 316.705
2794.25 204.161
2795.04 141.711
2795.84 105.411
2796.64 82.6678
2798.23 56.5835
2799.82 42.3451
2801.41 33.4203
2803.00 27.2930
2806.19 19.3489
2809.37 14.3343
2812.56 10.7836
2814.15 9.30886
2815.74 7.88678
2816.54 7.11274
2817.33 6.16823
2817.73 5.55417
2817.93 5.19088
2818.13 4.79381
2818.33 4.42755
2818.43 4.34284
2818.53 4.48902
2818.63 5.29028
2818.68 6.29254
2818.73 8.13558
2818.78 11.7922
2818.80 14.8779
2818.83 19.4173
2818.85 26.2591
2818.88 36.8370
2818.90 53.5391
2818.93 78.7881
2818.94 107.044
2818.96 142.425
2819.00 199.904
2819.02 200.039
2819.04 181.722
2819.07 128.231
2819.11 92.0344
2819.14 68.4186
2819.18 53.4562
2819.21 43.5752
2819.28 31.8313
2819.35 25.4255
2819.42 21.4071
2819.49 18.7253
2819.63 15.4340
2819.77 13.4873
2819.91 12.2231
2820.19 10.6667
2820.47 9.73668
2820.75 9.11600
2821.30 8.32588
2822.42 7.53149
2823.53 7.22116
2825.76 7.58297
2827.99 9.63597
2829.10 11.7433
2830.22 15.0769
2831.33 20.3832
2832.44 29.0324
2833.56 43.6990
2834.67 69.9563
2835.79 120.032
2836.34 161.344
2836.90 219.459
2837.95 381.877
2839.00 517.619
2840.05 446.903
2841.10 300.314
2842.34 184.587
2843.58 122.171
2844.82 86.9352
2846.06 65.4622
2847.30 51.3939
2848.54 41.6385
2851.02 29.1575
2853.49 21.5540
2855.97 16.3955
2860.93 9.59924
2865.89 4.97239
2868.37 3.12041
2870.85 1.65570
2872.09 1.19582
2872.71 1.08807
2873.32 1.10105
2873.94 1.28123
2874.56 1.69751
2875.18 2.45399
2875.80 3.70974
2876.42 5.72702
2877.04 8.93317
2877.66 14.0708
2878.28 22.4740
2878.90 36.7667
2879.52 62.1922
2880.14 110.125
2880.45 149.107
2880.76 203.121
2881.38 364.923
2882.00 505.988
2882.62 443.127
2883.24 299.852
2883.82 203.227
2884.40 143.112
2884.97 105.146
2885.55 79.9600
2886.70 49.3547
2887.86 31.2764
2889.01 18.6574
2889.59 13.5028
2890.17 9.13608
2890.74 6.35983
2891.03 6.38208
2891.18 7.08771
2891.32 8.51240
2891.46 10.9884
2891.61 14.9543
2891.75 21.1469
2891.90 30.6992
2892.04 45.5350
2892.19 68.3373
2892.33 103.681
2892.47 158.039
2892.61 230.721
2892.74 326.594
2893.00 512.243
2893.13 535.567
2893.26 502.832
2893.53 378.266
2893.74 292.923
2893.95 232.282
2894.16 189.648
2894.37 159.379
2894.78 120.227
2895.20 96.7287
2895.62 81.3165
2896.04 70.5083
2896.88 56.4108
2897.72 47.6248
2898.56 41.6079
2900.23 33.8557
2901.91 29.0113
2903.58 25.5597
2904.42 24.0256
2905.26 22.3129
2905.68 21.1841
2905.89 20.4600
2906.10 19.5603
2906.31 18.3877
2906.41 17.6771
2906.51 16.9206
2906.62 16.2858
2906.67 16.2233
2906.72 16.6633
2906.78 18.3826
2906.83 23.3635
2906.85 28.7122
2906.88 38.0385
2906.89 45.1468
2906.91 54.6893
2906.92 67.5153
2906.93 86.0282
2906.95 115.216
2906.97 155.199
2907.00 230.871
2907.02 238.140
2907.03 222.059
2907.07 168.929
2907.09 133.071
2907.12 108.618
2907.15 91.5488
2907.17 79.3989
2907.22 63.8033
2907.28 54.5325
2907.33 48.4304
2907.38 44.3009
2907.49 39.0193
2907.59 35.7960
2907.69 33.6739
2907.90 31.0284
2908.11 29.4616
2908.32 28.4316
2908.74 27.1818
2909.57 26.0786
2910.41 25.7955
2912.08 26.5779
2913.75 29.0811
2915.42 34.2705
2916.26 38.6997
2917.09 45.4546
2917.93 56.6652
2918.35 65.4234
2918.76 78.0165
2919.18 97.4375
2919.60 129.914
2919.81 155.189
2920.02 190.597
2920.22 241.156
2920.43 312.004
2920.72 432.480
2921.00 467.807
2921.28 325.411
2921.57 179.319
2921.71 132.895
2921.85 100.326
2922.13 61.7681
2922.41 42.6341
2922.70 32.9199
2923.26 25.8724
2923.82 25.6280
2924.95 32.2099
2926.08 43.5554
2927.21 59.4848
2928.34 81.6473
2929.46 112.800
2930.59 156.505
2932.80 286.102
2935.00 404.076
2937.21 362.136
2939.41 251.891
2941.85 165.109
2944.28 114.962
2946.71 85.1185
2949.15 66.0805
2951.58 52.9676
2954.02 43.0596
2955.24 38.5976
2956.45 33.8305
2957.06 30.9204
2957.37 29.1601
2957.67 27.0466
2957.97 24.3830
2958.13 22.7882
2958.28 21.0341
2958.43 19.3626
2958.51 18.8482
2958.58 19.0316
2958.66 20.9387
2958.73 27.2821
2958.77 34.1755
2958.81 45.9939
2958.85 66.3779
2958.89 101.342
2958.92 142.523
2958.94 195.472
2959.00 303.084
2959.03 319.053
2959.06 303.490
2959.11 236.410
2959.15 198.821
2959.18 170.033
2959.25 130.839
2959.32 106.764
2959.39 91.4909
2959.46 80.8892
2959.53 73.3759
2959.66 63.3012
2959.80 56.9477
2959.94 52.5787
2960.21 46.9259
2960.48 43.3696
2960.76 40.8716
2961.31 37.4711
2961.85 35.1427
2962.40 33.3604
2963.50 30.6476
2965.69 26.7823
2967.88 23.8580
2972.27 19.2722
2976.65 15.4671
2981.03 11.8575
2983.23 9.97044
2985.42 7.94272
2987.61 5.76065
2988.71 4.69151
2989.80 3.85602
2990.35 3.68916
2990.90 3.89706
2991.45 4.82506
2991.99 7.19193
2992.27 9.35660
2992.54 12.6141
2992.82 17.5431
2993.09 25.0960
2993.36 36.8826
2993.64 55.6742
2993.91 86.2056
2994.19 135.668
2994.59 259.084
2995.00 381.936
2995.20 388.895
2995.41 356.602
2995.82 257.664
2996.10 200.963
2996.39 159.794
2996.67 130.391
2996.95 109.146
2997.52 81.3049
2998.09 64.4556
2998.66 53.3881
2999.23 45.6282
3000.37 35.4609
3001.51 28.9191
3002.64 23.9186
3003.21 21.5059
3003.50 20.1884
3003.78 18.7017
3004.07 16.8921
3004.21 15.8034
3004.35 14.5536
3004.49 13.1755
3004.57 12.5511
3004.64 12.1859
3004.71 12.6290
3004.78 15.5929
3004.81 19.6276
3004.85 27.3323
3004.87 33.8684
3004.89 43.2008
3004.90 56.5463
3004.92 74.2541
3004.94 103.297
3004.96 141.591
3005.00 216.192
3005.02 225.677
3005.04 212.810
3005.08 163.172
3005.11 128.193
3005.15 104.205
3005.18 87.4722
3005.21 75.5632
3005.27 60.0700
3005.34 50.9848
3005.40 44.9694
3005.47 40.8400
3005.60 35.4407
3005.73 32.0956
3005.85 29.8068
3006.11 26.8323
3006.37 24.9314
3006.63 23.5696
3007.14 21.6677
3008.17 19.2842
3009.21 17.7071
3011.27 15.6916
3013.33 14.8865
3015.39 16.0257
3016.42 18.1267
3017.46 22.3957
3018.49 31.0314
3019.52 49.4030
3020.03 66.1695
3020.55 92.4393
3021.07 134.838
3021.58 203.323
3022.29 353.943
3023.00 485.537
3023.71 429.363
3024.42 297.401
3025.13 202.237
3025.85 145.098
3026.56 110.137
3027.27 87.6434
3028.70 61.4174
3030.13 47.1045
3031.55 38.2046
3032.98 32.1194
3035.83 24.1177
3038.69 18.6864
3040.12 16.4347
3041.54 14.4342
3042.97 12.9232
3043.68 12.6575
3044.40 13.2388
3045.11 15.8361
3045.47 18.7704
3045.82 23.8518
3046.18 32.8590
3046.54 49.2893
3046.89 80.7571
3047.25 142.117
3047.62 258.237
3048.00 370.086
3048.38 340.706
3048.75 244.892
3048.99 196.178
3049.22 159.684
3049.69 112.826
3050.16 86.0253
3050.62 69.4283
3051.09 58.3873
3051.56 50.5994
3052.50 40.4184
3053.43 34.0240
3054.37 29.5697
3056.24 23.4559
3058.11 18.9070
3059.04 16.7638
3059.98 14.5066
3060.92 11.9459
3061.38 10.4963
3061.85 8.95710
3062.32 7.54665
3062.55 7.16666
3062.79 7.48141
3063.02 9.56784
3063.14 12.0787
3063.25 16.5306
3063.37 24.4482
3063.49 38.8142
3063.61 65.5939
3063.66 86.6989
3063.72 115.468
3063.86 224.638
3064.00 338.495
3064.07 348.997
3064.14 323.974
3064.28 240.291
3064.44 165.772
3064.60 121.951
3064.76 95.4148
3064.92 78.5310
3065.08 66.9777
3065.24 58.7676
3065.56 47.8942
3065.88 41.0986
3066.21 36.4580
3066.85 30.4970
3067.49 26.7476
3068.13 24.1051
3069.41 20.4604
3070.70 18.0550
3071.34 17.3350
3071.98 17.2677
3072.62 18.7768
3072.94 20.9104
3073.26 25.0371
3073.58 33.2382
3073.90 50.5313
3074.06 66.2647
3074.22 90.6865
3074.38 129.723
3074.54 192.397
3074.77 335.814
3075.00 464.803
3075.23 415.593
3075.46 291.883
3075.72 192.667
3075.98 137.021
3076.24 104.654
3076.50 84.4892
3076.76 71.0524
3077.02 61.6810
3077.54 49.6250
3078.06 42.3085
3078.58 37.4550
3079.62 31.4189
3080.66 27.7859
3081.70 25.3241
3083.78 22.1039
3085.86 19.9818
3087.95 18.3913
3092.11 15.9584
3096.27 13.9261
3100.43 11.9111
3102.51 10.8196
3103.56 10.2505
3104.60 9.69740
3105.64 9.28246
3106.16 9.26099
3106.68 9.59951
3107.20 10.8951
3107.46 12.4160
3107.72 15.2765
3107.98 21.0481
3108.11 26.1688
3108.24 34.1566
3108.37 47.2607
3108.50 70.1227
3108.63 112.813
3108.76 195.946
3108.88 327.687
3109.00 430.332
3109.12 364.772
3109.24 243.625
3109.38 150.930
3109.53 101.212
3109.67 73.3776
3109.81 56.6613
3109.95 45.7547
3110.09 38.3348
3110.37 29.0086
3110.65 23.5224
3110.93 19.9828
3111.49 15.6985
3112.06 13.1875
3112.62 11.5354
3113.74 9.63051
3114.87 9.46110
3115.43 10.5630
3115.99 13.3867
3116.56 19.8466
3116.84 25.7295
3117.12 34.8129
3117.40 49.2417
3117.68 72.6539
3117.96 111.779
3118.24 177.626
3118.62 325.971
3119.00 467.088
3119.38 427.900
3119.76 305.123
3120.17 207.536
3120.58 149.910
3120.99 115.160
3121.40 92.9482
3121.81 77.8883
3122.21 67.2220
3123.03 53.3113
3123.85 44.7707
3124.67 39.0650
3126.31 31.9561
3127.94 27.7014
3129.58 24.8488
3132.85 21.1836
3136.13 18.8118
3139.40 17.0147
3141.04 16.2075
3142.67 15.3851
3143.49 14.9247
3143.90 14.6629
3144.31 14.3611
3144.72 13.9889
3144.92 13.7585
3145.13 13.4858
3145.33 13.1609
3145.44 12.9902
3145.54 12.8489
3145.64 12.8563
3145.69 13.0335
3145.74 13.5112
3145.79 14.6901
3145.84 17.7175
3145.87 20.9863
3145.90 26.5673
3145.92 37.4435
3145.93 46.3125
3145.95 58.3390
3145.96 75.3407
3145.97 95.9677
3146.00 132.000
3146.03 120.108
3146.05 88.2770
3146.09 61.1867
3146.12 46.0205
3146.15 37.3381
3146.18 32.1199
3146.21 28.5467
3146.24 26.0602
3146.31 22.9231
3146.37 21.0029
3146.43 19.7551
3146.56 18.2070
3146.69 17.2940
3146.82 16.6886
3147.07 15.9240
3147.32 15.4406
3147.58 15.0948
3148.08 14.5978
3149.10 13.9150
3150.11 13.3755
3152.14 12.4047
3154.17 11.4283
3156.20 10.3665
3158.22 9.17713
3160.25 7.90514
3161.27 7.36559
3162.28 7.18074
3162.28 7.18113
3162.29 7.18257
3162.30 7.18408
3162.31 7.18729
3162.34 7.19429
3162.41 7.21174
3162.53 7.26041
3162.78 7.42529
3163.28 8.14087
3163.79 9.74307
3164.29 13.0781
3164.79 20.0857
3165.04 26.2535
3165.29 35.5435
3165.54 50.0056
3165.79 72.9603
3166.04 110.604
3166.29 172.162
3166.65 316.157
3167.00 453.753
3167.35 415.842
3167.71 296.709
3168.09 201.615
3168.48 145.642
3168.86 111.978
3169.25 90.5104
3169.63 76.0145
3170.01 65.7396
3170.78 52.3819
3171.55 44.2197
3172.32 38.7970
3173.85 32.1020
3175.39 28.1568
3176.93 25.5638
3180.00 22.3481
3180.00 38.9759
3831.19 36.1134
4000.00 35.3714
4000.00 35.3713
4000.00 35.3713
5000.00 32.2291
5871.20 30.2002
6000.00 29.9002
7000.00 28.0829
8000.00 26.6121
8617.74 25.8565
9000.00 25.3889
10000.0 24.3500
12500.0 22.3084
12649.1 22.2176
15000.0 20.7863
17000.0 19.8101
18566.4 19.1882
20000.0 18.6191
25000.0 17.1114
27251.7 16.6008
30000.0 15.9776
35000.0 15.0805
40000.0 14.3450
50000.0 13.1937
58712.0 12.4311
60000.0 12.3183
67687.9 11.7688
67688.0 11.7688
67688.0 10.9260
70000.0 10.7293
73004.6 10.5254
73004.7 10.5254
80000.0 10.0507
86177.4 9.70804
90000.0 9.49600
100000 9.03421
126491 8.25229
150000 7.55838
185664 7.02469
200000 6.81016
250000 6.41257
272517 6.32291
300000 6.21347
400000 6.13593
440000 6.18743
495000 6.25825
495000 6.25825
500000 6.26469
600000 6.46086
662248 6.58297
662248 6.58297
700000 6.65703
753488 6.73649
753489 6.73649
785882 6.78461
785882 6.78461
800000 6.80558
900000 6.97515
926233 7.01106
926233 7.01106
927129 7.01228
927129 7.01229
943572 7.03479
943573 7.03479
1.00000E+06 7.11202
1.01826E+06 7.13077
1.03113E+06 7.14399
1.05873E+06 7.17233
1.05873E+06 7.17233
1.09280E+06 7.20731
1.09281E+06 7.20732
1.09421E+06 7.20876
1.10000E+06 7.21471
1.11893E+06 7.22808
1.11894E+06 7.22809
1.15827E+06 7.25588
1.15827E+06 7.25589
1.16913E+06 7.26356
1.16913E+06 7.26356
1.17041E+06 7.26447
1.17041E+06 7.26447
1.20000E+06 7.28538
1.22128E+06 7.29439
1.22215E+06 7.29476
1.22215E+06 7.29476
1.25843E+06 7.31012
1.29455E+06 7.32542
1.29455E+06 7.32542
1.30000E+06 7.32773
1.32597E+06 7.33247
1.32597E+06 7.33247
1.33553E+06 7.33421
1.33553E+06 7.33421
1.34792E+06 7.33648
1.34792E+06 7.33648
1.38072E+06 7.34246
1.38448E+06 7.34315
1.40000E+06 7.34598
1.41065E+06 7.34580
1.41065E+06 7.34580
1.41105E+06 7.34579
1.41106E+06 7.34579
1.41369E+06 7.34574
1.41369E+06 7.34574
1.43754E+06 7.34533
1.43754E+06 7.34533
1.50000E+06 7.34425
1.57498E+06 7.32575
1.58496E+06 7.32329
1.58980E+06 7.32210
1.60000E+06 7.31958
1.70000E+06 7.29491
1.73318E+06 7.27950
1.80000E+06 7.24847
1.80277E+06 7.24719
1.82351E+06 7.23756
1.84317E+06 7.22843
1.87258E+06 7.21477
1.88296E+06 7.20995
1.89654E+06 7.20364
1.90000E+06 7.20204
2.00000E+06 7.14403
2.50000E+06 6.78212
3.00000E+06 6.35627
3.50000E+06 5.91368
3.87680E+06 5.59720
4.00000E+06 5.49372
5.00000E+06 4.84558
5.79607E+06 4.58901
5.79607E+06 4.58901
6.00000E+06 4.52328
7.00000E+06 4.46294
8.00000E+06 4.54100
8.02648E+06 4.54440
8.02648E+06 4.54440
9.00000E+06 4.66925
1.00000E+07 4.80396
1.10000E+07 4.93867
1.20000E+07 5.05278
1.30000E+07 5.13993
1.36665E+07 5.17470
1.36665E+07 5.17470
1.38195E+07 5.18268
1.40000E+07 5.19210
1.45000E+07 5.19864
1.50000E+07 5.20518
1.60000E+07 5.17834
1.70000E+07 5.11391
1.80000E+07 5.01795
1.90000E+07 4.89932
2.00000E+07 4.76751