Nd-144(n,tot) ENDF/B-VII.1
Energy(eV) XS(b)
1.00000E-05 182.227
1.25000E-05 163.142
1.50000E-05 149.054
2.00000E-05 129.279
2.50000E-05 115.783
3.12500E-05 103.713
3.75000E-05 94.8026
5.00000E-05 82.2956
6.25000E-05 73.7604
7.50000E-05 67.4600
0.000100000 58.6163
0.000125000 52.5810
0.000150000 48.1259
0.000200000 41.8724
0.000275000 35.9222
0.000350000 32.0063
0.000425000 29.1793
0.000500000 27.0151
0.000625000 24.3160
0.000750000 22.3236
0.00100000 19.5270
0.00125000 17.6184
0.00150000 16.2096
0.00200000 14.2321
0.00275000 12.3504
0.00350000 11.1120
0.00425000 10.2180
0.00500000 9.53362
0.00625000 8.68004
0.00750000 8.04995
0.0100000 7.16546
0.0125000 6.56183
0.0150000 6.11622
0.0200000 5.49068
0.0253000 5.04221
0.0314750 4.67019
0.0376500 4.39388
0.0500000 4.00380
0.0625000 3.73343
0.0750000 3.53374
0.100000 3.25317
0.125000 3.06143
0.150000 2.91966
0.200000 2.72015
0.275000 2.52937
0.350000 2.40294
0.500000 2.23996
0.750000 2.08312
1.00000 1.98627
1.50000 1.86471
2.00000 1.78570
2.75000 1.70179
3.50000 1.63855
5.00000 1.54138
7.50000 1.41818
10.0000 1.31686
15.0000 1.14529
20.0000 0.997558
27.5000 0.805192
35.0000 0.640033
50.0000 0.377016
62.5000 0.219167
68.7500 0.160194
75.0000 0.114484
81.2500 0.0822146
84.3750 0.0712183
85.9375 0.0670279
87.5000 0.0637196
89.0625 0.0613021
90.6250 0.0597846
92.1875 0.0591770
93.7500 0.0594898
95.3125 0.0607343
96.8750 0.0629223
98.4375 0.0660663
100.000 0.0701796
103.125 0.0813710
106.250 0.0966173
112.500 0.139820
118.750 0.201015
125.000 0.281663
137.500 0.508528
150.000 0.838167
162.500 1.29496
175.000 1.91247
187.500 2.73726
200.000 3.83487
220.703 6.52307
241.405 10.9769
262.108 18.7273
282.810 33.3085
293.161 45.6542
303.513 64.3146
313.864 94.0896
324.215 145.187
334.566 242.307
339.742 326.454
344.918 457.108
350.093 673.206
355.269 1060.23
360.444 1821.71
363.032 2475.92
365.620 3425.99
369.710 5574.63
373.800 7036.51
377.890 5679.95
381.980 3603.62
385.668 2358.45
389.356 1612.16
393.044 1157.18
396.733 866.809
404.109 537.038
411.485 366.028
418.861 266.528
426.238 203.592
440.990 131.267
455.743 92.6221
470.495 69.3991
485.248 54.2510
500.000 43.7535
529.169 30.5011
558.337 22.5073
587.506 17.1906
616.675 13.3649
645.843 10.3892
675.012 7.80066
689.596 6.46067
696.888 5.70821
704.180 4.83677
707.827 4.32820
711.473 3.74698
715.119 3.06727
718.765 2.26210
720.588 1.81259
722.411 1.35242
724.234 0.947455
725.145 0.820346
725.601 0.796108
726.057 0.812112
726.513 0.884185
726.741 0.947926
726.969 1.03478
727.196 1.14913
727.424 1.29629
727.652 1.48273
727.880 1.71626
728.336 2.36658
728.792 3.35776
729.247 4.86712
729.703 7.18726
730.159 10.8289
730.615 16.7287
731.070 26.7492
731.526 44.9423
731.754 59.7874
731.982 81.3947
732.210 114.117
732.438 166.183
732.665 254.572
732.893 417.326
733.007 551.874
733.121 747.988
733.235 1039.70
733.349 1473.12
733.525 2460.03
733.700 3207.20
733.876 2674.13
734.052 1740.24
734.182 1247.24
734.312 918.071
734.442 698.547
734.572 548.447
734.831 365.164
735.091 262.990
735.351 200.461
735.610 159.413
736.130 110.314
736.649 82.9228
737.169 65.9206
737.688 54.5379
738.208 46.4802
739.246 35.9743
740.285 29.5248
741.324 25.2101
742.363 22.1413
744.441 18.0893
746.518 15.5441
748.596 13.7965
750.674 12.5187
754.829 10.7606
758.985 9.58933
763.140 8.73632
767.296 8.07503
775.606 7.08742
783.917 6.35522
800.539 5.27295
833.783 3.77763
867.026 2.67375
933.513 1.05027
966.757 0.477942
983.378 0.263120
991.689 0.177574
1000.00 0.108894
1008.16 0.0599789
1012.24 0.0431702
1016.32 0.0319305
1020.40 0.0266481
1024.48 0.0277596
1028.56 0.0357410
1032.64 0.0511112
1036.72 0.0744536
1040.80 0.106400
1048.96 0.198961
1057.12 0.335310
1065.28 0.523411
1081.59 1.09639
1097.91 2.02812
1114.23 3.49248
1130.55 5.77346
1146.87 9.35612
1163.19 15.1131
1179.51 24.7243
1195.83 41.7135
1203.99 55.2095
1212.14 74.3658
1220.30 102.467
1228.46 145.356
1236.62 214.090
1244.78 330.741
1252.94 541.179
1261.10 933.748
1269.20 1574.32
1277.30 2060.59
1285.40 1720.43
1293.50 1123.87
1298.69 842.902
1303.89 644.124
1314.27 404.565
1324.66 277.019
1335.04 202.565
1345.42 155.541
1355.81 123.929
1376.58 85.1679
1397.35 62.9226
1418.12 48.7416
1459.66 31.7708
1501.19 21.5783
1521.96 17.5565
1542.73 13.7652
1563.50 9.82041
1573.89 7.62998
1584.27 5.18970
1594.66 2.50545
1599.85 1.22763
1602.45 0.718649
1603.74 0.533386
1605.04 0.419065
1605.69 0.396720
1606.34 0.403253
1606.99 0.443788
1607.64 0.524481
1608.29 0.652684
1608.94 0.837208
1610.23 1.41988
1611.53 2.38748
1612.83 3.91224
1614.13 6.25863
1615.43 9.84499
1616.72 15.3564
1618.02 23.9624
1619.32 37.7604
1620.62 60.7424
1621.92 101.064
1623.21 176.790
1623.86 239.639
1624.51 331.040
1625.16 465.968
1625.81 664.710
1626.91 1175.62
1628.00 1615.76
1629.10 1416.38
1630.19 966.487
1631.14 680.572
1632.09 497.024
1633.04 378.900
1633.99 300.076
1635.88 205.739
1637.78 153.659
1639.68 121.657
1641.58 100.418
1645.37 74.4711
1649.17 59.4699
1652.96 49.7920
1660.55 38.0570
1668.14 31.0814
1675.73 26.1716
1679.53 24.0015
1683.33 21.6394
1685.22 20.1241
1686.17 19.1532
1687.12 17.9087
1687.60 17.1178
1688.07 16.1561
1688.54 14.9406
1689.02 13.3487
1689.26 12.3469
1689.49 11.1753
1689.73 9.81021
1689.97 8.30162
1690.09 7.57848
1690.20 7.03820
1690.32 6.99695
1690.38 7.38293
1690.44 8.27361
1690.50 10.0434
1690.56 13.2445
1690.59 15.7611
1690.62 19.0401
1690.65 23.6430
1690.68 29.7337
1690.71 38.4727
1690.74 50.8576
1690.77 68.7671
1690.80 94.2248
1690.83 134.032
1690.86 193.772
1690.89 292.140
1690.92 443.823
1690.96 803.204
1691.00 1119.63
1691.02 1114.30
1691.04 1002.55
1691.09 697.766
1691.12 514.592
1691.15 391.050
1691.19 308.156
1691.22 252.424
1691.29 181.053
1691.36 140.843
1691.42 115.180
1691.49 98.1270
1691.63 76.7892
1691.76 64.3099
1691.90 56.2261
1692.03 50.6039
1692.17 46.4848
1692.44 40.8747
1692.71 37.2421
1692.98 34.6988
1693.25 32.8158
1693.79 30.2029
1694.33 28.4600
1694.87 27.1997
1695.41 26.2364
1696.49 24.8281
1697.57 23.8204
1699.72 22.4018
1701.88 21.3839
1704.04 20.5740
1708.36 19.2877
1717.00 17.3624
1725.64 15.8591
1742.91 13.4756
1760.19 11.5426
1794.74 8.30151
1829.29 5.36780
1863.85 2.48499
1881.12 1.14853
1889.76 0.597248
1894.08 0.381448
1898.40 0.226417
1900.56 0.178637
1902.72 0.155447
1904.88 0.161218
1907.04 0.201172
1909.20 0.281595
1911.35 0.409903
1913.51 0.595244
1915.67 0.848365
1919.99 1.61443
1924.31 2.85470
1928.63 4.79420
1932.95 7.78853
1937.27 12.4190
1941.59 19.6753
1945.91 31.3255
1950.23 50.7163
1954.54 84.6304
1958.86 147.911
1961.02 200.068
1963.18 275.355
1965.34 385.528
1967.50 546.237
1971.25 970.253
1975.00 1337.86
1978.75 1177.76
1982.50 807.593
1986.88 510.141
1991.25 345.876
1995.63 251.898
2000.00 194.121
2006.06 144.958
2012.12 114.691
2018.18 94.5868
2024.24 80.4438
2036.36 62.1127
2048.48 50.9045
2060.60 43.4093
2072.72 38.0683
2084.84 34.0824
2087.87 33.2457
2089.39 32.8512
2090.90 32.4765
2092.42 32.1329
2093.18 31.9836
2093.93 31.8676
2094.69 31.8308
2095.07 31.8848
2095.45 32.0560
2095.64 32.2311
2095.83 32.5192
2096.02 33.0199
2096.21 33.9495
2096.30 34.7392
2096.40 35.9394
2096.49 37.8810
2096.59 41.2614
2096.63 44.0645
2096.68 48.1032
2096.73 54.3580
2096.77 64.7789
2096.82 84.5730
2096.85 101.580
2096.87 126.540
2096.89 169.108
2096.92 241.115
2096.94 387.253
2096.95 512.962
2096.96 677.559
2096.98 1076.70
2097.00 1324.18
2097.02 1054.22
2097.04 677.423
2097.06 414.204
2097.08 278.636
2097.10 201.198
2097.11 154.123
2097.13 123.780
2097.15 103.228
2097.19 78.1382
2097.23 63.7870
2097.27 55.2479
2097.34 45.7448
2097.42 40.8145
2097.50 37.9968
2097.57 36.2132
2097.65 35.0112
2097.80 33.5293
2097.95 32.6850
2098.11 32.1523
2098.26 31.7919
2098.57 31.3313
2098.87 31.0483
2099.48 30.6975
2100.09 30.4634
2100.70 30.2771
2101.92 29.9648
2103.15 29.6876
2104.37 29.4277
2106.81 28.9370
2111.70 28.0302
2116.58 27.1977
2136.13 24.4191
2175.21 20.5642
2214.30 17.9750
2253.39 16.0812
2331.56 13.4103
2351.11 12.8847
2370.65 12.3982
2380.42 12.1689
2385.31 12.0585
2390.19 11.9523
2395.08 11.8543
2397.52 11.8119
2399.97 11.7802
2402.41 11.7748
2403.63 11.7967
2404.85 11.8592
2405.46 11.9214
2406.07 12.0240
2406.69 12.2015
2407.30 12.5350
2407.60 12.8206
2407.91 13.2576
2408.21 13.9741
2408.52 15.2645
2408.67 16.3397
2408.82 17.9578
2408.98 20.5536
2409.13 25.0619
2409.28 34.0865
2409.36 42.3200
2409.43 55.9750
2409.51 81.4530
2409.55 102.741
2409.59 135.090
2409.62 187.280
2409.66 277.968
2409.70 449.579
2409.72 592.111
2409.74 793.747
2409.77 1271.42
2409.80 1576.85
2409.83 1255.88
2409.86 794.234
2409.89 566.589
2409.91 414.544
2409.93 313.039
2409.95 246.315
2409.99 160.920
2410.04 114.895
2410.08 86.4951
2410.12 68.5990
2410.21 47.6663
2410.30 36.3040
2410.38 29.5481
2410.47 25.2125
2410.56 22.2953
2410.73 18.6532
2410.90 16.5905
2411.08 15.2971
2411.25 14.4413
2411.60 13.4041
2411.95 12.8236
2412.29 12.4648
2412.64 12.2271
2413.33 11.9370
2414.03 11.7709
2414.72 11.6638
2415.41 11.5888
2416.80 11.4879
2418.19 11.4194
2420.96 11.3218
2423.73 11.2456
2426.51 11.1780
2432.06 11.0539
2437.61 10.9366
2443.15 10.8226
2454.25 10.6006
2476.44 10.1705
2498.64 9.75110
2543.02 8.91616
2587.41 8.03095
2631.79 6.98299
2653.99 6.32649
2676.18 5.49949
2687.28 4.98423
2698.37 4.36715
2709.47 3.60779
2720.57 2.65085
2726.11 2.08051
2731.66 1.45000
2737.21 0.793215
2739.98 0.489894
2742.76 0.250838
2744.15 0.177974
2745.53 0.156206
2746.23 0.171441
2746.92 0.208924
2747.61 0.273418
2748.31 0.370410
2749.00 0.507151
2749.69 0.691832
2751.08 1.25123
2752.47 2.17070
2753.85 3.64727
2755.24 6.01067
2756.63 9.83781
2758.02 16.1941
2759.40 27.1823
2760.79 47.3067
2761.48 63.6861
2762.18 87.2186
2762.87 122.048
2763.56 174.891
2764.26 257.171
2764.95 385.299
2765.98 682.038
2767.00 938.290
2768.03 821.862
2769.05 560.166
2769.79 416.947
2770.53 317.884
2771.28 249.870
2772.02 202.175
2773.50 142.231
2774.99 107.643
2776.47 85.8288
2777.95 71.1253
2780.92 52.9666
2783.89 42.4234
2786.86 35.6525
2789.82 30.9798
2792.79 27.5833
2798.73 23.0020
2804.66 20.0710
2810.60 18.0398
2816.53 16.5495
2828.40 14.5027
2840.27 13.1536
2852.14 12.1873
2864.01 11.4528
2887.75 10.3886
2911.49 9.63039
2935.23 9.04246
2941.16 8.91390
2947.10 8.79230
2953.03 8.68466
2954.52 8.66706
2956.00 8.67060
2956.74 8.70104
2957.48 8.81253
2957.85 8.97767
2958.22 9.44594
2958.41 10.0810
2958.50 10.6971
2958.60 11.7679
2958.69 13.9371
2958.73 15.9239
2958.78 19.2433
2958.83 25.5815
2958.85 30.9146
2958.87 39.1260
2958.90 52.6200
2958.92 76.7097
2958.94 124.207
2958.95 167.421
2958.97 225.215
2958.98 359.212
2959.00 441.992
2959.02 351.357
2959.04 225.304
2959.05 155.017
2959.06 113.330
2959.08 86.0939
2959.09 67.7788
2959.12 45.3198
2959.14 33.7287
2959.17 26.5989
2959.19 22.2298
2959.25 17.1629
2959.30 14.4190
2959.35 12.8011
2959.46 11.0815
2959.56 10.2194
2959.67 9.73458
2959.88 9.22898
2960.30 8.84727
2960.72 8.70433
2961.57 8.58965
2962.41 8.53880
2965.78 8.44256
2972.53 8.31388
2979.28 8.19662
2986.02 8.08426
3013.01 7.66737
3040.00 7.28709
3053.49 7.10647
3060.24 7.01831
3063.61 6.97607
3065.30 6.96082
3066.14 6.97575
3066.56 7.06881
3066.67 7.16521
3066.77 7.42276
3066.82 7.75796
3066.88 8.57673
3066.90 9.58238
3066.93 11.7295
3066.94 13.8946
3066.96 17.8158
3066.97 25.7276
3066.98 33.3941
3066.98 43.5619
3066.99 66.5374
3067.00 80.2019
3067.01 66.5436
3067.02 43.5697
3067.03 28.6148
3067.04 20.7486
3067.05 16.0078
3067.06 13.4821
3067.08 10.6761
3067.10 9.38382
3067.14 8.17409
3067.18 7.68544
3067.27 7.28857
3067.35 7.13668
3067.68 6.97702
3068.35 6.92700
3069.67 6.89920
3072.33 6.86237
3077.64 6.79388
3088.26 6.65934
3109.49 6.39417
3130.73 6.13229
3141.35 6.00694
3144.00 5.98083
3146.66 5.96781
3147.98 5.97952
3149.31 6.04370
3149.97 6.14783
3150.64 6.45519
3150.97 6.88330
3151.14 7.30653
3151.30 8.06757
3151.47 9.64627
3151.55 11.1625
3151.63 13.8098
3151.72 19.0596
3151.76 23.9384
3151.80 31.8248
3151.84 46.6169
3151.86 59.1286
3151.88 77.0669
3151.90 107.129
3151.92 155.948
3151.94 250.608
3151.96 424.481
3151.98 675.855
3152.00 843.594
3152.02 676.207
3152.04 424.925
3152.05 263.812
3152.07 173.573
3152.09 121.556
3152.11 91.1773
3152.13 70.1396
3152.14 55.8937
3152.18 38.8675
3152.21 28.9893
3152.25 23.0773
3152.32 16.3811
3152.39 12.9436
3152.46 10.9506
3152.60 8.86045
3152.75 7.82998
3152.89 7.25405
3153.17 6.65910
3153.45 6.37382
3153.74 6.21434
3154.30 6.04946
3155.43 5.92001
3156.57 5.86468
3158.83 5.80629
3161.10 5.76711
3170.15 5.64201
3188.27 5.40695
3224.51 4.92195
3260.74 4.39758
3278.86 4.11449
3287.92 3.96671
3292.45 3.89214
3294.72 3.85883
3295.85 3.85969
3296.41 3.92781
3296.56 4.00314
3296.70 4.20928
3296.77 4.48143
3296.84 5.18096
3296.87 6.05082
3296.91 8.00646
3296.93 10.1643
3296.94 14.0942
3296.95 17.7348
3296.96 23.4817
3296.97 32.9659
3296.98 48.4009
3296.99 75.3414
3297.00 92.8002
3297.01 75.3660
3297.02 48.2120
3297.03 34.3870
3297.04 26.1433
3297.05 16.3624
3297.07 11.6935
3297.08 9.30560
3297.11 6.78566
3297.14 5.69091
3297.20 4.74329
3297.26 4.36447
3297.37 4.06844
3297.49 3.95639
3297.96 3.83649
3298.91 3.79062
3300.79 3.75024
3304.56 3.68212
3312.10 3.54633
3327.17 3.26266
3357.32 2.63496
3387.47 1.91081
3417.63 1.08794
3432.70 0.661012
3447.78 0.272313
3455.32 0.122547
3459.08 0.0687113
3462.85 0.0349678
3466.62 0.0275815
3468.51 0.0362469
3470.39 0.0547574
3472.28 0.0845753
3474.16 0.127333
3476.04 0.184968
3477.93 0.259715
3481.70 0.471448
3485.47 0.789085
3489.24 1.24941
3493.00 1.90410
3496.77 2.82714
3500.54 4.12658
3504.31 5.96394
3508.08 8.58648
3511.85 12.3886
3515.62 18.0153
3519.39 26.5725
3523.16 40.0482
3526.92 62.2142
3530.69 100.632
3534.46 171.016
3538.23 303.961
3542.12 537.900
3546.00 739.366
3549.89 647.507
3553.77 441.431
3556.12 344.446
3558.47 272.906
3563.17 182.388
3567.87 131.611
3572.57 100.809
3577.27 80.7595
3581.98 66.9484
3591.38 49.5398
3600.78 39.2459
3610.18 32.5489
3619.58 27.8768
3624.28 26.0363
3626.63 25.2110
3627.81 24.8222
3628.39 24.6442
3628.69 24.6001
3628.84 24.7281
3628.91 25.2244
3628.95 26.4465
3628.96 28.3745
3628.98 34.2676
3628.99 40.3344
3629.00 44.0973
3629.01 40.3334
3629.02 34.2618
3629.03 29.3507
3629.05 27.1575
3629.07 25.5971
3629.13 24.7947
3629.24 24.4753
3629.46 24.3203
3629.90 24.1596
3630.77 23.8849
3632.53 23.3651
3636.04 22.3966
3643.05 20.6924
3657.09 17.9618
3685.16 13.9472
3699.20 12.1319
3706.22 11.1279
3713.23 9.94463
3720.25 8.39217
3723.76 7.35791
3727.27 6.02587
3729.03 5.19817
3730.78 4.22819
3732.53 3.09152
3734.29 1.80857
3736.04 0.620541
3736.48 0.443962
3736.92 0.391057
3737.36 0.541507
3737.58 0.731050
3737.80 1.02676
3738.02 1.46240
3738.24 2.07596
3738.46 2.92990
3738.68 4.09348
3738.90 5.68449
3739.11 7.83796
3739.33 10.7728
3739.55 14.7985
3739.77 20.4045
3739.99 28.2412
3740.21 39.4187
3740.43 55.6720
3740.65 79.9626
3740.87 116.750
3741.09 173.684
3741.31 261.848
3741.65 485.685
3742.00 696.784
3742.35 634.278
3742.69 447.629
3743.08 297.662
3743.46 210.384
3743.85 158.482
3744.23 125.658
3744.61 103.634
3745.00 88.1006
3745.77 68.0437
3746.53 55.8641
3747.30 47.8085
3748.84 37.9480
3750.37 32.2024
3751.91 28.4746
3752.68 27.0699
3753.44 25.8993
3753.83 25.4064
3754.21 25.0302
3754.40 24.9615
3754.59 25.1932
3754.69 25.6915
3754.79 27.1778
3754.83 29.1176
3754.86 30.9017
3754.88 33.8489
3754.91 39.1893
3754.92 43.6235
3754.93 50.2487
3754.94 60.6811
3754.95 78.1687
3754.97 109.506
3754.98 164.461
3754.99 250.846
3755.00 305.162
3755.01 250.954
3755.02 164.579
3755.03 125.189
3755.04 99.8498
3755.05 80.1546
3755.05 68.2425
3755.07 52.3655
3755.08 43.9855
3755.10 38.4611
3755.11 34.8951
3755.14 30.8388
3755.17 28.5626
3755.20 27.2368
3755.26 25.7608
3755.37 24.5097
3755.49 23.9634
3755.73 23.4106
3755.96 23.0704
3756.43 22.5616
3756.90 22.1367
3757.83 21.4008
3758.77 20.7638
3760.64 19.6976
3762.51 18.8351
3766.26 17.5134
3770.00 16.5390
3777.49 15.1726
3779.36 14.9086
3781.24 14.6676
3783.11 14.4522
3784.04 14.3792
3784.51 14.4525
3784.63 14.5625
3784.75 14.8771
3784.80 15.2951
3784.86 16.3278
3784.89 17.5961
3784.92 20.3204
3784.94 23.2010
3784.95 28.0802
3784.97 38.7322
3784.97 47.6146
3784.98 61.1738
3784.99 90.5005
3785.00 108.143
3785.01 90.5221
3785.02 61.1998
3785.03 47.6378
3785.04 37.7445
3785.05 27.6296
3785.07 22.4882
3785.08 19.9072
3785.11 17.3025
3785.14 16.1398
3785.21 15.1604
3785.27 14.7677
3785.39 14.4552
3785.52 14.3312
3786.01 14.1663
3787.00 14.0366
3788.97 13.8395
3790.95 13.6609
3792.93 13.4940
3800.83 12.9149
3816.64 12.0365
3848.26 10.8483
3911.50 9.39056
3974.74 8.43201
4006.36 8.04727
4022.17 7.87105
4030.08 7.78668
4034.03 7.74675
4036.00 7.73284
4036.99 7.74902
4037.49 7.84505
4037.73 8.20973
4037.79 8.55525
4037.86 9.42765
4037.89 10.4688
4037.92 12.8072
4037.93 15.3347
4037.95 19.7579
4037.96 28.8847
4037.97 37.8325
4037.98 50.3361
4037.99 76.8468
4038.00 92.9968
4038.01 76.8682
4038.02 50.3633
4038.03 31.7993
4038.05 22.6092
4038.06 17.3481
4038.07 14.5689
4038.10 11.5740
4038.12 10.1713
4038.17 8.95095
4038.22 8.45885
4038.32 8.06165
4038.42 7.90998
4038.81 7.75082
4039.61 7.70122
4041.19 7.67418
4044.36 7.63908
4050.71 7.57458
4063.39 7.45009
4088.76 7.21303
4139.50 6.77559
4190.24 6.37245
4215.61 6.17959
4228.29 6.08513
4234.64 6.04018
4237.81 6.02597
4239.39 6.05193
4239.79 6.08793
4240.19 6.19422
4240.38 6.34187
4240.58 6.74880
4240.68 7.28862
4240.78 8.70154
4240.83 10.4920
4240.88 14.6987
4240.90 19.5104
4240.93 29.5447
4240.94 39.5884
4240.95 55.2787
4240.97 83.1365
4240.98 136.191
4240.99 216.654
4241.00 265.984
4241.01 216.781
4241.02 135.781
4241.03 100.993
4241.04 74.6605
4241.05 57.1491
4241.05 45.2379
4241.07 30.8754
4241.09 23.4096
4241.12 15.6498
4241.15 12.0952
4241.21 9.02204
4241.27 7.80796
4241.40 6.84764
4241.52 6.48643
4241.77 6.21498
4242.02 6.11515
4243.02 6.01011
4245.02 5.96987
4249.02 5.93372
4257.02 5.87317
4273.01 5.75570
4305.00 5.52283
4336.99 5.28990
4352.98 5.17284
4360.98 5.11455
4364.98 5.08751
4366.98 5.08275
4367.98 5.11470
4368.48 5.26091
4368.60 5.40759
4368.73 5.80070
4368.79 6.31148
4368.85 7.56627
4368.88 9.03483
4368.92 12.2503
4368.93 15.6275
4368.95 21.3554
4368.96 33.7619
4368.97 44.9945
4368.98 61.7893
4368.99 95.8793
4369.00 118.290
4369.01 95.8955
4369.02 61.5540
4369.03 45.0138
4369.04 34.9376
4369.05 22.4516
4369.07 16.2165
4369.08 12.9374
4369.11 9.47000
4369.14 7.86076
4369.20 6.45479
4369.26 5.89569
4369.37 5.45077
4369.49 5.28358
4369.96 5.10855
4370.89 5.05620
4372.76 5.03059
4376.49 4.99980
4383.96 4.94325
4398.89 4.83055
4428.75 4.60077
4488.48 4.11460
4548.22 3.57462
4578.08 3.27611
4593.01 3.12041
4600.48 3.05200
4602.35 3.04554
4604.21 3.06556
4605.15 3.11197
4606.08 3.26108
4606.55 3.47395
4606.78 3.68501
4607.01 4.06456
4607.25 4.85464
4607.36 5.61277
4607.48 6.91901
4607.60 9.51452
4607.66 11.8536
4607.71 15.6874
4607.77 22.7523
4607.80 28.5328
4607.83 37.1600
4607.86 50.7380
4607.89 73.5145
4607.92 114.467
4607.95 192.965
4607.97 305.920
4608.00 383.183
4608.03 306.059
4608.05 193.141
4608.07 140.728
4608.09 105.629
4608.12 64.3337
4608.16 42.5568
4608.19 30.6527
4608.23 23.1618
4608.26 18.4254
4608.33 12.8268
4608.40 9.74985
4608.47 7.91035
4608.60 5.92771
4608.74 4.92541
4608.88 4.35667
4609.15 3.76133
4609.43 3.47268
4609.70 3.31039
4610.25 3.14212
4611.35 3.01057
4612.45 2.95527
4614.65 2.89873
4616.85 2.86194
4625.65 2.74619
4634.45 2.63595
4643.25 2.52350
4678.45 2.03241
4696.05 1.75137
4713.65 1.42714
4722.45 1.23272
4731.25 0.985949
4735.65 0.817988
4737.85 0.711319
4740.05 0.579599
4742.25 0.410909
4744.45 0.205680
4745.55 0.139042
4746.10 0.172336
4746.65 0.352789
4746.92 0.570032
4747.20 0.964761
4747.47 1.70098
4747.61 2.30199
4747.75 3.15625
4747.88 4.42230
4748.02 6.33671
4748.16 9.41125
4748.30 14.5772
4748.43 24.1381
4748.50 32.0871
4748.57 43.6636
4748.64 61.7656
4748.71 90.5531
4748.78 139.925
4748.85 223.665
4748.92 375.533
4749.00 489.327
4749.08 407.932
4749.16 266.688
4749.24 161.748
4749.33 105.367
4749.42 73.8005
4749.51 54.7869
4749.60 42.5453
4749.68 34.2188
4749.86 23.9722
4750.03 18.0490
4750.21 14.3296
4750.56 10.0069
4750.91 7.65237
4751.26 6.20442
4751.61 5.23718
4751.96 4.55119
4752.67 3.65069
4753.37 3.09024
4754.07 2.70924
4754.77 2.43341
4756.18 2.05926
4757.58 1.81461
4760.39 1.50548
4763.20 1.30863
4766.00 1.16460
4771.62 0.952087
4782.85 0.649523
4794.08 0.413999
4805.32 0.222046
4810.93 0.144168
4816.55 0.0816918
4822.17 0.0386787
4827.78 0.0207448
4830.59 0.0234733
4833.40 0.0355280
4836.21 0.0582932
4839.01 0.0933834
4841.82 0.142705
4844.63 0.208434
4850.25 0.399995
4855.86 0.694958
4861.48 1.13119
4867.09 1.76291
4872.71 2.66933
4878.33 3.96875
4883.94 5.84249
4889.56 8.57691
4895.17 12.6402
4900.79 18.8288
4906.41 28.5611
4912.02 44.4929
4917.64 71.8508
4923.25 121.227
4928.87 212.657
4934.94 380.733
4941.00 528.786
4947.07 467.448
4953.13 321.433
4957.05 248.102
4959.00 219.421
4959.49 213.081
4959.98 207.296
4960.23 204.859
4960.35 203.941
4960.47 203.470
4960.60 204.042
4960.66 205.217
4960.72 207.721
4960.78 213.133
4960.81 218.245
4960.84 226.264
4960.87 240.678
4960.90 267.333
4960.92 291.988
4960.93 327.483
4960.95 383.105
4960.96 476.774
4960.98 646.478
4961.00 757.963
4961.02 646.365
4961.04 475.568
4961.06 364.730
4961.08 305.221
4961.10 270.653
4961.12 249.348
4961.13 235.444
4961.15 225.910
4961.19 214.045
4961.23 207.174
4961.27 202.778
4961.34 197.511
4961.42 194.400
4961.50 192.248
4961.65 189.208
4961.80 186.886
4961.95 184.897
4962.26 181.352
4962.87 174.981
4963.47 169.098
4965.91 148.593
4970.78 117.886
4975.65 96.4329
4980.52 80.9138
4990.26 60.4535
5000.00 47.9056
5009.56 39.7224
5019.12 33.9448
5038.23 26.4276
5057.35 21.8123
5076.47 18.7168
5095.58 16.5039
5114.70 14.8448
5133.82 13.5553
5138.60 13.2786
5143.37 13.0228
5145.76 12.9088
5148.15 12.8238
5149.35 12.8177
5150.54 12.9122
5151.14 13.0946
5151.44 13.2885
5151.74 13.6467
5152.04 14.4051
5152.19 15.1355
5152.34 16.4099
5152.49 18.9506
5152.56 21.2727
5152.63 25.0423
5152.71 31.9612
5152.75 37.6396
5152.78 46.1173
5152.82 59.9263
5152.86 82.6719
5152.90 123.693
5152.93 200.734
5152.97 313.805
5153.00 389.293
5153.03 314.047
5153.07 201.037
5153.11 121.029
5153.15 79.7783
5153.19 57.4431
5153.22 44.6367
5153.26 36.3496
5153.30 30.9732
5153.38 24.4173
5153.45 20.8006
5153.53 18.6029
5153.69 16.1845
5153.84 14.9479
5153.99 14.2387
5154.30 13.4887
5154.61 13.1159
5154.92 12.9014
5155.54 12.6674
5156.77 12.4580
5158.00 12.3459
5160.47 12.1926
5162.94 12.0675
5167.87 11.8430
5172.81 11.6348
5192.55 10.8961
5232.02 9.72373
5271.50 8.81559
5291.24 8.42796
5301.11 8.24703
5306.05 8.16029
5308.51 8.12154
5309.75 8.11830
5310.36 8.17921
5310.67 8.44150
5310.75 8.69763
5310.83 9.36265
5310.87 10.1983
5310.90 12.1125
5310.92 14.3379
5310.94 18.6146
5310.96 28.7440
5310.97 40.0838
5310.98 57.7485
5310.99 87.5876
5311.00 107.508
5311.01 87.6546
5311.02 57.8321
5311.03 37.3347
5311.04 26.4845
5311.06 17.1996
5311.08 13.4247
5311.11 11.5676
5311.15 9.86453
5311.19 9.16783
5311.36 8.37877
5311.70 8.14483
5312.37 8.07130
5313.73 8.03177
5316.43 7.98147
5321.84 7.88967
5332.66 7.71319
5354.31 7.37833
5397.59 6.75936
5484.16 5.58101
5527.44 4.91466
5549.09 4.51534
5570.73 4.02717
5592.37 3.37280
5603.19 2.93409
5614.01 2.36911
5619.43 2.01882
5624.84 1.60931
5630.25 1.13205
5635.66 0.599755
5638.36 0.339526
5641.07 0.132561
5642.42 0.0775017
5643.77 0.0841745
5645.13 0.192369
5645.80 0.303789
5646.48 0.468720
5647.15 0.703791
5647.83 1.03017
5648.51 1.47870
5649.18 2.08931
5649.86 2.92193
5650.54 4.05722
5651.21 5.61761
5651.89 7.78484
5652.57 10.8436
5653.24 15.2279
5653.92 21.6668
5654.59 31.3928
5655.27 46.6088
5655.95 71.2412
5656.62 112.585
5657.30 182.842
5658.15 327.877
5659.00 456.471
5659.85 404.510
5660.70 278.672
5661.45 196.881
5662.20 144.460
5662.94 110.736
5663.69 88.2269
5665.19 61.2441
5666.68 46.3205
5668.18 37.1296
5669.67 31.0215
5672.66 23.5442
5675.65 19.2194
5678.63 16.4369
5681.62 14.5078
5684.61 13.0973
5690.59 11.1752
5696.57 9.92616
5702.54 9.04572
5708.52 8.38780
5720.47 7.45857
5732.43 6.81926
5756.34 5.95555
5780.24 5.35369
5804.15 4.87190
5828.06 4.44979
5840.01 4.25205
5845.99 4.16175
5848.98 4.14530
5850.47 4.25009
5850.85 4.37582
5851.22 4.73440
5851.41 5.22273
5851.59 6.53630
5851.69 8.24264
5851.78 12.4762
5851.83 17.5427
5851.85 21.8363
5851.87 28.4974
5851.90 40.2047
5851.92 60.9045
5851.93 78.9400
5851.94 103.228
5851.96 143.257
5851.97 203.581
5851.98 323.917
5852.00 402.803
5852.02 324.161
5852.03 203.269
5852.05 128.211
5852.06 84.9220
5852.08 59.9000
5852.10 45.3494
5852.11 35.1737
5852.13 28.2802
5852.16 20.0599
5852.19 15.2680
5852.22 12.4086
5852.28 9.16033
5852.41 6.52342
5852.54 5.50757
5852.79 4.72235
5853.04 4.43131
5853.54 4.21005
5854.04 4.12497
5856.06 4.01593
5860.08 3.93073
5868.12 3.79518
5884.21 3.53178
5916.39 2.98684
5948.57 2.38719
5980.75 1.69709
6012.93 0.890982
6029.02 0.464952
6037.07 0.267895
6045.11 0.107277
6049.13 0.0527337
6053.16 0.0260244
6057.18 0.0395096
6059.19 0.0666623
6061.20 0.111207
6063.21 0.176817
6065.22 0.267895
6067.24 0.389993
6069.25 0.549984
6073.27 1.02050
6077.29 1.77971
6081.31 2.99452
6085.34 4.95176
6089.36 8.17483
6093.38 13.6710
6097.40 23.5426
6099.42 31.4155
6101.43 42.5442
6103.44 58.6324
6105.45 82.4152
6107.46 118.178
6109.47 171.918
6112.74 306.788
6116.00 424.968
6119.27 374.784
6122.53 257.032
6125.33 182.287
6128.14 133.945
6130.94 102.644
6133.75 81.6542
6136.55 67.0078
6139.35 56.4094
6140.76 52.1850
6142.16 48.5350
6142.86 46.9251
6143.56 45.5318
6143.91 45.0232
6144.26 44.9589
6144.44 45.4816
6144.61 47.4359
6144.70 50.1770
6144.74 52.7595
6144.79 56.9655
6144.83 64.8395
6144.85 71.4625
6144.87 81.4755
6144.90 97.4890
6144.92 124.921
6144.94 175.653
6144.96 270.931
6144.98 410.123
6145.00 499.889
6145.02 410.404
6145.04 271.231
6145.06 185.741
6145.08 135.767
6145.10 106.811
6145.11 89.7991
6145.15 70.3892
6145.19 60.6257
6145.22 55.0650
6145.26 51.6005
6145.34 47.6690
6145.41 45.5556
6145.48 44.2906
6145.63 42.8271
6145.93 41.3792
6146.23 40.5220
6146.82 39.2701
6147.41 38.2266
6148.60 36.3791
6149.79 34.7293
6154.54 29.4148
6164.04 22.5515
6173.54 18.3603
6183.03 15.5591
6202.03 12.0642
6221.03 9.96256
6240.03 8.54096
6259.03 7.49666
6297.02 6.01158
6335.02 4.93910
6373.01 4.06576
6449.01 2.56870
6525.00 1.18351
6562.99 0.550602
6581.99 0.284749
6591.49 0.176134
6600.99 0.0913682
6605.74 0.0603853
6610.49 0.0386583
6615.24 0.0276702
6619.99 0.0291694
6624.74 0.0452017
6629.49 0.0781632
6634.24 0.130902
6638.98 0.206749
6643.73 0.309714
6648.48 0.444496
6657.98 0.833442
6667.48 1.43437
6676.98 2.33678
6686.48 3.67595
6695.98 5.66069
6705.48 8.62354
6714.98 13.1114
6724.47 20.0567
6733.97 31.1113
6743.47 49.3048
6748.22 62.6952
6750.60 70.9167
6751.19 73.1815
6751.78 75.5831
6752.08 76.9000
6752.38 78.4679
6752.53 79.5648
6752.67 81.4492
6752.75 83.3633
6752.82 87.5996
6752.86 92.2704
6752.90 102.087
6752.92 111.982
6752.93 128.382
6752.95 161.787
6752.96 188.672
6752.97 231.088
6752.99 318.618
6753.00 381.167
6753.02 318.453
6753.03 230.462
6753.04 185.180
6753.05 154.894
6753.06 135.267
6753.07 123.174
6753.09 107.235
6753.12 99.0645
6753.16 90.9608
6753.20 87.4291
6753.29 84.6688
6753.37 83.8006
6753.54 83.5778
6753.72 83.9705
6754.06 85.2348
6754.40 86.7018
6755.09 89.8543
6755.77 93.1784
6758.52 107.980
6764.00 145.522
6774.97 257.164
6780.46 322.812
6783.20 351.816
6783.89 358.295
6784.57 364.601
6784.92 367.934
6785.09 369.830
6785.26 372.109
6785.43 375.386
6785.52 377.892
6785.60 381.657
6785.69 388.330
6785.73 393.949
6785.77 402.400
6785.82 416.845
6785.86 443.769
6785.88 467.281
6785.90 501.131
6785.92 553.318
6785.94 636.573
6785.97 793.082
6786.00 900.322
6786.03 794.181
6786.06 638.218
6786.09 530.072
6786.12 473.553
6786.15 441.358
6786.18 422.981
6786.21 411.026
6786.24 403.363
6786.30 394.106
6786.36 389.156
6786.42 386.290
6786.54 383.474
6786.66 382.373
6786.79 382.027
6787.03 382.274
6787.51 383.909
6788.00 385.767
6789.50 390.196
6791.00 391.811
6794.00 386.454
6800.00 349.310
6812.00 245.515
6825.69 160.510
6839.37 111.877
6853.06 83.2860
6866.74 65.3117
6880.43 53.2701
6894.11 44.7574
6921.48 33.6244
6948.85 26.6133
6976.22 21.5522
7003.59 17.1793
7010.43 16.0367
7017.28 14.8061
7020.70 14.1400
7024.12 13.4298
7027.54 12.6866
7029.25 12.4134
7029.68 12.4544
7030.11 12.7587
7030.32 13.2606
7030.53 14.6946
7030.64 16.5761
7030.75 21.3006
7030.80 26.9323
7030.83 31.8088
7030.85 39.0616
7030.88 51.5148
7030.91 73.0525
7030.92 92.0487
7030.93 117.756
7030.95 155.515
7030.96 215.051
7030.98 334.352
7031.00 418.421
7031.02 334.842
7031.04 215.132
7031.06 149.262
7031.07 109.283
7031.09 83.4516
7031.10 66.2377
7031.13 45.4039
7031.16 34.6828
7031.19 28.1535
7031.22 24.1440
7031.28 19.4543
7031.41 15.5060
7031.53 13.9189
7031.77 12.6461
7032.02 12.1278
7032.50 11.6545
7032.99 11.3935
7034.94 10.6924
7036.89 10.0433
7038.85 9.35468
7042.75 7.78228
7046.65 5.86023
7050.55 3.52122
7052.51 2.25841
7054.46 1.16074
7055.43 0.850526
7055.92 0.822668
7056.41 0.926324
7056.90 1.21432
7057.39 1.76171
7057.87 2.67656
7058.36 4.11334
7058.85 6.31272
7059.34 9.62864
7059.82 14.6118
7060.31 22.1295
7060.80 33.5693
7061.29 51.1640
7061.78 78.4404
7062.26 120.423
7063.13 246.383
7064.00 383.447
7064.44 399.477
7064.87 374.048
7065.74 280.048
7066.72 195.829
7067.70 144.776
7068.67 113.510
7069.65 93.2953
7070.63 79.4410
7071.61 69.5035
7073.57 56.3548
7075.52 48.1552
7077.48 42.5959
7081.39 35.5743
7085.31 31.3214
7089.22 28.4579
7097.05 24.8020
7104.88 22.5170
7112.70 20.9143
7128.36 18.7354
7144.01 17.2519
7159.67 16.1287
7175.32 15.2210
7183.15 14.8245
7187.06 14.6429
7189.02 14.5781
7190.00 14.6407
7190.49 15.0320
7190.61 15.4356
7190.73 16.5052
7190.79 17.8597
7190.85 21.1598
7190.88 25.0113
7190.91 32.8790
7190.93 41.0520
7190.94 54.3812
7190.96 79.0903
7190.97 127.246
7190.99 195.075
7191.00 240.421
7191.01 195.379
7191.03 127.626
7191.04 81.7405
7191.05 57.1259
7191.07 43.3989
7191.08 35.2019
7191.11 26.4901
7191.14 22.3727
7191.19 18.5645
7191.25 16.9582
7191.36 15.6503
7191.47 15.1485
7191.69 14.7578
7191.91 14.6078
7192.79 14.4256
7194.56 14.3090
7198.09 14.1451
7205.15 13.8479
7219.27 13.3013
7247.51 12.3368
7304.00 10.6856
7360.48 9.06505
7388.72 8.09311
7395.78 7.81018
7402.84 7.50366
7409.91 7.17099
7413.44 7.01056
7415.20 7.00713
7415.64 7.07804
7416.08 7.31996
7416.30 7.66992
7416.52 8.63165
7416.64 9.90393
7416.75 13.1183
7416.80 16.9766
7416.86 25.7033
7416.88 35.0403
7416.91 52.0271
7416.92 67.0827
7416.94 90.1175
7416.95 126.560
7416.97 179.416
7416.98 286.381
7417.00 352.625
7417.02 280.519
7417.04 179.991
7417.05 112.069
7417.07 76.1813
7417.09 54.2155
7417.11 41.5385
7417.14 27.2590
7417.18 20.1904
7417.25 13.7716
7417.31 11.0778
7417.45 8.84962
7417.59 7.98871
7417.87 7.31758
7418.15 7.05917
7419.27 6.74864
7421.50 6.54894
7425.96 6.24585
7430.42 5.92972
7434.88 5.58351
7443.80 4.76817
7452.72 3.72542
7457.18 3.08896
7461.64 2.36142
7466.10 1.54751
7470.56 0.712904
7472.79 0.361638
7473.91 0.234965
7475.02 0.165376
7476.14 0.182460
7477.25 0.330744
7478.37 0.678475
7478.92 0.958721
7479.48 1.33259
7480.60 2.46506
7481.71 4.36109
7482.83 7.51075
7483.94 12.7912
7485.06 21.8438
7486.17 37.8747
7487.29 67.2952
7488.40 122.171
7489.70 236.021
7491.00 350.474
7491.65 357.648
7492.30 328.592
7493.60 237.912
7494.91 167.429
7496.22 123.492
7497.53 95.9546
7498.84 77.8713
7500.15 65.3975
7501.46 56.4135
7504.08 44.5395
7506.70 37.1741
7509.32 32.2213
7514.56 26.0516
7519.80 22.3945
7525.04 19.9860
7530.28 18.2806
7535.52 17.0080
7546.00 15.2282
7556.48 14.0322
7577.44 12.4953
7598.40 11.5167
7619.36 10.8124
7661.29 9.81054
7703.21 9.07618
7745.13 8.47056
7787.05 7.93059
7808.01 7.67346
7818.49 7.54738
7823.73 7.48889
7826.35 7.47850
7827.66 7.54994
7828.32 7.88156
7828.48 8.21671
7828.64 9.11842
7828.73 10.2793
7828.81 13.1824
7828.85 16.6044
7828.89 24.1586
7828.91 32.0772
7828.93 45.8301
7828.95 73.3779
7828.96 97.6046
7828.97 137.143
7828.99 212.661
7829.00 266.861
7829.02 213.015
7829.03 137.136
7829.04 101.027
7829.05 77.8655
7829.07 50.1720
7829.08 35.6105
7829.10 27.2480
7829.14 18.5075
7829.18 14.5397
7829.25 11.0272
7829.32 9.60530
7829.47 8.45970
7829.61 8.02656
7830.19 7.57202
7831.36 7.43678
7833.68 7.37621
7838.34 7.31120
7847.65 7.19631
7866.26 6.96942
7903.50 6.50327
7940.73 6.00207
7959.35 5.73057
7968.66 5.58875
7973.31 5.52009
7975.64 5.50275
7976.80 5.56303
7977.39 5.85359
7977.68 6.90970
7977.75 7.87858
7977.82 10.1803
7977.86 12.8593
7977.90 18.3104
7977.93 32.1968
7977.95 48.0222
7977.97 79.2007
7977.98 124.241
7978.00 153.104
7978.02 124.351
7978.03 79.3400
7978.05 54.6706
7978.06 39.8721
7978.09 23.9365
7978.11 16.7554
7978.14 13.0178
7978.19 9.48924
7978.25 7.96563
7978.36 6.67279
7978.46 6.16793
7978.89 5.62529
7979.75 5.46342
7981.47 5.39593
7984.90 5.32837
7991.77 5.20835
8005.51 4.96044
8032.98 4.40302
8060.45 3.73011
8087.93 2.88674
8101.66 2.37828
8115.40 1.80047
8129.14 1.15655
8142.87 0.496751
8149.74 0.218368
8153.18 0.117552
8156.61 0.0618153
8160.05 0.0749448
8161.76 0.117956
8163.48 0.193027
8165.20 0.307809
8166.91 0.471926
8168.63 0.697558
8170.35 1.00024
8173.78 1.92285
8177.22 3.48322
8180.65 6.11012
8184.08 10.5923
8187.52 18.4608
8190.95 32.8551
8192.67 44.3646
8194.39 60.4724
8196.10 83.1540
8197.82 114.922
8201.41 217.705
8205.00 317.844
8206.80 321.924
8208.59 293.732
8212.18 210.047
8215.53 150.022
8218.88 111.521
8222.22 86.8203
8225.57 70.3368
8228.92 58.8461
8232.26 50.5151
8235.61 44.2829
8236.45 42.9833
8237.28 41.8046
8237.70 41.2973
8238.12 40.9599
8238.33 40.9953
8238.54 41.5550
8238.64 42.4837
8238.75 44.9302
8238.80 47.8923
8238.85 54.1858
8238.88 60.3477
8238.91 71.0907
8238.93 91.4787
8238.94 108.445
8238.96 132.477
8238.98 189.757
8239.00 225.705
8239.02 187.113
8239.04 132.598
8239.07 96.1168
8239.09 75.9352
8239.11 64.4062
8239.13 57.3988
8239.18 49.8147
8239.22 46.1200
8239.31 42.6285
8239.39 41.1098
8239.57 39.7446
8239.74 39.0911
8240.09 38.3339
8240.44 37.8022
8241.14 36.9227
8241.84 36.1376
8243.24 34.7075
8244.64 33.4103
8250.23 29.1788
8261.41 23.6111
8272.59 20.1402
8283.77 17.7815
8306.14 14.7860
8328.50 12.9550
8350.87 11.7075
8373.24 10.7915
8395.60 10.0807
8401.19 9.92632
8406.78 9.78033
8412.37 9.64732
8415.17 9.61121
8416.57 9.70697
8416.92 9.83118
8417.27 10.1896
8417.44 10.6788
8417.62 11.9766
8417.70 13.6519
8417.79 17.7365
8417.84 22.5226
8417.88 32.5405
8417.90 42.5976
8417.92 60.3814
8417.94 94.8642
8417.97 161.600
8417.98 255.847
8418.00 314.217
8418.02 250.689
8418.04 162.116
8418.05 112.690
8418.06 81.5872
8418.08 61.8731
8418.09 48.9417
8418.12 33.9015
8418.15 26.1774
8418.20 18.5540
8418.26 15.1586
8418.37 12.3058
8418.48 11.1693
8418.70 10.2801
8418.92 9.94560
8419.80 9.58752
8421.56 9.45622
8425.09 9.35238
8432.14 9.19298
8439.20 9.04632
8446.25 8.90719
8474.46 8.40694
8530.88 7.58534
8587.31 6.89271
8643.73 6.24835
8700.16 5.58413
8756.58 4.78898
8784.79 4.25251
8798.90 3.90563
8813.01 3.46215
8827.11 2.84688
8834.16 2.42865
8841.22 1.89143
8844.74 1.56257
8848.27 1.18585
8851.80 0.763593
8855.32 0.332415
8857.09 0.155319
8858.85 0.0686992
8859.73 0.0935854
8860.61 0.197283
8861.50 0.423125
8862.38 0.839859
8863.26 1.56370
8864.14 2.79357
8865.02 4.88997
8865.90 8.53718
8866.79 15.1513
8867.23 20.4221
8867.67 27.8116
8868.11 38.4085
8868.55 53.8425
8868.99 76.5996
8869.43 109.970
8870.22 202.971
8871.00 289.684
8871.79 262.444
8872.57 184.461
8873.12 141.716
8873.66 111.141
8874.20 89.5108
8874.74 73.9683
8875.83 53.8798
8876.92 41.9504
8878.00 34.2575
8879.09 28.9848
8881.26 22.3369
8883.44 18.3948
8885.61 15.8308
8886.70 14.8793
8887.78 14.1273
8888.33 13.8669
8888.87 13.8290
8889.14 14.0805
8889.41 15.0353
8889.55 16.3996
8889.68 19.9583
8889.75 24.2506
8889.82 33.9128
8889.85 43.9140
8889.89 62.5526
8889.90 78.2851
8889.92 101.820
8889.94 138.027
8889.95 191.842
8889.98 298.343
8890.00 371.669
8890.02 298.848
8890.05 192.452
8890.06 141.261
8890.08 107.613
8890.09 83.4035
8890.11 67.7923
8890.14 47.9584
8890.17 36.9746
8890.23 26.0459
8890.29 21.0917
8890.42 16.7542
8890.54 14.9619
8890.78 13.4798
8891.03 12.8478
8891.52 12.2354
8892.01 11.8809
8893.00 11.3831
8893.98 10.9903
8895.95 10.3466
8897.92 9.82013
8901.85 8.99436
8905.79 8.37033
8913.66 7.47999
8921.54 6.86536
8937.28 6.04360
8953.03 5.48827
8984.52 4.70641
9016.01 4.10305
9078.99 3.04108
9110.48 2.51220
9126.22 2.24129
9134.09 2.10625
9138.03 2.05041
9140.00 2.07411
9140.98 2.29139
9141.23 2.52382
9141.47 3.16482
9141.60 4.00859
9141.72 6.18033
9141.78 8.86059
9141.84 14.9621
9141.87 21.6157
9141.90 34.6886
9141.92 46.8180
9141.94 64.7765
9141.95 93.9494
9141.97 141.950
9141.98 228.747
9142.00 282.544
9142.02 224.101
9142.04 142.555
9142.05 94.5177
9142.07 65.2808
9142.09 36.3224
9142.12 23.1376
9142.15 16.2209
9142.21 9.64129
9142.27 6.74178
9142.38 4.32321
9142.50 3.36498
9142.73 2.61759
9142.97 2.33689
9143.89 2.03672
9145.75 1.92660
9149.47 1.83887
9156.90 1.69855
9171.76 1.42460
9201.49 0.874338
9231.22 0.359783
9246.09 0.154828
9253.52 0.0842322
9257.23 0.0792617
9259.09 0.160278
9259.56 0.250950
9260.02 0.503712
9260.25 0.843158
9260.49 1.73514
9260.60 2.85797
9260.72 5.58166
9260.78 8.67811
9260.83 15.1925
9260.86 21.4608
9260.89 32.2169
9260.92 52.1954
9260.95 91.2418
9260.98 145.991
9261.00 182.505
9261.03 146.025
9261.05 91.2858
9261.07 64.0823
9261.09 46.1433
9261.12 26.6554
9261.16 17.0379
9261.19 11.7395
9261.26 6.49345
9261.33 4.10276
9261.47 2.05435
9261.61 1.23770
9261.89 0.595850
9262.17 0.354903
9263.30 0.105958
9265.54 0.0368230
9270.03 0.0243300
9274.52 0.0455449
9279.02 0.0933364
9283.51 0.171714
9288.00 0.287154
9292.49 0.448642
9294.73 0.553164
9295.86 0.626105
9296.42 0.723332
9296.70 0.993237
9296.84 1.86471
9296.91 4.34354
9296.94 9.69384
9296.96 17.8813
9296.98 38.2181
9296.99 61.6896
9297.00 75.9475
9297.01 61.8273
9297.02 38.3950
9297.03 21.1752
9297.05 12.5852
9297.08 5.93675
9297.13 2.51527
9297.24 1.23905
9297.47 0.849271
9297.91 0.760753
9298.80 0.783350
9300.58 0.891232
9304.14 1.16183
9311.26 1.90692
9318.37 3.01982
9325.49 4.67912
9332.61 7.17339
9339.73 10.9806
9346.84 16.9276
9350.40 21.1374
9351.29 22.3707
9352.18 23.7077
9353.07 25.3096
9353.29 25.8899
9353.52 26.8413
9353.63 27.7774
9353.74 29.8313
9353.79 32.1390
9353.85 36.9827
9353.88 41.8874
9353.90 50.7452
9353.93 68.5692
9353.95 84.2723
9353.96 105.563
9353.98 154.358
9354.00 184.903
9354.02 152.103
9354.04 105.886
9354.06 76.0127
9354.08 59.6987
9354.12 43.6103
9354.16 36.8531
9354.20 33.5594
9354.27 30.5142
9354.35 29.3065
9354.51 28.4744
9354.66 28.3209
9355.28 29.0005
9355.90 30.0941
9356.52 31.2980
9358.99 36.8170
9363.94 51.5306
9368.88 73.0333
9373.83 104.325
9382.92 193.646
9392.00 277.097
9401.09 250.956
9410.17 175.940
9418.97 121.803
9427.77 88.0851
9436.57 66.9189
9445.37 53.0019
9462.97 36.4502
9480.57 27.2324
9498.17 21.4361
9515.77 17.4478
9533.37 14.5037
9542.17 13.2912
9546.57 12.7391
9548.77 12.4936
9549.87 12.4491
9550.42 12.7080
9550.69 13.8012
9550.76 14.8077
9550.83 17.1670
9550.86 19.8683
9550.90 25.2218
9550.93 38.2284
9550.95 52.2375
9550.97 77.2552
9550.98 116.283
9551.00 142.300
9551.02 116.274
9551.03 77.2410
9551.05 51.1516
9551.07 37.0215
9551.11 24.5306
9551.14 19.4261
9551.18 16.9087
9551.25 14.6268
9551.32 13.6588
9551.60 12.5516
9552.16 12.1760
9553.28 11.9635
9555.52 11.6886
9560.00 11.1950
9564.48 10.7340
9566.73 10.5424
9567.85 10.5751
9568.41 11.0733
9568.55 11.5994
9568.69 13.0008
9568.76 14.7619
9568.83 18.9903
9568.86 23.7241
9568.90 33.4675
9568.92 42.9438
9568.93 57.8696
9568.95 86.1281
9568.97 135.415
9568.98 213.158
9569.00 261.131
9569.02 208.753
9569.03 135.986
9569.05 98.2706
9569.06 73.4915
9569.08 46.1765
9569.11 32.9784
9569.13 25.8065
9569.18 18.7862
9569.22 15.6628
9569.32 12.9566
9569.41 11.8616
9569.60 10.9916
9569.79 10.6515
9570.56 10.2463
9572.08 10.0100
9575.12 9.69844
9581.20 9.13822
9593.37 8.09971
9617.71 6.23385
9666.38 2.99847
9690.72 1.60670
9702.89 1.02615
9715.06 0.596290
9721.14 0.470942
9727.23 0.433215
9733.31 0.514247
9739.40 0.758257
9745.48 1.23093
9751.56 2.04334
9754.61 2.65167
9757.65 3.53506
9759.17 4.23098
9759.93 4.74418
9760.69 5.50384
9761.45 6.83122
9761.83 7.97345
9762.21 9.82289
9762.59 13.2082
9762.78 16.0854
9762.97 20.5340
9763.16 27.9250
9763.35 41.3937
9763.45 52.5364
9763.54 68.9094
9763.64 93.5687
9763.73 130.729
9763.87 206.519
9764.00 257.240
9764.13 207.028
9764.27 131.443
9764.35 98.5725
9764.43 75.4534
9764.60 47.9216
9764.76 33.4375
9764.92 25.1391
9765.08 20.0224
9765.25 16.6777
9765.57 12.7642
9765.90 10.6909
9766.23 9.49538
9766.88 8.31929
9767.53 7.87310
9768.18 7.75185
9769.49 7.94892
9772.10 9.05913
9774.70 10.6401
9779.92 14.9372
9785.14 21.0417
9790.36 29.6538
9795.58 41.8242
9800.79 59.0299
9806.01 83.1638
9812.01 121.967
9818.01 173.067
9830.00 272.254
9836.00 284.601
9842.00 267.208
9853.99 200.850
9861.55 163.879
9869.11 135.370
9884.23 97.7561
9899.35 75.6492
9914.47 61.6922
9929.59 52.2800
9944.71 45.5826
9959.83 40.6084
9967.39 38.5809
9971.17 37.6733
9973.06 37.3053
9974.01 37.3843
9974.24 37.6255
9974.48 38.3552
9974.60 39.3227
9974.71 41.7268
9974.77 44.4959
9974.83 50.3783
9974.86 56.2081
9974.89 65.9467
9974.92 84.8848
9974.95 121.094
9974.98 171.994
9975.00 206.107
9975.00 24.2972
10000.0 24.2688
12500.0 21.8681
15000.0 20.0889
17000.0 18.9541
20000.0 17.5781
25000.0 15.8535
30000.0 14.5735
35000.0 13.5743
40000.0 12.7661
50000.0 11.5262
60000.0 10.6094
70000.0 9.89818
80000.0 9.32788
90000.0 8.85954
100000 8.46807
125000 7.72584
150000 7.21058
170000 6.90760
200000 6.58117
250000 6.27082
250000 6.27018
300000 6.06076
400000 6.01694
500000 6.20601
600000 6.45844
693000 6.63863
693001 6.63863
700000 6.65219
701392 6.65444
701392 6.65444
800000 6.81369
900000 6.98926
1.00000E+06 7.12353
1.10000E+06 7.21923
1.20000E+06 7.28267
1.30000E+06 7.32021
1.32375E+06 7.32189
1.32376E+06 7.32189
1.40000E+06 7.32730
1.50000E+06 7.33439
1.52112E+06 7.33057
1.52112E+06 7.33057
1.57185E+06 7.32140
1.57185E+06 7.32140
1.60000E+06 7.31632
1.70000E+06 7.29824
1.80000E+06 7.25906
1.80401E+06 7.25749
1.80401E+06 7.25749
1.90000E+06 7.21988
2.00000E+06 7.16548
2.08727E+06 7.11800
2.08727E+06 7.11800
2.09906E+06 7.11158
2.09906E+06 7.11158
2.10000E+06 7.11107
2.10813E+06 7.10522
2.10813E+06 7.10522
2.12425E+06 7.09363
2.12425E+06 7.09363
2.19364E+06 7.04370
2.19364E+06 7.04370
2.20000E+06 7.03913
2.20100E+06 7.03841
2.22003E+06 7.02471
2.22003E+06 7.02471
2.23053E+06 7.01716
2.23367E+06 7.01490
2.23367E+06 7.01490
2.28603E+06 6.97723
2.28603E+06 6.97723
2.30000E+06 6.96718
2.31119E+06 6.95913
2.31119E+06 6.95913
2.33797E+06 6.93986
2.33797E+06 6.93986
2.38483E+06 6.90615
2.40000E+06 6.89524
2.41622E+06 6.88357
2.41622E+06 6.88357
2.43689E+06 6.86870
2.43689E+06 6.86869
2.46435E+06 6.84894
2.46435E+06 6.84893
2.46845E+06 6.84599
2.46845E+06 6.84599
2.50000E+06 6.82329
2.52599E+06 6.80125
2.52599E+06 6.80125
2.54463E+06 6.78545
2.54463E+06 6.78544
2.58181E+06 6.75392
2.58181E+06 6.75392
2.59975E+06 6.73871
2.59975E+06 6.73871
2.60000E+06 6.73850
2.60994E+06 6.73007
2.60994E+06 6.73007
2.61902E+06 6.72237
2.62334E+06 6.71871
2.63088E+06 6.71231
2.63088E+06 6.71231
2.63222E+06 6.71118
2.63222E+06 6.71117
2.67321E+06 6.67642
2.67321E+06 6.67642
2.67339E+06 6.67627
2.67339E+06 6.67627
2.69408E+06 6.65872
2.69408E+06 6.65872
2.70000E+06 6.65370
2.70013E+06 6.65359
2.70013E+06 6.65359
2.71151E+06 6.64394
2.71151E+06 6.64393
2.72887E+06 6.62922
2.72888E+06 6.62921
2.73440E+06 6.62453
2.73440E+06 6.62453
2.73816E+06 6.62134
2.73816E+06 6.62134
2.75123E+06 6.61026
2.80000E+06 6.56891
2.90000E+06 6.48411
3.00000E+06 6.39204
3.10000E+06 6.29997
3.20000E+06 6.20790
3.30000E+06 6.11583
3.50000E+06 5.93169
4.00000E+06 5.49345
5.00000E+06 4.79988
6.00000E+06 4.43114
7.00000E+06 4.33868
7.34613E+06 4.35835
7.87078E+06 4.38817
7.87078E+06 4.38817
8.00000E+06 4.39551
8.02385E+06 4.39831
8.02385E+06 4.39831
9.00000E+06 4.51275
1.00000E+07 4.64970
1.10000E+07 4.78664
1.20000E+07 4.91006
1.30000E+07 5.00698
1.40000E+07 5.06793
1.40367E+07 5.06906
1.40367E+07 5.06906
1.45000E+07 5.08332
1.50000E+07 5.08841
1.54274E+07 5.07990
1.60000E+07 5.06850
1.70000E+07 5.01192
1.80000E+07 4.92515
1.90000E+07 4.81643
2.00000E+07 4.69442