Nd-143(n,tot) ENDF/B-VII.1
Energy(eV) XS(b)
1.00000E-05 16562.7
1.25000E-05 14822.6
1.50000E-05 13538.2
1.77828E-05 12440.4
2.00000E-05 11735.2
2.75000E-05 10019.7
3.16228E-05 9349.12
3.50000E-05 8890.62
4.25000E-05 8075.56
5.00000E-05 7451.57
5.62341E-05 7030.99
7.50000E-05 6098.95
0.000100000 5292.61
0.000125000 4742.34
0.000150000 4336.15
0.000177828 3988.99
0.000200000 3765.97
0.000275000 3223.43
0.000316228 3011.37
0.000350000 2866.37
0.000425000 2608.60
0.000500000 2411.25
0.000562341 2278.23
0.000750000 1983.43
0.00100000 1728.38
0.00125000 1554.31
0.00150000 1425.81
0.00177828 1315.97
0.00200000 1245.40
0.00275000 1073.71
0.00316228 1006.59
0.00350000 960.682
0.00425000 879.063
0.00500000 816.560
0.00562341 774.420
0.00750000 680.989
0.0100000 600.086
0.0125000 544.815
0.0150000 503.969
0.0177828 469.017
0.0200000 446.537
0.0253000 405.266
0.0316228 370.239
0.0376500 345.362
0.0500000 309.092
0.0562341 295.439
0.0750000 264.970
0.100000 238.260
0.125000 219.740
0.150000 205.844
0.177828 193.757
0.200000 185.860
0.237500 174.900
0.275000 166.044
0.316228 157.980
0.350000 152.327
0.425000 141.927
0.500000 133.583
0.562341 127.722
0.750000 113.844
1.00000 100.498
1.50000 82.3144
1.77828 74.8876
2.00000 69.8439
2.75000 56.6275
3.16228 51.1027
3.50000 47.2216
4.25000 40.1580
5.00000 34.6659
5.62341 30.9620
7.50000 22.9188
9.99999 16.4144
10.0000 16.4142
10.0000 16.4142
10.0001 16.4141
10.0001 16.4140
10.0001 16.4139
10.0003 16.4137
10.0005 16.4131
10.0011 16.4121
10.0021 16.4100
10.0042 16.4059
10.0083 16.3977
10.0165 16.3812
10.0331 16.3484
10.0661 16.2830
10.1322 16.1535
10.2644 15.8993
10.5288 15.4093
11.0577 14.4975
12.1153 12.9092
12.1153 12.9091
12.1154 12.9090
12.1155 12.9089
12.1156 12.9086
12.1159 12.9082
12.1166 12.9073
12.1178 12.9056
12.1203 12.9022
12.1253 12.8953
12.1353 12.8817
12.1554 12.8543
12.1954 12.8000
12.2755 12.6924
12.4357 12.4813
12.7560 12.0752
13.3967 11.3225
14.6780 10.0205
14.6780 10.0204
14.6781 10.0204
14.6782 10.0203
14.6783 10.0201
14.6786 10.0198
14.6793 10.0193
14.6805 10.0181
14.6831 10.0158
14.6881 10.0111
14.6981 10.0019
14.7183 9.98336
14.7585 9.94652
14.8390 9.87346
15.0000 9.72984
15.3479 9.43041
15.6957 9.14510
16.3914 8.61332
17.7828 7.68424
17.7828 7.68415
17.7829 7.68411
17.7830 7.68407
17.7831 7.68398
17.7834 7.68382
17.7839 7.68349
17.7850 7.68283
17.7872 7.68150
17.7915 7.67886
17.8001 7.67358
17.8175 7.66304
17.8521 7.64201
17.9214 7.60023
18.0600 7.51773
18.3371 7.35684
18.8914 7.05070
20.0000 6.49483
21.5443 5.82694
21.5443 5.82687
21.5444 5.82684
21.5445 5.82681
21.5446 5.82676
21.5449 5.82665
21.5454 5.82642
21.5465 5.82598
21.5488 5.82510
21.5532 5.82333
21.5621 5.81980
21.5799 5.81274
21.6155 5.79868
21.6867 5.77069
21.8291 5.71536
22.1140 5.60712
22.6836 5.39997
23.8230 5.01976
26.1016 4.37407
26.1016 4.37402
26.1017 4.37401
26.1017 4.37400
26.1018 4.37397
26.1020 4.37393
26.1023 4.37384
26.1030 4.37367
26.1044 4.37332
26.1071 4.37263
26.1125 4.37124
26.1235 4.36847
26.1453 4.36293
26.1890 4.35188
26.2764 4.32991
26.4512 4.28649
26.8008 4.20167
27.5000 4.03976
29.5614 3.61579
31.6228 3.25922
31.6228 3.25919
31.6229 3.25918
31.6229 3.25917
31.6230 3.25916
31.6232 3.25912
31.6236 3.25906
31.6245 3.25893
31.6261 3.25867
31.6294 3.25814
31.6360 3.25710
31.6492 3.25500
31.6756 3.25083
31.7284 3.24251
31.8339 3.22597
32.0450 3.19331
32.4671 3.12966
33.3114 3.00872
35.0000 2.79040
38.3119 2.44335
38.3119 2.45025
38.3120 2.45025
38.3120 2.45024
38.3122 2.45023
38.3124 2.45021
38.3129 2.45017
38.3139 2.45008
38.3159 2.44990
38.3198 2.44955
38.3277 2.44884
38.3436 2.44742
38.3752 2.44460
38.4385 2.43897
38.5652 2.42784
38.8184 2.40599
39.3249 2.36403
40.3379 2.28711
42.3639 2.16327
46.4159 2.08717
46.4159 2.08029
46.4160 2.08030
46.4160 2.08030
46.4161 2.08030
46.4164 2.08031
46.4168 2.08032
46.4177 2.08034
46.4194 2.08039
46.4229 2.08048
46.4299 2.08066
46.4439 2.08104
46.4719 2.08181
46.5279 2.08344
46.6399 2.08701
46.8639 2.09552
47.3119 2.11868
48.2080 2.19609
50.0000 2.57370
51.3185 3.31623
51.9778 4.07811
52.6371 5.47532
52.9667 6.65092
53.2963 8.43936
53.6260 11.3524
53.9556 16.5776
54.1204 20.9095
54.2852 27.4231
54.4500 37.8804
54.6148 56.2585
54.6973 71.1867
54.7797 93.1848
54.8621 127.527
54.9445 185.461
55.0269 294.560
55.0681 389.162
55.1093 537.096
55.1505 785.876
55.1917 1245.61
55.2123 1630.89
55.2329 2203.71
55.2535 3079.01
55.2741 4419.53
55.3021 7065.39
55.3300 8822.71
55.3580 7046.90
55.3859 4397.29
55.4124 2767.89
55.4389 1829.27
55.4654 1276.06
55.4919 932.623
55.5184 707.859
55.5449 554.059
55.5980 364.311
55.6510 256.888
55.7040 190.557
55.8100 116.577
55.9160 78.5575
56.0221 56.5268
56.1281 42.6493
56.2341 33.3558
56.2341 33.3543
56.2342 33.3506
56.2342 33.3470
56.2343 33.3405
56.2345 33.3274
56.2348 33.3014
56.2356 33.2486
56.2370 33.1441
56.2399 32.9368
56.2457 32.5272
56.2574 31.7311
56.2806 30.2262
56.3271 27.5260
56.4200 23.1271
56.6058 17.0443
56.9776 10.4859
57.3493 7.21785
57.7210 5.35975
58.0927 4.20382
58.4644 3.43590
59.2079 2.50948
59.9513 1.99053
60.6948 1.66813
62.1817 1.29807
63.6685 1.09418
65.1554 0.964072
68.1292 0.802763
68.1292 0.802762
68.1293 0.802758
68.1294 0.802756
68.1295 0.802749
68.1298 0.802737
68.1304 0.802714
68.1316 0.802665
68.1339 0.802569
68.1386 0.802377
68.1479 0.801992
68.1666 0.801225
68.2039 0.799696
68.2787 0.796665
68.4281 0.790706
68.7270 0.779177
69.3247 0.757554
70.5202 0.719221
72.9111 0.657687
77.6930 0.576669
82.5404 0.538213
82.5404 0.538317
82.5405 0.538317
82.5406 0.538317
82.5407 0.538316
82.5410 0.538315
82.5415 0.538313
82.5426 0.538310
82.5447 0.538302
82.5489 0.538286
82.5575 0.538255
82.5745 0.538193
82.6086 0.538070
82.6768 0.537830
82.8132 0.537376
83.0860 0.536567
83.6316 0.535350
84.7229 0.534545
86.9053 0.539739
91.2702 0.580795
95.6350 0.673449
99.9999 0.840239
100.000 0.851531
100.000 0.851536
100.001 0.851556
100.001 0.851571
100.001 0.851600
100.003 0.851665
100.005 0.851793
100.011 0.852050
100.021 0.852561
100.042 0.853588
100.083 0.855645
100.165 0.859790
100.331 0.868211
100.661 0.885564
101.322 0.922427
102.644 1.00567
105.288 1.21923
107.932 1.52056
110.577 1.96065
113.221 2.64002
115.865 3.78353
118.509 5.99072
119.831 7.99999
121.153 11.3618
121.153 11.3717
121.154 11.3744
121.155 11.3768
121.156 11.3818
121.159 11.3915
121.165 11.4114
121.177 11.4513
121.200 11.5315
121.247 11.6946
121.341 12.0319
121.529 12.7554
121.905 14.4268
122.658 19.0191
123.410 26.4081
124.162 39.4574
124.538 50.1193
124.914 65.9142
125.291 90.7553
125.667 133.097
126.043 214.039
126.231 285.328
126.419 398.536
126.607 593.256
126.795 965.285
126.889 1288.35
126.983 1784.61
127.077 2575.98
127.171 3849.24
127.286 6154.40
127.400 7686.81
127.515 6151.34
127.629 3848.95
127.751 2301.27
127.873 1465.37
127.995 996.852
128.117 716.128
128.239 537.136
128.361 416.899
128.605 271.404
128.849 190.476
129.093 141.074
129.581 86.5440
130.069 58.7541
130.557 42.7215
131.045 32.6388
131.533 25.8852
132.508 17.6963
132.996 15.1756
133.484 13.4719
133.972 12.9640
134.216 13.6923
134.460 16.0678
134.704 22.6977
134.826 29.9881
134.948 43.6634
135.009 55.1589
135.070 72.3509
135.131 99.3310
135.192 144.450
135.253 226.708
135.284 294.877
135.314 396.013
135.345 553.033
135.375 809.895
135.406 1252.80
135.436 2031.38
135.468 3320.33
135.500 4249.87
135.533 3485.45
135.565 2231.47
135.587 1627.17
135.609 1215.41
135.631 934.080
135.653 737.897
135.697 493.984
135.740 355.867
135.784 270.730
135.828 214.656
135.916 147.633
136.003 110.415
136.091 87.5225
136.266 61.6789
136.441 47.9676
136.617 39.7085
136.967 30.4915
137.317 25.6198
137.668 22.6895
138.369 19.4821
139.070 17.9289
139.771 17.1858
141.173 17.0079
143.976 19.7647
146.780 26.6159
146.780 26.6237
146.781 26.6264
146.782 26.6288
146.783 26.6336
146.786 26.6433
146.792 26.6629
146.803 26.7020
146.825 26.7804
146.871 26.9389
146.961 27.2613
147.142 27.9296
147.505 29.3650
148.229 32.6878
149.678 41.7646
151.126 56.0717
152.575 80.5191
154.024 127.894
154.748 170.650
155.473 241.005
156.197 369.676
156.559 478.531
156.921 645.195
157.284 918.308
157.646 1406.28
157.827 1802.64
158.008 2375.66
158.189 3222.16
158.370 4469.31
158.635 7057.32
158.900 8683.26
159.165 6801.58
159.430 4158.81
159.718 2406.53
160.005 1487.64
160.293 984.212
160.580 688.181
160.867 502.336
161.155 379.286
161.730 233.157
162.305 153.951
162.880 106.806
163.455 76.7646
164.030 56.6265
165.179 32.5310
166.329 19.6608
167.479 12.4584
168.629 8.54556
169.204 7.46090
169.779 6.86114
170.354 6.71524
170.929 7.02118
171.504 7.80646
172.079 9.13265
173.229 13.9011
173.804 17.7892
174.378 23.2105
174.953 30.9029
175.528 42.1680
176.103 59.4804
176.678 87.9990
177.253 140.033
177.541 183.929
177.828 250.947
177.828 250.978
177.829 251.182
177.829 251.357
177.831 251.737
177.833 252.500
177.838 254.006
177.849 257.058
177.869 263.324
177.910 276.542
177.991 306.044
178.155 380.578
178.481 635.659
178.644 863.986
178.808 1225.99
178.971 1827.56
179.134 2845.66
179.317 4601.05
179.500 5822.73
179.683 4726.96
179.866 3010.71
180.054 1876.84
180.241 1247.46
180.429 887.931
180.617 670.540
180.992 440.218
181.367 334.416
181.742 284.677
182.118 266.003
182.868 289.749
183.619 396.922
183.994 499.680
184.369 660.035
184.744 918.699
185.120 1357.22
185.495 2145.92
185.870 3611.06
186.235 5918.83
186.600 7575.16
186.965 6188.86
187.330 3952.98
187.726 2399.60
188.122 1556.80
188.518 1081.20
188.914 793.821
189.310 608.652
189.706 482.895
190.498 328.049
191.289 239.752
192.081 184.442
193.665 121.119
195.249 87.1574
196.833 66.5755
200.000 43.5256
203.861 29.3741
207.722 21.4994
211.582 16.5623
215.443 13.2072
215.443 13.2110
215.444 13.2106
215.444 13.2101
215.445 13.2093
215.448 13.2077
215.452 13.2043
215.461 13.1977
215.480 13.1844
215.516 13.1579
215.590 13.1051
215.736 13.0004
216.029 12.7949
216.614 12.3985
217.785 11.6591
220.127 10.3640
224.810 8.32655
234.177 5.59733
243.544 3.82827
252.911 2.55778
261.016 1.69845
261.016 1.70386
261.017 1.70379
261.018 1.70373
261.019 1.70359
261.022 1.70333
261.027 1.70281
261.038 1.70177
261.060 1.69968
261.104 1.69550
261.191 1.68716
261.366 1.67055
261.716 1.63754
262.416 1.57235
263.817 1.44535
266.617 1.20461
272.218 0.778215
277.818 0.444133
280.619 0.329893
282.019 0.292570
283.419 0.272781
284.119 0.270879
284.819 0.275264
285.519 0.286817
286.220 0.306586
286.920 0.335818
287.620 0.376008
288.320 0.428964
289.020 0.496879
290.420 0.688948
291.820 0.982356
293.221 1.42484
294.621 2.09540
296.021 3.13254
297.421 4.79601
298.821 7.61939
300.221 12.8401
300.921 17.2336
301.622 23.8791
302.322 34.5546
303.022 53.1776
303.372 68.1142
303.722 89.7733
304.072 122.785
304.422 176.394
304.772 271.317
304.947 348.267
305.122 460.565
305.297 631.819
305.472 906.379
305.647 1368.92
305.822 2164.30
306.011 3487.56
306.200 4389.21
306.389 3536.76
306.578 2227.33
306.729 1515.61
306.880 1065.27
307.030 778.477
307.181 589.584
307.483 368.779
307.784 251.545
308.086 182.529
308.387 138.696
308.991 88.3739
309.594 61.7542
310.197 46.0469
311.403 29.3908
312.609 21.5494
313.816 17.7648
315.022 16.4069
316.228 17.0253
316.228 17.0255
316.229 17.0262
316.229 17.0269
316.230 17.0281
316.232 17.0307
316.236 17.0358
316.243 17.0461
316.258 17.0671
316.288 17.1100
316.348 17.1999
316.468 17.3966
316.708 17.8605
317.188 19.0985
318.147 23.1495
319.106 30.4307
320.066 43.8051
321.025 70.6895
321.505 95.1159
321.984 134.915
322.464 205.638
322.704 263.231
322.944 347.625
323.184 477.242
323.423 687.036
323.663 1045.58
323.903 1673.49
324.152 2679.63
324.400 3349.96
324.649 2679.42
324.897 1674.57
325.084 1158.07
325.270 823.593
325.457 606.259
325.643 460.908
326.017 288.482
326.390 195.758
326.763 140.814
327.136 105.815
327.882 65.6498
328.629 44.5847
329.375 32.4500
330.121 25.1876
330.868 21.0302
331.614 19.2885
332.360 19.9970
333.107 24.0389
333.853 33.9768
334.226 43.0373
334.599 57.0321
334.972 79.5064
335.345 117.764
335.719 188.794
335.905 248.564
336.092 338.440
336.278 480.667
336.465 719.419
336.652 1146.39
336.838 1936.60
337.019 3173.78
337.200 4061.40
337.381 3324.37
337.562 2125.76
337.755 1299.81
337.948 846.420
338.141 588.706
338.334 432.303
338.527 331.236
338.720 262.525
339.107 177.871
339.493 129.659
339.879 99.5553
340.651 65.3262
341.423 47.2958
342.196 36.7805
343.740 26.8115
345.285 26.5632
346.057 31.1324
346.829 41.9083
347.215 51.5650
347.601 66.2753
347.987 89.4587
348.374 127.893
348.760 196.377
349.146 331.203
349.339 450.236
349.532 635.049
349.725 932.592
349.918 1415.72
350.159 2337.99
350.400 3018.00
350.642 2494.60
350.883 1611.61
351.135 1006.98
351.387 668.401
351.639 472.732
351.890 352.471
352.142 273.968
352.394 220.119
352.898 153.049
353.402 114.318
353.905 89.7972
354.913 61.3433
355.920 45.7956
356.927 36.1905
358.942 25.1174
360.957 18.9725
362.972 15.0617
367.001 10.3155
371.031 7.47673
375.060 5.55123
379.090 4.17958
383.119 3.28650
383.119 3.27789
383.120 3.27780
383.120 3.27773
383.121 3.27756
383.124 3.27723
383.128 3.27657
383.136 3.27527
383.154 3.27268
383.188 3.26751
383.257 3.25732
383.395 3.23756
383.671 3.20050
384.223 3.13689
385.326 3.05768
387.533 3.16203
389.741 3.86333
390.844 4.61768
391.948 5.83443
393.051 7.79509
394.155 11.0225
395.258 16.5738
396.362 26.8292
396.914 35.3628
397.465 48.0584
398.017 67.9166
398.569 101.114
399.121 161.979
399.397 212.890
399.673 289.299
399.948 410.045
400.224 612.956
400.500 977.193
400.776 1655.47
401.038 2691.45
401.300 3416.28
401.562 2774.70
401.824 1760.92
402.007 1262.12
402.190 926.183
402.373 700.328
402.556 545.044
402.922 355.296
403.288 250.199
403.654 186.906
404.020 146.480
404.752 102.139
405.484 86.4320
405.850 88.3919
406.216 100.364
406.582 131.236
406.765 160.485
406.948 207.197
407.131 285.091
407.314 423.103
407.497 686.045
407.589 904.036
407.680 1211.74
407.840 1984.58
408.000 2554.82
408.160 2116.31
408.320 1375.18
408.465 918.045
408.610 641.366
408.755 471.300
408.899 361.905
409.189 236.180
409.479 169.744
409.768 130.272
410.058 104.730
410.637 74.3388
411.216 57.2277
411.795 46.3788
412.954 33.4739
414.112 26.0547
415.271 21.2134
417.587 15.2238
419.904 11.6261
422.221 9.22407
426.855 6.41311
429.171 5.80463
431.488 5.88510
433.805 7.13425
434.963 8.53160
436.122 10.8084
437.280 14.4929
438.439 20.5566
439.597 30.9186
440.755 49.7470
441.335 65.0776
441.914 87.3350
442.493 120.926
443.072 174.165
443.651 263.983
444.231 428.041
444.520 562.580
444.810 757.538
445.099 1045.28
445.389 1469.17
445.845 2450.04
446.300 3188.45
446.756 2654.22
447.211 1726.18
447.741 1032.29
448.270 665.800
448.800 463.114
449.330 342.058
449.859 264.576
450.389 212.119
451.448 147.587
452.507 110.700
453.567 87.4829
455.685 60.6583
457.804 46.0589
459.922 37.0671
462.041 31.0414
464.159 26.7490
464.159 26.7483
464.160 26.7473
464.160 26.7464
464.161 26.7445
464.164 26.7407
464.168 26.7331
464.177 26.7179
464.194 26.6877
464.229 26.6275
464.299 26.5079
464.439 26.2722
464.719 25.8140
465.279 24.9466
466.399 23.3859
468.639 20.8173
473.119 17.1491
477.600 14.6422
482.080 12.8008
491.040 10.1969
495.520 9.18548
500.000 8.24485
501.687 7.88226
502.531 7.69241
503.374 7.49345
504.218 7.28525
504.640 7.18277
505.062 7.09639
505.483 7.07749
505.694 7.14854
505.905 7.37298
506.011 7.60981
506.116 8.01401
506.222 8.73429
506.327 10.1077
506.432 13.0417
506.485 15.8389
506.538 20.5763
506.591 29.3581
506.617 36.7679
506.643 47.8818
506.670 65.5436
506.696 95.0935
506.722 148.157
506.749 246.052
506.774 400.843
506.800 513.556
506.826 423.578
506.851 274.459
506.867 206.971
506.883 159.408
506.915 101.736
506.947 71.0487
506.979 53.2597
507.011 42.0627
507.043 34.6208
507.106 25.6048
507.170 20.5488
507.234 17.4134
507.361 13.8512
507.489 11.9473
507.616 10.7920
507.743 10.0258
507.871 9.48363
508.126 8.76887
508.381 8.31637
508.890 7.76022
509.400 7.41068
509.910 7.15232
510.929 6.75476
512.968 6.10689
515.006 5.45621
516.026 5.09525
517.045 4.69735
518.064 4.25881
519.083 3.80302
519.593 3.60321
520.103 3.48225
520.613 3.56919
521.122 4.21077
521.377 5.01414
521.632 6.49461
521.887 9.28355
522.014 11.5635
522.141 14.8397
522.269 19.6807
522.396 27.0768
522.524 38.9125
522.651 59.0402
522.779 96.2311
522.842 127.265
522.906 173.437
522.970 245.172
523.033 362.274
523.097 563.110
523.161 915.359
523.230 1530.52
523.300 1997.70
523.370 1668.44
523.439 1088.99
523.502 729.588
523.565 510.198
523.627 374.602
523.690 287.162
523.815 186.187
523.941 132.832
524.066 101.195
524.191 80.8559
524.442 56.9400
524.693 43.7801
524.944 35.6597
525.194 30.2354
525.445 26.3956
525.946 21.3779
526.448 18.2803
526.949 16.1939
527.451 14.6982
528.453 12.7000
529.456 11.4224
530.459 10.5288
531.462 9.86261
533.467 8.91844
535.473 8.26063
539.484 7.34272
543.495 6.64896
545.501 6.32344
547.507 5.98046
549.512 5.58033
550.515 5.33620
551.518 5.04077
552.019 4.86623
552.521 4.67007
553.022 4.45414
553.523 4.24007
553.774 4.15943
554.025 4.13810
554.275 4.26271
554.526 4.76123
554.652 5.32873
554.777 6.33579
554.902 8.18556
554.965 9.67592
555.028 11.7945
555.090 14.9003
555.153 19.6102
555.216 27.0861
555.278 39.6617
555.310 49.3403
555.341 62.6822
555.372 81.7527
555.404 109.807
555.435 153.098
555.466 222.631
555.498 339.778
555.529 540.857
555.565 902.099
555.600 1175.07
555.636 980.113
555.671 639.675
555.697 460.351
555.723 340.320
555.749 260.104
555.775 205.309
555.828 138.133
555.880 100.609
555.932 77.6244
555.984 62.5175
556.088 44.4372
556.192 34.3407
556.297 28.0790
556.401 23.8872
556.505 20.9202
556.713 17.0520
556.922 14.6800
557.130 13.0944
557.339 11.9674
557.756 10.4811
558.172 9.54965
558.589 8.91145
559.006 8.44608
559.840 7.80822
560.674 7.38582
562.341 6.84425
562.341 6.84503
562.342 6.84491
562.342 6.84481
562.343 6.84461
562.345 6.84418
562.348 6.84332
562.355 6.84164
562.368 6.83826
562.395 6.83152
562.449 6.81819
562.557 6.79209
562.773 6.74185
563.205 6.64851
564.068 6.48495
565.795 6.22165
569.249 5.83223
570.976 5.67201
572.703 5.52082
573.566 5.44617
573.998 5.40974
574.430 5.37679
574.862 5.35769
575.078 5.36481
575.293 5.40419
575.401 5.45043
575.509 5.53279
575.617 5.68402
575.725 5.98030
575.833 6.63102
575.887 7.26703
575.941 8.36724
575.995 10.4789
576.022 12.3168
576.049 15.1633
576.076 19.8884
576.103 28.3422
576.130 44.9164
576.143 59.1015
576.157 79.4772
576.178 127.083
576.200 161.148
576.222 132.953
576.243 87.1030
576.263 58.7116
576.283 41.8358
576.303 31.5748
576.323 25.0382
576.362 17.6214
576.402 13.7725
576.442 11.5237
576.481 10.1012
576.560 8.45777
576.640 7.57145
576.719 7.03494
576.798 6.68178
576.877 6.43479
577.036 6.11607
577.194 5.92166
577.353 5.79110
577.511 5.69725
577.828 5.56979
578.145 5.48519
578.779 5.37354
579.413 5.29673
580.046 5.23598
581.314 5.13746
583.850 4.97890
586.385 4.84194
596.526 4.37282
606.668 3.95245
616.809 3.53469
626.951 3.07397
632.021 2.80383
637.092 2.48291
642.163 2.07689
644.698 1.82684
647.234 1.54250
648.501 1.39537
649.769 1.26345
651.037 1.19189
652.304 1.31197
652.938 1.55357
653.572 2.06498
653.889 2.49779
654.206 3.12197
654.523 4.03352
654.840 5.39069
655.157 7.46846
655.474 10.7697
655.791 16.2947
656.107 26.2322
656.266 34.3140
656.424 46.0680
656.583 63.9214
656.741 92.4934
656.900 141.559
657.058 233.656
657.137 311.525
657.217 427.454
657.296 604.619
657.375 876.021
657.488 1451.10
657.600 1876.65
657.713 1551.00
657.825 1000.95
657.917 689.308
658.008 491.179
658.100 364.484
658.192 280.694
658.375 181.766
658.558 128.494
658.742 96.6301
658.925 76.0631
659.292 51.8794
659.658 38.6210
660.025 30.4942
660.392 25.1074
660.758 21.3257
661.492 16.4400
662.225 13.4722
662.959 11.5030
663.692 10.1119
665.159 8.28895
666.625 7.15260
668.092 6.37613
669.559 5.80965
672.492 5.02915
675.425 4.50384
681.292 3.80011
681.292 3.79956
681.293 3.79951
681.293 3.79947
681.294 3.79939
681.295 3.79924
681.299 3.79891
681.305 3.79828
681.318 3.79701
681.345 3.79446
681.397 3.78939
681.501 3.77930
681.711 3.75927
682.129 3.71988
682.966 3.64350
684.640 3.49901
687.987 3.23437
691.335 2.99090
694.682 2.76433
698.030 2.57815
699.703 2.53722
701.377 2.60836
702.214 2.74206
703.051 3.01620
703.888 3.56867
704.725 4.73290
705.143 5.79036
705.562 7.46708
705.980 10.2795
706.398 15.3832
706.608 19.5861
706.817 25.7858
707.026 35.3887
707.235 51.2333
707.444 79.6961
707.549 103.003
707.654 137.239
707.758 189.770
707.863 274.474
707.967 417.953
708.072 666.208
708.186 1089.06
708.300 1391.31
708.414 1137.33
708.528 726.620
708.663 423.124
708.797 266.776
708.932 181.994
709.066 132.161
709.201 100.703
709.335 79.6580
709.604 54.1749
709.873 39.8902
710.142 31.0598
710.680 21.0958
711.218 15.8359
711.756 12.6867
712.294 10.6306
712.832 9.20108
713.907 7.36854
714.983 6.25800
716.059 5.51762
717.135 4.98883
719.287 4.27864
721.439 3.81441
725.742 3.21374
730.046 2.80643
734.349 2.48177
742.956 1.92727
751.563 1.41219
755.867 1.18079
760.170 1.03685
762.322 1.05774
764.474 1.22672
766.625 1.70968
767.701 2.17925
768.777 2.92099
769.853 4.11182
770.929 6.08325
772.005 9.50847
773.081 15.9051
773.619 21.2601
774.156 29.2390
774.694 41.6994
775.232 62.3712
775.770 99.5969
776.039 130.041
776.308 174.590
776.577 242.545
776.846 350.965
777.115 531.883
777.384 838.738
777.692 1386.85
778.000 1790.34
778.308 1478.21
778.616 953.298
778.809 714.059
779.001 544.468
779.386 339.797
779.771 230.895
780.156 167.599
780.541 127.862
780.926 101.354
781.696 69.2485
782.466 51.2030
783.235 39.9865
784.775 27.2059
786.315 20.3563
787.855 16.1870
789.395 13.4175
790.934 11.4560
794.014 8.86202
797.094 7.18800
798.633 6.52320
800.173 5.89931
800.943 5.57506
801.328 5.40131
801.713 5.21630
802.098 5.02591
802.291 4.94325
802.483 4.90407
802.675 5.01708
802.772 5.24025
802.868 5.75913
802.964 7.02621
803.012 8.32251
803.060 10.6128
803.109 15.0195
803.133 18.8282
803.157 24.6285
803.181 33.9868
803.193 40.8177
803.205 49.8597
803.217 62.1377
803.229 78.7644
803.241 101.622
803.253 132.841
803.265 173.120
803.276 220.798
803.300 289.022
803.312 279.096
803.324 243.781
803.347 161.559
803.362 123.512
803.377 96.2646
803.406 63.0658
803.435 45.1268
803.465 34.5594
803.494 27.8312
803.523 23.3124
803.582 17.7638
803.641 14.5844
803.699 12.5793
803.816 10.2442
803.934 8.95510
804.051 8.14982
804.285 7.20308
804.520 6.66171
804.754 6.30537
805.223 5.84863
805.692 5.55076
806.161 5.32772
807.099 4.99003
808.975 4.49488
810.851 4.09412
812.728 3.73089
814.604 3.37588
815.542 3.19113
816.011 3.09438
816.480 2.99429
816.949 2.89530
817.183 2.85364
817.418 2.83363
817.652 2.88449
817.769 2.98577
817.887 3.22121
818.004 3.79943
818.062 4.39829
818.121 5.47518
818.180 7.61758
818.209 9.52756
818.238 12.5582
818.268 17.6890
818.282 21.6601
818.297 27.1279
818.312 34.9640
818.326 46.3343
818.341 63.4080
818.356 88.6763
818.367 115.000
818.378 145.563
818.400 187.645
818.411 179.738
818.422 155.795
818.445 101.791
818.458 77.4975
818.472 60.1107
818.499 38.8750
818.526 27.4374
818.553 20.7295
818.581 16.4922
818.608 13.6503
818.662 10.1935
818.716 8.23267
818.771 7.00673
818.880 5.59949
818.988 4.83538
819.097 4.36456
819.315 3.81893
819.532 3.51076
819.750 3.30862
820.184 3.04747
820.619 2.87235
821.054 2.73607
821.924 2.51623
823.664 2.15242
825.404 1.81682
827.154 1.48719
828.905 1.17381
830.655 0.923111
831.530 0.860281
832.406 0.887338
833.281 1.08166
833.718 1.28494
834.156 1.59844
834.594 2.07014
835.031 2.77358
835.469 3.82509
835.906 5.41562
836.344 7.87311
836.782 11.7930
837.219 18.3349
837.657 29.9702
837.876 39.2905
838.094 52.6387
838.313 72.4510
838.532 103.182
838.751 153.528
838.970 241.698
839.188 408.067
839.298 545.045
839.407 737.377
839.604 1237.56
839.800 1620.94
839.997 1357.51
840.193 887.511
840.386 574.985
840.579 392.386
840.772 283.356
840.965 214.673
841.158 169.038
841.351 137.283
841.737 97.1519
842.123 73.6286
842.509 58.5844
843.281 40.9727
844.053 31.2940
844.825 25.3144
845.597 21.3089
846.369 18.4629
847.913 14.7196
849.457 12.3895
850.229 11.5449
850.615 11.1959
851.001 10.9157
851.387 10.7714
851.580 10.8172
851.773 11.0544
851.966 11.7636
852.063 12.5430
852.159 13.9854
852.256 16.9388
852.304 19.6604
852.352 24.1146
852.401 32.0573
852.449 47.8455
852.473 62.1086
852.497 84.6845
852.521 122.167
852.545 185.444
852.573 296.283
852.600 374.174
852.627 306.284
852.655 198.453
852.684 124.559
852.713 84.1971
852.742 61.2648
852.771 47.3537
852.800 38.3551
852.829 32.2668
852.887 24.7796
852.945 20.5170
853.003 17.8602
853.119 14.8237
853.235 13.1940
853.351 12.1981
853.583 11.0540
853.816 10.4083
854.048 9.98172
854.512 9.42145
854.977 9.03912
855.441 8.74125
856.370 8.27444
858.227 7.58979
860.084 7.07619
863.799 6.32298
867.514 5.78251
874.943 5.03582
882.373 4.52510
897.232 3.82593
912.091 3.32024
926.950 2.88643
941.808 2.44981
949.238 2.20221
956.667 1.90781
960.382 1.73195
962.240 1.63486
964.097 1.53258
965.954 1.43179
966.883 1.39001
967.812 1.36902
968.740 1.40963
969.205 1.49192
969.669 1.68060
969.901 1.85684
970.133 2.13971
970.366 2.61926
970.598 3.50172
970.714 4.24020
970.830 5.34998
970.946 7.11647
971.062 10.1536
971.178 16.0035
971.236 21.1728
971.294 29.3702
971.352 43.4484
971.410 70.1201
971.439 93.0322
971.468 127.893
971.497 182.711
971.526 269.491
971.563 433.346
971.600 544.834
971.637 438.674
971.674 276.150
971.699 199.370
971.723 147.112
971.748 111.635
971.773 87.1352
971.822 56.8593
971.872 39.9251
971.921 29.6154
971.971 22.9083
972.070 15.0277
972.169 10.7538
972.268 8.18252
972.466 5.36282
972.664 3.92110
972.862 3.07867
973.060 2.53778
973.258 2.16605
973.654 1.69176
974.050 1.40098
974.843 1.05071
975.635 0.830589
976.427 0.668354
978.011 0.459992
978.408 0.439322
978.804 0.439544
979.200 0.469039
979.596 0.540560
979.992 0.673769
980.388 0.899642
980.784 1.26846
981.180 1.86495
981.576 2.83890
981.972 4.47127
982.369 7.33142
982.567 9.57045
982.765 12.6969
982.963 17.1900
983.161 23.8680
983.359 34.2511
983.557 51.3239
983.755 81.6277
983.854 106.002
983.953 141.108
984.052 193.482
984.151 274.644
984.250 404.811
984.349 615.520
984.475 1025.67
984.600 1333.76
984.726 1109.32
984.851 720.605
984.970 471.840
985.088 323.933
985.206 234.446
985.325 177.613
985.561 113.079
985.798 79.4592
986.035 59.7364
986.271 47.1364
986.745 32.4336
987.218 24.4030
987.692 19.4747
988.165 16.1971
988.638 13.8857
989.585 10.8801
990.532 9.03690
992.426 6.92939
994.319 5.78483
996.213 5.09733
998.106 4.69437
1000.00 4.55498
1001.86 4.83685
1002.79 5.31815
1003.72 6.33569
1004.19 7.24383
1004.65 8.65207
1005.12 10.9586
1005.58 15.0373
1006.05 23.1480
1006.28 30.4997
1006.51 42.4034
1006.75 63.5603
1006.98 105.447
1007.10 143.552
1007.21 203.893
1007.33 304.756
1007.44 476.537
1007.57 767.908
1007.70 968.140
1007.83 782.204
1007.96 494.447
1008.11 284.622
1008.26 177.578
1008.41 120.008
1008.56 86.4222
1008.71 65.3698
1008.86 51.3803
1009.16 34.6267
1009.47 25.3114
1009.77 19.6308
1010.37 13.2884
1010.97 9.98624
1011.58 8.03247
1012.18 6.76277
1012.78 5.87897
1013.99 4.72979
1015.20 4.00327
1017.61 3.06193
1020.02 2.34773
1021.23 1.99548
1022.43 1.62642
1023.64 1.26850
1024.24 1.15507
1024.85 1.22537
1025.15 1.43521
1025.30 1.62580
1025.45 1.90226
1025.60 2.30545
1025.75 2.89081
1025.90 3.74806
1026.05 5.01353
1026.20 6.95288
1026.36 10.0104
1026.51 15.0597
1026.66 23.8708
1026.73 30.9625
1026.81 40.9236
1026.88 55.8071
1026.96 78.4012
1027.03 115.545
1027.11 178.855
1027.18 295.579
1027.26 519.919
1027.33 874.208
1027.40 1140.26
1027.47 951.292
1027.54 622.716
1027.60 442.036
1027.65 324.845
1027.70 245.887
1027.76 193.233
1027.86 128.687
1027.97 92.9228
1028.08 71.1150
1028.18 56.8177
1028.40 39.7328
1028.61 30.2014
1028.83 24.2775
1029.04 20.3056
1029.25 17.5004
1029.68 13.8146
1030.11 11.5441
1030.54 10.0204
1030.96 8.93554
1031.82 7.49405
1032.67 6.58562
1034.39 5.50102
1036.10 4.87016
1037.81 4.45154
1041.23 3.91735
1044.65 3.57832
1048.07 3.33498
1054.92 2.99167
1061.76 2.74602
1068.61 2.55666
1072.03 2.48642
1073.74 2.46471
1075.45 2.46385
1077.16 2.51476
1078.02 2.58845
1078.87 2.74151
1079.30 2.87825
1079.73 3.09259
1080.16 3.44939
1080.58 4.09616
1080.80 4.63550
1081.01 5.44574
1081.22 6.73956
1081.44 8.98620
1081.65 13.3924
1081.76 17.3724
1081.87 23.8642
1081.97 35.4540
1082.03 45.0552
1082.08 58.9588
1082.13 80.9150
1082.19 116.231
1082.24 177.276
1082.29 285.731
1082.35 457.824
1082.40 570.085
1082.45 455.672
1082.51 287.289
1082.55 196.481
1082.59 139.864
1082.63 102.601
1082.67 78.5043
1082.76 49.7708
1082.84 34.5937
1082.92 25.5180
1083.00 19.8142
1083.17 13.2155
1083.33 9.72397
1083.50 7.65817
1083.66 6.33553
1083.83 5.43755
1084.16 4.32966
1084.49 3.69591
1084.82 3.29786
1085.15 3.03012
1085.81 2.69984
1086.47 2.50746
1087.13 2.38206
1087.79 2.29311
1089.11 2.17164
1090.43 2.08729
1093.07 1.96208
1095.71 1.85678
1098.35 1.75433
1103.63 1.52807
1108.91 1.23148
1111.55 1.03609
1114.19 0.795292
1116.83 0.513806
1118.15 0.387409
1118.81 0.349240
1119.47 0.351432
1119.80 0.378618
1120.13 0.432836
1120.46 0.525371
1120.79 0.672857
1121.12 0.900373
1121.45 1.24675
1121.78 1.77409
1122.11 2.58554
1122.44 3.86074
1122.77 5.93120
1123.10 9.45570
1123.43 15.8762
1123.60 21.1287
1123.76 28.7917
1123.93 40.4304
1124.09 59.0288
1124.26 90.7507
1124.42 149.585
1124.50 198.900
1124.59 270.439
1124.67 379.064
1124.75 539.984
1124.88 904.188
1125.00 1177.56
1125.13 980.736
1125.25 639.489
1125.33 481.461
1125.41 368.989
1125.56 233.237
1125.72 160.369
1125.87 117.683
1126.03 90.7153
1126.18 72.6153
1126.49 50.5346
1126.80 37.9792
1127.11 30.1446
1127.73 21.1345
1128.35 16.2517
1128.97 13.2676
1129.59 11.2812
1130.21 9.87741
1131.45 8.04400
1132.69 6.91543
1135.17 5.61854
1137.66 4.90963
1140.14 4.47257
1145.10 3.98419
1150.06 3.74547
1155.02 3.62635
1157.50 3.58440
1159.98 3.52592
1161.23 3.47045
1161.85 3.42751
1162.47 3.36778
1163.09 3.28555
1163.40 3.23819
1163.71 3.19948
1163.86 3.19567
1164.02 3.22091
1164.17 3.31236
1164.33 3.56467
1164.40 3.82518
1164.48 4.25967
1164.56 5.03580
1164.64 6.47647
1164.71 9.51115
1164.75 12.3264
1164.79 16.7865
1164.81 20.2850
1164.83 24.7727
1164.85 31.3162
1164.87 40.1603
1164.89 53.8430
1164.91 73.5430
1164.93 103.892
1164.95 150.820
1164.97 251.897
1165.00 329.839
1165.01 316.560
1165.03 276.367
1165.05 181.318
1165.08 124.973
1165.10 90.8807
1165.12 68.9334
1165.14 54.3053
1165.19 36.8974
1165.23 27.4084
1165.28 21.5746
1165.32 17.8727
1165.41 13.4635
1165.50 10.9876
1165.59 9.47107
1165.67 8.44462
1165.76 7.72640
1165.94 6.78435
1166.12 6.20719
1166.29 5.82285
1166.47 5.55144
1166.82 5.19886
1167.18 4.98469
1167.89 4.74876
1168.59 4.63258
1169.30 4.57377
1170.72 4.54156
1173.55 4.63323
1176.38 4.83619
1182.04 5.51786
1187.70 6.70536
1193.36 8.89573
1196.20 10.7788
1199.03 13.7828
1201.86 19.2028
1203.27 23.8593
1204.69 31.2691
1206.10 44.4616
1206.81 55.4831
1207.52 72.3064
1208.23 100.137
1208.94 151.213
1209.29 194.227
1209.64 258.944
1210.00 359.779
1210.35 517.003
1210.78 783.309
1211.20 925.694
1211.63 699.466
1212.05 412.415
1212.42 254.608
1212.80 163.722
1213.17 110.082
1213.54 77.1514
1213.92 55.8714
1214.29 41.6307
1215.04 24.6664
1215.78 15.6181
1216.53 10.4350
1217.28 7.30534
1218.02 5.36164
1218.77 4.13495
1219.52 3.36808
1221.01 2.65059
1222.50 2.54813
1224.00 2.78407
1226.98 3.83981
1229.97 5.44670
1235.94 10.5128
1238.93 14.5052
1241.91 20.2102
1244.90 28.7738
1247.89 42.4568
1250.87 66.2146
1253.86 112.425
1255.35 153.373
1256.84 217.868
1258.34 324.240
1259.83 501.952
1261.42 775.494
1263.00 920.568
1264.59 683.980
1266.17 383.774
1267.12 261.131
1268.07 175.886
1269.02 117.065
1269.97 77.1102
1270.91 53.1432
1271.39 48.2922
1271.86 50.6730
1272.34 64.9096
1272.81 100.729
1273.05 132.605
1273.29 179.224
1273.52 246.837
1273.76 343.530
1274.28 687.573
1274.80 1055.38
1275.06 1091.33
1275.32 1013.46
1275.84 744.210
1276.32 541.505
1276.80 406.770
1277.28 317.600
1277.76 256.451
1278.72 180.316
1279.67 135.858
1280.63 107.070
1281.59 86.9984
1283.51 60.8939
1285.42 44.6150
1287.34 33.4287
1291.17 18.7860
1295.00 9.38093
1296.92 5.99075
1298.84 3.78301
1299.79 3.47352
1300.27 3.65638
1300.75 4.16126
1301.23 5.09948
1301.71 6.63125
1302.19 8.99138
1302.67 12.5313
1303.15 17.7897
1303.63 25.6148
1304.11 37.3836
1304.58 55.4043
1305.06 83.6745
1305.54 129.295
1306.02 204.870
1306.50 330.862
1307.15 613.518
1307.80 878.498
1308.45 797.641
1309.10 560.948
1309.58 422.775
1310.07 326.093
1310.55 259.186
1311.03 211.924
1312.00 151.886
1312.96 116.705
1313.93 94.1428
1314.89 78.6972
1316.83 59.1517
1318.76 47.4295
1320.69 39.6662
1324.55 30.0258
1328.41 24.2537
1332.28 20.3891
1340.00 15.4909
1340.00 15.4890
1340.01 15.4861
1340.01 15.4832
1340.02 15.4779
1340.05 15.4669
1340.09 15.4448
1340.18 15.4013
1340.37 15.3151
1340.73 15.1450
1341.46 14.8161
1342.92 14.1984
1345.84 13.1013
1351.67 11.3295
1363.34 8.84118
1375.00 7.13175
1386.67 5.83102
1398.34 4.74301
1404.17 4.23676
1410.01 3.73925
1415.84 3.25464
1418.76 3.03972
1421.67 2.90013
1424.59 3.01568
1426.05 3.35376
1427.51 4.19903
1428.24 5.02234
1428.97 6.36913
1429.70 8.67887
1430.42 12.9260
1430.79 16.4402
1431.15 21.6051
1431.52 29.5847
1431.88 42.5677
1432.25 65.4840
1432.61 110.024
1432.79 149.282
1432.98 209.615
1433.16 305.976
1433.34 461.179
1433.57 759.112
1433.80 977.329
1434.03 807.620
1434.26 521.985
1434.48 340.922
1434.69 233.446
1434.91 168.533
1435.12 127.363
1435.56 80.7976
1435.99 56.6983
1436.42 42.5849
1436.85 33.6068
1437.71 23.1900
1438.58 17.5185
1439.44 14.0471
1441.17 10.0917
1442.90 7.92587
1444.62 6.55013
1448.08 4.83139
1451.53 3.67340
1454.98 2.65673
1456.71 2.10934
1457.58 1.80742
1458.44 1.48487
1459.30 1.17197
1459.73 1.06960
1460.17 1.11227
1460.38 1.26836
1460.60 1.62167
1460.71 1.92609
1460.81 2.36715
1460.92 3.01099
1461.03 3.96506
1461.14 5.41185
1461.25 7.67852
1461.35 11.3924
1461.46 17.8648
1461.52 22.9629
1461.57 30.1628
1461.62 40.6716
1461.68 56.6351
1461.73 82.0850
1461.79 125.030
1461.84 201.931
1461.89 340.470
1461.95 569.782
1462.00 745.143
1462.05 625.341
1462.11 410.091
1462.15 302.195
1462.18 227.593
1462.22 176.310
1462.26 140.367
1462.33 95.3868
1462.40 69.9564
1462.48 53.8791
1462.55 43.3251
1462.70 30.4311
1462.85 23.1099
1462.99 18.5636
1463.29 13.3219
1463.58 10.4621
1463.88 8.70991
1464.46 6.71946
1465.05 5.68345
1465.64 5.13007
1466.82 4.98063
1467.41 5.42464
1468.00 6.41866
1468.59 8.36284
1469.18 12.1591
1469.47 15.3599
1469.76 20.0712
1470.06 27.3062
1470.35 38.8639
1470.65 58.6112
1470.94 94.8120
1471.09 124.589
1471.24 167.800
1471.38 231.649
1471.53 325.894
1471.77 550.308
1472.00 725.626
1472.24 609.897
1472.47 400.142
1472.62 299.781
1472.78 229.180
1473.08 144.953
1473.39 100.273
1473.69 74.3935
1474.00 58.0448
1474.30 47.1160
1474.91 33.7463
1475.52 26.1011
1476.14 21.2717
1477.36 15.6405
1478.58 12.5156
1479.80 10.5509
1482.24 8.21929
1484.68 6.86694
1487.13 5.96422
1492.01 4.77766
1496.90 3.95429
1499.34 3.59765
1501.78 3.25037
1504.23 2.89454
1505.45 2.71176
1506.67 2.53743
1507.28 2.46628
1507.89 2.42669
1508.50 2.46170
1509.11 2.68388
1509.42 2.95441
1509.72 3.44388
1510.03 4.35487
1510.33 6.15581
1510.49 7.72633
1510.64 10.1335
1510.79 14.0085
1510.94 20.6142
1511.10 33.1134
1511.17 43.6801
1511.25 59.6978
1511.33 85.6743
1511.40 129.287
1511.48 208.246
1511.55 356.710
1511.63 590.408
1511.70 763.919
1511.77 632.328
1511.85 409.071
1511.89 308.361
1511.94 236.575
1512.03 149.323
1512.12 102.567
1512.21 75.4792
1512.30 58.1812
1512.39 46.6114
1512.56 32.6201
1512.74 24.6777
1512.92 19.7535
1513.28 14.1042
1513.64 11.0651
1514.00 9.21049
1514.36 7.97692
1514.72 7.10555
1515.44 5.95620
1516.15 5.23578
1517.59 4.37118
1519.02 3.85467
1520.46 3.49668
1523.33 2.99872
1529.07 2.33063
1534.81 1.79588
1540.55 1.28124
1543.42 1.01859
1546.29 0.759495
1549.16 0.555064
1550.60 0.537839
1551.31 0.585302
1552.03 0.703525
1552.75 0.943900
1553.47 1.40421
1553.83 1.77452
1554.18 2.29245
1554.54 3.02744
1554.90 4.08852
1555.26 5.67201
1555.62 8.11755
1555.98 12.0833
1556.34 18.9292
1556.70 31.9654
1556.88 43.2015
1557.05 60.3149
1557.23 88.1342
1557.41 135.847
1557.59 224.092
1557.77 394.663
1557.94 655.635
1558.10 848.095
1558.27 701.685
1558.43 454.312
1558.62 268.745
1558.81 172.084
1559.01 118.700
1559.20 87.1537
1559.39 66.9484
1559.58 53.3910
1559.97 36.7437
1560.35 27.2894
1560.74 21.3732
1561.51 14.5995
1562.28 10.9511
1563.05 8.73539
1564.59 6.26277
1566.13 4.99064
1567.67 4.30139
1570.75 3.97753
1572.29 4.33139
1573.82 5.19835
1575.36 6.93612
1576.90 10.3578
1577.67 13.2515
1578.44 17.5416
1579.21 24.1416
1579.98 34.7866
1580.75 53.1475
1581.52 87.5132
1581.91 116.392
1582.29 159.120
1582.68 223.765
1583.06 321.339
1583.63 537.712
1584.20 702.668
1584.77 587.095
1585.34 383.110
1585.87 253.311
1586.40 175.541
1586.93 128.084
1587.46 97.7164
1588.52 62.9668
1589.58 44.7236
1590.64 33.9281
1591.70 26.9861
1593.82 18.7913
1595.95 14.2369
1598.07 11.3850
1602.31 8.03581
1606.55 6.11783
1610.79 4.84315
1619.28 3.14941
1627.76 1.93739
1632.00 1.41241
1636.24 0.933375
1640.49 0.553529
1642.61 0.468088
1643.67 0.486460
1644.73 0.578299
1645.26 0.665981
1645.79 0.793006
1646.32 0.972765
1646.85 1.22422
1647.38 1.57592
1647.91 2.06841
1648.44 2.76715
1648.97 3.77669
1649.50 5.27636
1650.03 7.57318
1650.56 11.2607
1651.09 17.5536
1651.62 29.2251
1651.89 38.9899
1652.15 53.5415
1652.42 76.1767
1652.68 113.145
1652.95 176.527
1653.21 287.665
1653.51 487.138
1653.80 644.334
1654.10 544.363
1654.39 359.427
1654.59 268.589
1654.78 205.437
1655.18 130.434
1655.57 91.3376
1655.96 68.9599
1656.36 55.1492
1656.75 46.1466
1657.53 35.8739
1658.32 31.0313
1659.10 29.2011
1660.68 31.6445
1662.25 42.9107
1663.03 53.9319
1663.82 71.3425
1664.60 99.8000
1665.39 148.523
1666.18 237.089
1666.96 402.954
1667.73 670.647
1668.50 874.224
1669.27 730.439
1670.04 477.460
1670.88 296.093
1671.72 196.423
1672.56 139.564
1673.40 104.845
1674.24 82.2382
1675.08 66.7540
1676.76 47.4276
1678.44 36.1900
1680.12 29.0183
1683.48 20.5723
1686.84 15.8458
1690.20 12.8467
1696.93 9.22088
1703.65 7.01634
1707.01 6.17103
1710.37 5.44111
1713.73 4.85779
1715.41 4.68926
1717.09 4.74324
1718.77 5.40874
1719.61 6.33435
1720.45 8.23565
1721.29 12.4499
1721.71 16.5082
1722.13 23.3520
1722.55 35.8289
1722.76 46.0999
1722.97 61.1849
1723.18 84.2320
1723.39 121.029
1723.60 182.312
1723.81 286.005
1724.06 475.739
1724.30 619.659
1724.55 517.760
1724.79 338.553
1725.07 206.455
1725.35 135.477
1725.62 95.7329
1725.90 71.8567
1726.18 56.4125
1726.46 45.9037
1727.01 32.9210
1727.57 25.4337
1728.12 20.6974
1729.23 15.1669
1730.34 12.1010
1731.45 10.1728
1733.68 7.86747
1735.90 6.49857
1738.12 5.54922
1742.56 4.20941
1747.00 3.22681
1749.22 2.86819
1751.45 2.72735
1753.67 3.22674
1754.78 4.12935
1755.89 6.13318
1756.44 7.95463
1757.00 10.7758
1757.55 15.3063
1758.11 22.9418
1758.67 36.7211
1758.94 47.8622
1759.22 63.8203
1759.50 87.5583
1759.78 123.756
1760.05 180.932
1760.33 271.123
1760.72 465.832
1761.10 624.205
1761.49 532.495
1761.87 354.207
1762.21 242.956
1762.55 173.686
1762.89 130.149
1763.23 101.700
1763.92 68.2272
1764.60 50.1778
1765.28 39.2713
1765.96 32.1482
1767.32 23.5923
1768.68 18.7449
1770.05 15.6728
1772.77 12.0381
1775.50 9.96373
1778.22 8.61455
1783.67 6.92873
1789.12 5.87324
1794.57 5.11117
1805.48 3.98738
1816.38 3.08261
1821.83 2.66322
1827.28 2.27655
1832.73 2.02298
1835.45 2.06942
1838.18 2.46466
1839.54 2.95207
1840.91 3.83353
1842.27 5.45626
1843.63 8.59710
1844.31 11.2707
1844.99 15.2689
1845.67 21.5060
1846.36 31.7704
1847.04 49.9368
1847.72 85.1728
1848.06 115.823
1848.40 162.476
1848.74 236.056
1849.08 352.142
1849.54 592.572
1850.00 778.184
1850.46 651.826
1850.92 426.123
1851.39 272.927
1851.85 184.966
1852.32 133.150
1852.78 100.808
1853.25 79.4510
1853.72 64.6517
1854.65 46.0156
1855.58 35.1180
1856.51 28.1507
1858.38 19.9818
1860.24 15.4643
1862.10 12.6489
1865.83 9.36830
1869.56 7.51599
1873.29 6.30992
1880.74 4.77366
1888.20 3.78044
1891.92 3.42094
1895.65 3.20598
1899.38 3.35821
1901.24 3.80049
1903.11 4.87049
1904.04 5.88215
1904.97 7.49649
1905.90 10.1744
1906.83 14.8787
1907.77 23.8593
1908.23 31.5463
1908.70 43.2279
1909.16 61.8471
1909.63 93.2427
1910.10 149.417
1910.56 252.963
1911.03 424.916
1911.50 557.796
1911.97 467.656
1912.44 306.311
1912.84 210.277
1913.24 150.154
1913.64 112.016
1914.04 87.0058
1914.84 57.6016
1915.64 41.7673
1916.45 32.2656
1917.25 26.0910
1918.85 18.7515
1920.45 14.6480
1922.05 12.0787
1923.65 10.3331
1925.25 9.07582
1928.46 7.38251
1931.66 6.28522
1938.07 4.89998
1944.47 3.99158
1950.88 3.26273
1954.08 2.90730
1955.68 2.71809
1957.29 2.51147
1958.89 2.27441
1959.69 2.13983
1960.49 1.99616
1961.29 1.86553
1961.69 1.83726
1962.09 1.90020
1962.29 2.01427
1962.49 2.24544
1962.69 2.70643
1962.89 3.65873
1962.99 4.50307
1963.09 5.80738
1963.19 7.91335
1963.29 11.5231
1963.39 18.2413
1963.44 23.8750
1963.49 32.2870
1963.54 45.4065
1963.59 66.9163
1963.64 104.002
1963.69 169.491
1963.75 285.551
1963.80 372.990
1963.86 311.333
1963.91 204.359
1963.95 152.236
1963.98 116.673
1964.05 73.9600
1964.12 51.0548
1964.19 37.9525
1964.26 29.5973
1964.33 24.0854
1964.47 17.3141
1964.61 13.4712
1964.76 11.0576
1965.04 8.26654
1965.32 6.73976
1965.60 5.79250
1965.88 5.15223
1966.17 4.69171
1966.73 4.07270
1967.29 3.67235
1968.42 3.17186
1969.55 2.85557
1970.68 2.62428
1972.93 2.28062
1977.44 1.77598
1981.96 1.36349
1986.47 1.03838
1988.72 0.953953
1990.98 0.998519
1992.11 1.11204
1993.23 1.33035
1994.36 1.71347
1995.49 2.36389
1996.62 3.46925
1997.75 5.38891
1998.87 8.87586
1999.44 11.6814
2000.00 15.6773
2000.90 26.4236
2001.35 35.3550
2001.80 48.5272
2002.25 68.6839
2002.70 100.813
2003.15 154.038
2003.60 243.465
2004.15 417.390
2004.70 557.553
2005.25 474.315
2005.80 314.510
2006.44 192.105
2007.08 126.602
2007.72 89.8733
2008.36 67.7247
2009.00 53.3774
2009.64 43.5798
2010.92 31.3598
2012.20 24.2439
2013.48 19.6936
2016.05 14.3193
2018.61 11.3103
2021.17 9.40794
2026.29 7.14820
2031.41 5.84555
2036.53 4.98968
2046.78 3.92306
2057.02 3.31902
2067.27 3.09293
2072.39 3.20679
2074.95 3.37794
2077.51 3.69409
2080.07 4.30218
2081.35 4.83525
2082.63 5.69531
2083.92 7.27577
2084.56 8.66007
2085.20 10.9186
2085.84 15.1105
2086.16 18.7694
2086.48 24.6455
2086.80 35.1028
2086.96 43.7588
2087.12 56.7807
2087.28 77.6657
2087.44 113.991
2087.60 183.555
2087.68 242.255
2087.76 326.275
2087.88 502.239
2088.00 604.638
2088.12 466.915
2088.24 282.112
2088.32 205.805
2088.39 153.235
2088.53 90.3373
2088.68 57.7892
2088.82 39.4731
2088.97 28.3876
2089.11 21.2737
2089.40 13.1710
2089.69 8.98690
2089.98 6.62426
2090.27 5.20076
2090.56 4.30618
2091.14 3.33755
2091.72 2.91451
2092.88 2.70759
2094.04 2.82914
2095.20 3.08153
2097.52 3.79341
2102.15 5.99758
2106.79 10.0009
2109.11 13.2835
2111.42 18.0769
2113.74 25.3474
2116.06 36.9084
2118.38 56.4234
2120.70 91.9456
2121.85 120.910
2123.01 162.615
2124.17 223.653
2125.33 312.649
2127.22 525.877
2129.10 689.685
2130.99 578.291
2132.87 378.376
2134.11 281.929
2135.34 214.189
2137.81 133.269
2140.28 90.5352
2142.75 65.6555
2145.22 49.9029
2147.69 39.2192
2152.63 25.7310
2157.57 17.2404
2160.04 13.8058
2162.51 10.5478
2164.98 7.24420
2166.22 5.55087
2167.45 3.94096
2168.69 2.91149
2169.30 3.15048
2169.61 3.71326
2169.92 4.78366
2170.23 6.66058
2170.54 9.83774
2170.85 15.1935
2171.16 24.3244
2171.47 40.5023
2171.77 70.4580
2171.93 94.8096
2172.08 129.067
2172.24 177.913
2172.39 247.228
2172.70 459.077
2173.00 658.843
2173.15 662.403
2173.31 600.297
2173.61 424.449
2173.81 332.406
2174.01 264.784
2174.40 180.215
2174.80 132.971
2175.19 104.370
2175.59 85.6195
2175.98 72.6409
2176.77 56.0458
2177.56 46.0420
2178.36 39.4068
2179.94 31.1771
2181.52 26.2538
2183.10 22.9449
2186.27 18.6917
2189.43 15.9835
2192.59 14.0351
2198.92 11.2456
2205.25 9.09080
2208.41 8.06027
2211.58 6.95539
2214.74 5.64747
2216.32 4.85147
2217.90 3.91141
2219.49 2.81813
2220.28 2.27223
2221.07 1.89889
2221.46 1.91404
2221.86 2.24859
2222.06 2.62839
2222.26 3.23629
2222.45 4.18047
2222.65 5.62208
2222.85 7.85065
2223.05 11.3259
2223.24 16.8709
2223.44 25.9615
2223.64 41.7208
2223.84 70.3777
2223.94 93.6363
2224.03 126.663
2224.13 174.054
2224.23 240.972
2224.42 432.626
2224.60 602.293
2224.79 534.384
2224.97 369.419
2225.10 278.438
2225.23 214.752
2225.37 170.596
2225.50 139.381
2225.76 99.7872
2226.02 76.7604
2226.29 62.0624
2226.55 52.1194
2227.08 39.6984
2227.61 32.4108
2228.13 27.6844
2229.19 21.9825
2230.24 18.6883
2231.30 16.5482
2233.40 13.9147
2235.51 12.3297
2237.62 11.2485
2241.84 9.81640
2246.05 8.86011
2250.27 8.13777
2258.70 7.03069
2267.14 6.10024
2271.35 5.63012
2275.57 5.10789
2279.79 4.46039
2281.90 4.04431
2284.00 3.51775
2285.06 3.19253
2286.11 2.81119
2287.17 2.36094
2288.22 1.84114
2288.75 1.57078
2289.27 1.32819
2289.80 1.19423
2290.07 1.22661
2290.33 1.39135
2290.59 1.78999
2290.72 2.13047
2290.86 2.60719
2290.99 3.28090
2291.12 4.22723
2291.25 5.56419
2291.38 7.45648
2291.51 10.2202
2291.65 14.3198
2291.78 20.5769
2291.91 30.3858
2292.04 46.7260
2292.17 75.3142
2292.31 128.380
2292.37 171.158
2292.44 229.250
2292.57 403.331
2292.70 552.726
2292.83 483.816
2292.96 329.953
2293.07 236.119
2293.18 175.106
2293.29 135.022
2293.40 107.858
2293.61 74.8702
2293.83 56.4248
2294.05 44.9850
2294.26 37.4129
2294.69 28.1586
2295.13 22.8232
2295.56 19.4189
2295.99 17.0696
2296.42 15.3665
2297.29 13.0653
2298.15 11.5896
2299.02 10.5636
2299.88 9.80846
2301.61 8.76377
2303.34 8.06892
2306.80 7.18188
2310.26 6.61836
2313.72 6.21348
2320.64 5.64399
2327.56 5.25357
2331.02 5.11357
2334.48 5.02771
2337.94 5.05601
2339.67 5.17146
2341.40 5.45151
2343.13 6.13736
2343.99 6.84648
2344.86 8.13017
2345.72 10.7520
2346.15 13.1924
2346.59 17.2566
2347.02 24.7405
2347.23 31.0179
2347.45 40.4965
2347.67 55.6222
2347.88 81.4345
2348.10 128.884
2348.31 220.219
2348.51 352.902
2348.70 443.920
2348.89 358.872
2349.09 227.687
2349.24 155.642
2349.40 110.330
2349.55 81.6176
2349.71 62.7756
2350.02 40.8228
2350.33 29.2208
2350.65 22.3706
2350.96 18.0280
2351.58 13.0172
2352.20 10.3421
2352.83 8.74534
2354.07 6.99591
2355.32 6.09346
2356.57 5.55758
2359.06 4.95855
2361.55 4.63146
2364.04 4.42232
2369.03 4.16650
2379.00 3.96071
2388.97 4.10965
2398.95 4.98673
2403.93 6.07550
2408.92 8.18013
2413.90 12.5843
2416.40 16.6483
2418.89 23.2671
2421.38 34.8425
2423.88 57.1374
2425.12 76.4400
2426.37 105.872
2427.61 152.200
2428.86 225.552
2430.48 368.600
2432.10 470.490
2433.72 384.175
2435.34 244.909
2437.15 145.669
2438.96 92.6386
2440.78 63.0075
2442.59 45.1389
2444.40 33.5656
2446.21 25.5906
2449.84 15.3687
2453.46 8.96588
2455.27 6.59050
2457.08 4.80594
2457.99 4.27910
2458.90 4.20656
2459.80 4.95884
2460.25 5.86508
2460.71 7.33657
2461.16 9.64351
2461.61 13.2183
2462.07 18.7753
2462.52 27.5372
2462.97 41.6746
2463.43 65.1626
2463.88 105.333
2464.33 174.472
2464.92 325.855
2465.50 470.890
2465.79 474.660
2466.09 431.157
2466.67 305.768
2467.17 223.228
2467.67 168.471
2468.16 132.166
2468.66 107.426
2469.66 76.9660
2470.65 59.6043
2471.64 48.6329
2472.64 41.1784
2474.63 31.7817
2476.62 26.1441
2478.61 22.3923
2482.58 17.6944
2486.56 14.8466
2490.54 12.9157
2498.50 10.4258
2506.45 8.85479
2514.41 7.74711
2530.32 6.22897
2546.23 5.16355
2562.14 4.29431
2578.06 3.48623
2586.01 3.07340
2589.99 2.86453
2591.98 2.77979
2592.48 2.77798
2592.97 2.82267
2593.22 2.90739
2593.47 3.16040
2593.60 3.50678
2593.72 4.40637
2593.78 5.51563
2593.81 6.50947
2593.84 8.11696
2593.87 10.9528
2593.91 16.6002
2593.92 21.9246
2593.94 29.9495
2593.95 44.5014
2593.97 68.9863
2593.98 109.673
2594.00 135.533
2594.02 109.678
2594.03 68.9914
2594.05 43.3306
2594.07 28.6379
2594.08 20.3490
2594.10 15.5968
2594.13 10.2460
2594.17 7.60327
2594.20 6.11961
2594.23 5.20753
2594.30 4.19316
2594.43 3.36486
2594.56 3.04419
2594.83 2.78999
2595.09 2.68733
2595.62 2.59203
2596.15 2.53821
2598.27 2.39137
2602.50 2.13223
2606.74 1.87974
2608.85 1.76917
2609.91 1.75296
2610.18 1.78005
2610.44 1.87777
2610.58 2.01972
2610.71 2.40117
2610.77 2.88497
2610.84 4.06015
2610.87 5.39497
2610.91 8.19806
2610.92 10.9954
2610.94 15.5037
2610.96 24.4269
2610.97 41.8520
2610.99 66.2856
2611.00 82.1347
2611.01 66.2835
2611.03 41.8484
2611.04 29.3702
2611.05 21.1421
2611.06 15.8743
2611.07 12.6570
2611.09 8.58541
2611.11 6.38080
2611.16 4.19674
2611.20 3.24348
2611.28 2.42668
2611.37 2.10234
2611.54 1.84324
2611.71 1.74176
2612.04 1.65718
2612.38 1.61835
2613.74 1.54866
2616.44 1.52483
2619.15 1.69907
2621.85 2.33361
2623.21 3.02148
2624.56 4.19612
2625.91 6.25588
2627.27 10.0496
2627.94 13.1444
2628.62 17.6138
2629.30 24.2790
2629.97 34.6024
2630.65 51.4424
2631.33 80.4806
2632.00 133.978
2632.68 235.957
2633.34 403.566
2634.00 538.605
2634.66 459.519
2635.32 305.951
2635.87 214.044
2636.42 155.137
2636.98 117.236
2637.53 91.9857
2638.63 61.9018
2639.74 45.4339
2640.84 35.4248
2641.94 28.8516
2644.15 20.9398
2646.36 16.4594
2648.57 13.6241
2652.98 10.2807
2657.40 8.38308
2661.81 7.15477
2670.65 5.62913
2679.48 4.68757
2688.31 4.04457
2697.14 3.66230
2701.55 3.66022
2703.76 3.79001
2704.87 3.96440
2705.14 4.06150
2705.42 4.26639
2705.56 4.50524
2705.69 5.09690
2705.76 5.82257
2705.83 7.56210
2705.87 9.56702
2705.90 13.6447
2705.92 17.5188
2705.94 24.0827
2705.95 36.0754
2705.97 60.7924
2705.99 94.9780
2706.00 117.581
2706.02 94.9978
2706.03 60.8219
2706.05 37.0873
2706.06 24.6390
2706.08 17.8573
2706.10 14.0591
2706.13 9.78960
2706.16 7.80396
2706.23 6.01487
2706.30 5.28860
2706.43 4.71899
2706.56 4.52169
2706.83 4.41862
2707.10 4.43421
2707.63 4.57591
2708.16 4.79692
2709.23 5.48414
2710.29 6.71412
2711.36 9.16099
2711.89 11.3958
2712.42 15.0735
2712.95 21.7741
2713.22 27.3693
2713.49 35.8093
2713.75 49.3686
2714.02 72.6009
2714.28 115.913
2714.55 201.060
2714.78 317.850
2715.00 393.795
2715.23 313.380
2715.45 195.480
2715.61 136.685
2715.78 98.2613
2715.94 73.0989
2716.11 56.2602
2716.43 36.0900
2716.76 25.1947
2717.09 18.7334
2717.41 14.6180
2718.07 9.90049
2718.72 7.41679
2719.38 5.96341
2720.68 4.42880
2721.99 3.69242
2723.30 3.30013
2725.92 2.97380
2731.15 3.14001
2736.39 4.22507
2739.00 5.33067
2741.62 7.10925
2744.24 10.0305
2746.85 15.0253
2749.47 24.0981
2750.78 31.4575
2752.09 42.0399
2753.40 57.7320
2754.70 81.6873
2756.01 119.248
2757.32 178.401
2759.16 307.399
2761.00 413.234
2762.84 355.044
2764.68 238.026
2766.76 149.049
2768.84 100.053
2770.92 72.0440
2773.00 54.8738
2775.08 43.6238
2777.16 35.8461
2781.32 25.9903
2785.49 20.1043
2789.65 16.1945
2793.81 13.3497
2795.89 12.1752
2796.93 11.6848
2797.19 11.6173
2797.45 11.6712
2797.58 11.8534
2797.71 12.4335
2797.77 13.1994
2797.84 15.0523
2797.87 17.1530
2797.90 21.2701
2797.92 25.3157
2797.94 31.5706
2797.95 42.2826
2797.97 61.0894
2797.98 92.0807
2798.00 111.131
2798.02 90.1317
2798.03 61.0670
2798.05 45.0221
2798.06 35.4832
2798.07 28.7791
2798.08 24.6534
2798.11 19.5239
2798.13 16.7680
2798.18 14.0890
2798.23 12.8787
2798.33 11.8318
2798.43 11.3878
2798.63 10.9763
2798.83 10.7596
2799.23 10.4696
2799.63 10.2351
2801.22 9.38013
2802.82 8.50597
2804.41 7.53113
2806.01 6.33972
2806.81 5.59859
2807.60 4.70600
2808.40 3.61769
2808.80 3.01949
2809.20 2.48410
2809.60 2.35788
2809.80 2.80102
2809.90 3.31387
2809.99 4.14650
2810.09 5.49568
2810.19 7.65794
2810.29 11.1616
2810.39 16.8978
2810.49 26.8223
2810.59 44.4195
2810.64 58.4361
2810.69 77.9123
2810.74 105.148
2810.79 142.142
2810.90 263.043
2811.00 375.897
2811.05 377.345
2811.11 341.545
2811.21 241.524
2811.29 179.006
2811.38 136.666
2811.46 108.196
2811.54 88.7270
2811.71 64.3275
2811.88 50.2981
2812.05 41.4295
2812.21 35.4107
2812.55 27.8772
2812.88 23.3992
2813.22 20.4650
2813.88 16.8412
2814.55 14.6635
2815.22 13.1813
2816.56 11.1836
2817.89 9.71921
2818.56 9.03082
2819.23 8.29557
2819.90 7.42028
2820.23 6.88401
2820.57 6.24324
2820.90 5.47628
2821.07 5.06791
2821.24 4.72696
2821.40 4.73276
2821.49 5.14212
2821.57 6.23574
2821.61 7.29258
2821.65 8.94649
2821.70 11.5655
2821.74 15.6761
2821.78 22.6605
2821.80 27.8569
2821.82 34.7633
2821.84 44.0356
2821.86 56.5858
2821.88 73.6298
2821.90 95.3691
2821.93 131.740
2821.95 175.533
2822.00 250.347
2822.03 252.055
2822.05 229.221
2822.10 164.485
2822.14 118.262
2822.19 88.6953
2822.23 69.7662
2822.28 57.3896
2822.37 42.1512
2822.46 33.7459
2822.55 28.4598
2822.63 24.9465
2822.81 20.5506
2822.99 17.9549
2823.17 16.2501
2823.53 14.1513
2823.89 12.8928
2824.24 12.0449
2824.96 10.9494
2825.68 10.2435
2826.39 9.73190
2827.82 9.00033
2830.68 8.04516
2833.54 7.37062
2839.27 6.35880
2844.99 5.56167
2850.71 4.89723
2856.44 4.40696
2859.30 4.29989
2862.16 4.39116
2863.59 4.55386
2865.02 4.80356
2865.74 4.94762
2866.10 5.02483
2866.45 5.12626
2866.81 5.34878
2866.99 5.61810
2867.17 6.19401
2867.35 7.59703
2867.44 9.05560
2867.53 11.6054
2867.62 16.5055
2867.66 20.6444
2867.71 26.6374
2867.75 36.0269
2867.79 50.5896
2867.84 75.0136
2867.88 114.528
2867.94 200.072
2868.00 273.865
2868.06 242.449
2868.12 169.498
2868.18 117.104
2868.23 85.4964
2868.29 66.1873
2868.35 53.9715
2868.46 39.6453
2868.58 32.1398
2868.70 27.6775
2868.81 24.8780
2869.04 21.7547
2869.27 20.2930
2869.50 19.6860
2869.96 19.8511
2870.89 23.3538
2871.81 30.7144
2872.73 44.0402
2873.66 68.9519
2874.12 89.5047
2874.58 119.192
2875.04 162.832
2875.50 226.794
2876.25 381.070
2877.00 502.065
2877.75 424.737
2878.50 281.291
2879.05 205.152
2879.59 153.625
2880.14 118.867
2880.69 94.8891
2881.78 65.2157
2882.87 48.4410
2883.97 38.0244
2885.06 31.0931
2887.25 22.6183
2889.44 17.7205
2891.62 14.5405
2896.00 10.5590
2900.37 7.91676
2902.56 6.76843
2904.74 5.63117
2906.93 4.47765
2908.03 3.94216
2909.12 3.57994
2910.21 3.84920
2910.76 4.66710
2911.31 6.64310
2911.58 8.48554
2911.85 11.3390
2912.13 15.8939
2912.40 23.3576
2912.67 36.2575
2912.95 59.7254
2913.08 78.7422
2913.22 105.506
2913.36 144.140
2913.49 198.866
2913.75 353.479
2914.00 489.986
2914.25 433.688
2914.51 299.099
2914.71 217.619
2914.92 163.389
2915.12 127.412
2915.33 102.839
2915.74 72.7319
2916.15 55.7255
2916.56 45.1283
2916.97 38.0226
2917.79 29.2634
2918.61 24.1493
2919.43 20.8355
2921.07 16.8230
2922.71 14.4790
2924.35 12.9336
2927.62 10.9884
2930.90 9.78147
2934.18 8.93441
2940.74 7.77520
2953.86 6.35360
2960.41 5.83608
2963.69 5.60500
2965.33 5.50703
2966.15 5.50954
2966.36 5.55364
2966.56 5.69689
2966.67 5.89684
2966.77 6.41651
2966.82 7.05404
2966.87 8.53354
2966.90 10.1673
2966.92 13.2412
2966.93 16.0818
2966.95 20.6133
2966.96 28.1998
2966.97 40.7533
2966.99 62.2558
2967.00 76.2067
2967.01 62.2608
2967.03 40.7583
2967.04 26.0742
2967.06 18.6013
2967.07 14.3946
2967.09 11.8635
2967.12 9.15280
2967.15 7.82750
2967.21 6.62235
2967.27 6.12532
2967.39 5.71716
2967.51 5.55677
2967.75 5.42409
2967.99 5.36558
2968.96 5.25937
2970.89 5.12268
2974.75 4.87265
2982.47 4.37535
2986.33 4.10919
2990.19 3.80321
2992.13 3.61387
2993.09 3.50002
2994.06 3.36393
2995.02 3.19153
2995.50 3.08532
2995.99 2.96390
2996.47 2.83900
2996.71 2.79717
2996.95 2.81687
2997.19 3.03946
2997.31 3.36295
2997.43 4.03974
2997.56 5.58118
2997.62 7.06036
2997.68 9.53652
2997.74 14.0667
2997.77 17.6703
2997.80 22.8372
2997.83 30.4731
2997.86 42.1221
2997.89 60.3880
2997.92 89.9104
2997.96 151.810
2998.00 202.759
2998.04 173.091
2998.08 116.391
2998.11 86.4527
2998.14 65.6436
2998.17 51.4869
2998.20 41.6414
2998.26 29.3991
2998.32 22.4280
2998.38 18.0888
2998.44 15.1963
2998.56 11.6730
2998.68 9.66297
2998.80 8.39017
2999.04 6.90284
2999.28 6.06894
2999.52 5.54386
2999.76 5.18111
3000.00 4.91704
3000.63 4.47059
3001.25 4.19974
3001.87 4.01129
3002.50 3.86783
3003.75 3.65237
3004.99 3.48657
3007.49 3.21856
3009.99 2.98550
3014.98 2.54517
3019.97 2.10138
3024.97 1.66126
3029.96 1.34867
3032.46 1.39741
3033.71 1.55630
3034.96 1.88280
3036.20 2.49411
3037.45 3.61341
3038.70 5.76778
3039.01 6.65394
3039.32 7.93570
3039.48 8.96821
3039.64 10.8723
3039.71 12.7898
3039.75 14.3593
3039.79 16.7440
3039.83 20.6755
3039.87 27.8731
3039.89 34.0900
3039.91 42.9024
3039.93 57.2051
3039.95 79.0549
3039.97 120.475
3040.00 149.006
3040.03 120.716
3040.05 79.5214
3040.07 58.7331
3040.09 45.4407
3040.12 30.5836
3040.16 23.3518
3040.20 19.4533
3040.23 17.1333
3040.27 15.7547
3040.34 14.3135
3040.49 13.5594
3040.63 13.8108
3040.92 15.3280
3041.21 17.5558
3041.79 23.9051
3042.37 33.7096
3042.95 49.2715
3043.53 75.0711
3044.11 119.829
3044.69 198.944
3045.35 346.086
3046.00 469.016
3046.66 405.116
3047.31 272.641
3047.72 209.872
3048.12 164.313
3048.94 107.801
3049.75 76.7495
3050.57 58.1836
3051.38 46.2315
3052.19 38.0655
3053.82 27.8639
3055.45 21.8774
3057.08 18.0042
3060.33 13.3388
3063.59 10.6894
3065.22 9.83366
3066.84 9.32887
3068.47 9.47841
3069.28 10.1027
3070.10 11.5679
3070.91 14.9237
3071.32 18.1104
3071.73 23.3215
3072.13 32.3320
3072.54 49.1113
3072.74 63.0650
3072.95 83.3168
3073.15 113.352
3073.35 157.829
3073.68 263.974
3074.00 348.401
3074.32 296.690
3074.65 198.633
3074.99 128.302
3075.34 88.6456
3075.68 65.4790
3076.03 51.1481
3076.37 41.6762
3076.72 35.1270
3077.40 26.8367
3078.09 21.9275
3078.78 18.7470
3080.16 14.9167
3081.54 12.7076
3082.91 11.2661
3085.67 9.46258
3088.42 8.33506
3091.18 7.52510
3096.68 6.34178
3102.19 5.38042
3104.95 4.89886
3107.70 4.36739
3110.46 3.72303
3111.83 3.32688
3113.21 2.85910
3114.59 2.32314
3115.28 2.06859
3115.97 1.92824
3116.66 2.23197
3117.00 2.87433
3117.17 3.46725
3117.34 4.36721
3117.52 5.75508
3117.69 7.90979
3117.86 11.3682
3118.03 17.1477
3118.20 27.3500
3118.38 46.7025
3118.46 62.9287
3118.55 86.7527
3118.63 122.328
3118.72 175.393
3118.86 307.509
3119.00 420.620
3119.14 367.958
3119.28 251.022
3119.41 173.750
3119.54 125.482
3119.66 95.1140
3119.79 75.3158
3120.05 51.8627
3120.30 39.0910
3120.56 31.3197
3120.81 26.1955
3121.32 19.9791
3121.83 16.4116
3122.34 14.1347
3123.36 11.4154
3124.38 9.85327
3125.40 8.83824
3127.44 7.58099
3129.48 6.81187
3131.52 6.27532
3135.61 5.53564
3143.77 4.58415
3151.93 3.87351
3160.09 3.25981
3164.17 3.00863
3168.26 2.87528
3172.34 3.10891
3174.38 3.60382
3176.42 4.73632
3177.44 5.77447
3178.46 7.38809
3179.48 9.98136
3180.50 14.3473
3181.52 22.1967
3182.54 37.5762
3183.05 50.9629
3183.56 71.3740
3184.07 103.348
3184.58 153.682
3185.29 261.712
3186.00 348.210
3186.71 295.864
3187.42 196.212
3188.06 133.002
3188.71 94.1717
3189.35 69.9810
3189.99 54.2250
3191.28 35.8033
3192.57 25.8283
3193.85 19.8124
3194.50 17.7550
3195.14 16.3245
3195.78 15.9036
3196.10 16.4754
3196.42 18.1940
3196.75 22.4284
3196.91 26.5025
3197.07 33.0798
3197.23 44.3197
3197.39 64.6093
3197.55 103.889
3197.63 136.533
3197.71 182.874
3197.86 307.087
3198.00 408.678
3198.15 351.780
3198.29 238.451
3198.43 163.372
3198.56 117.807
3198.70 89.7531
3198.84 71.7379
3199.11 50.6494
3199.38 39.3380
3199.66 32.4474
3199.93 27.9044
3200.48 22.3127
3201.02 19.0027
3201.57 16.8039
3202.66 14.0001
3203.76 12.2297
3204.85 10.9679
3207.04 9.21363
3209.22 7.98654
3211.41 7.03305
3215.78 5.53087
3220.15 4.25181
3222.34 3.64476
3224.53 3.08934
3226.71 2.77032
3227.80 2.91121
3228.90 3.62719
3229.44 4.44012
3229.99 5.83446
3230.54 8.26194
3231.08 12.6159
3231.63 20.9160
3231.90 27.8573
3232.18 38.0863
3232.45 53.7052
3232.72 78.1854
3233.00 117.838
3233.27 182.582
3233.64 321.252
3234.00 440.377
3234.37 385.789
3234.73 263.722
3235.09 179.128
3235.44 127.842
3235.79 96.1674
3236.15 75.7550
3236.85 52.0044
3237.56 39.2387
3238.27 31.5005
3238.97 26.4146
3240.38 20.2328
3241.80 16.6695
3243.21 14.3728
3246.04 11.5878
3248.86 9.94675
3251.69 8.84724
3257.34 7.41720
3263.00 6.47093
3268.65 5.75041
3271.47 5.44203
3274.30 5.16734
3275.71 5.05028
3277.13 4.96852
3277.83 4.96693
3278.54 5.06601
3278.89 5.24681
3279.25 5.77893
3279.42 6.49731
3279.51 7.17889
3279.60 8.35277
3279.69 10.6633
3279.73 12.7108
3279.78 16.0121
3279.82 21.8090
3279.86 33.2676
3279.89 43.5672
3279.91 59.9953
3279.93 87.5250
3279.95 136.021
3279.98 213.843
3280.00 267.174
3280.02 213.896
3280.05 136.086
3280.08 79.9651
3280.10 51.5681
3280.13 35.6806
3280.16 26.7598
3280.19 20.9695
3280.21 17.2740
3280.27 12.8257
3280.32 10.3300
3280.38 8.84419
3280.48 7.19374
3280.59 6.35586
3280.70 5.87266
3280.92 5.36421
3281.36 4.97334
3281.79 4.82701
3282.66 4.72704
3283.54 4.72396
3285.28 4.92005
3287.02 5.54537
3288.77 7.20463
3289.64 8.93561
3290.51 11.9896
3291.38 17.7822
3291.82 22.6771
3292.26 29.9977
3292.69 41.3914
3293.13 59.9431
3293.56 91.5154
3294.00 146.260
3294.50 247.296
3295.00 328.351
3295.50 280.160
3296.00 187.334
3296.41 133.171
3296.81 98.0224
3297.22 75.1669
3297.62 59.8167
3298.44 41.3841
3299.25 31.2301
3300.06 25.0207
3300.87 20.9337
3302.49 15.9916
3304.12 13.1775
3305.74 11.3883
3308.99 9.25884
3312.23 8.03106
3315.48 7.22134
3318.73 6.63720
3320.35 6.40724
3321.16 6.33545
3321.57 6.42353
3321.67 6.54605
3321.77 6.87865
3321.82 7.29949
3321.87 8.26489
3321.90 9.35824
3321.92 11.4429
3321.95 16.2358
3321.96 21.3424
3321.97 29.3405
3321.99 43.1825
3322.00 52.4947
3322.01 43.1610
3322.03 29.3112
3322.04 22.3753
3322.05 17.4934
3322.07 12.5045
3322.09 10.0564
3322.11 8.81597
3322.16 7.58711
3322.20 7.04028
3322.29 6.57773
3322.37 6.38863
3322.71 6.15825
3323.40 6.02587
3324.77 5.86032
3327.52 5.58239
3333.01 5.11590
3344.00 4.35977
3354.98 3.69178
3360.48 3.37871
3363.22 3.24507
3364.60 3.21540
3365.28 3.31068
3365.45 3.42508
3365.63 3.73809
3365.71 4.14463
3365.80 5.16009
3365.84 6.35298
3365.88 8.97302
3365.91 11.7000
3365.93 16.4171
3365.95 25.7852
3365.96 34.4307
3365.97 47.1327
3365.98 72.7812
3366.00 91.0660
3366.02 72.7651
3366.03 47.1123
3366.04 35.3886
3366.05 27.7804
3366.07 18.4213
3366.09 13.3511
3366.10 10.3807
3366.14 7.22031
3366.18 5.76313
3366.25 4.45844
3366.32 3.92521
3366.47 3.49189
3366.61 3.32586
3366.90 3.19558
3367.20 3.14398
3368.36 3.08186
3370.68 3.10698
3373.01 3.32303
3375.34 3.94964
3377.66 5.61314
3378.83 7.35806
3379.99 10.4477
3381.15 16.3213
3381.73 21.2918
3382.31 28.7072
3382.90 40.2470
3383.48 58.9393
3384.06 90.6344
3384.64 145.111
3385.32 247.711
3386.00 331.099
3386.68 283.756
3387.36 190.186
3388.01 127.811
3388.66 90.2589
3389.31 67.2419
3389.95 52.4790
3391.25 35.4606
3392.55 26.4095
3393.85 20.9901
3395.14 17.4568
3397.74 13.2118
3400.33 10.7909
3402.92 9.23412
3408.11 7.32527
3413.30 6.13391
3418.49 5.20284
3421.08 4.73518
3422.38 4.47417
3423.68 4.17414
3424.97 3.80640
3425.62 3.58464
3426.27 3.33588
3426.92 3.09043
3427.24 3.01884
3427.57 3.08583
3427.89 3.58597
3428.05 4.27272
3428.21 5.67690
3428.30 6.89598
3428.38 8.73195
3428.46 11.5884
3428.54 16.2255
3428.62 24.1784
3428.70 38.8046
3428.74 50.9465
3428.78 67.9952
3428.82 93.5327
3428.86 129.827
3428.93 223.797
3429.00 302.135
3429.07 261.186
3429.14 176.513
3429.20 125.728
3429.25 93.2388
3429.31 71.9731
3429.36 57.6052
3429.48 40.2246
3429.59 30.5564
3429.70 24.5685
3429.81 20.6423
3430.04 15.8683
3430.26 13.1279
3430.49 11.3916
3430.71 10.1947
3430.93 9.33062
3431.38 8.16234
3431.83 7.41125
3432.73 6.49487
3433.63 5.94470
3434.53 5.56647
3436.32 5.05410
3438.12 4.69602
3439.91 4.41037
3443.51 3.93690
3447.10 3.51390
3450.69 3.11134
3452.49 2.93732
3453.38 2.87675
3454.28 2.86215
3455.18 2.96107
3455.63 3.11178
3456.08 3.42068
3456.53 4.09891
3456.75 4.75733
3456.98 5.88904
3457.20 8.08425
3457.31 10.0237
3457.43 13.1255
3457.54 18.5778
3457.65 29.1337
3457.71 38.4897
3457.76 53.2079
3457.82 77.4227
3457.87 117.905
3457.94 186.724
3458.00 231.947
3458.06 184.855
3458.13 115.572
3458.18 78.6357
3458.23 55.7898
3458.27 41.1968
3458.32 31.5674
3458.42 20.3077
3458.52 14.3442
3458.62 10.8537
3458.72 8.65247
3458.91 6.15978
3459.11 4.87545
3459.30 4.14671
3459.70 3.45085
3460.09 3.23872
3460.48 3.29920
3461.26 4.14012
3461.66 5.05916
3462.05 6.53890
3462.44 8.95390
3462.83 13.0355
3463.23 20.3506
3463.62 34.4382
3463.81 46.4563
3464.01 64.3972
3464.21 91.7421
3464.40 133.468
3464.70 231.297
3465.00 313.218
3465.30 271.282
3465.60 183.419
3465.85 129.508
3466.10 94.8338
3466.36 72.4680
3466.61 57.5746
3467.12 39.6706
3467.62 29.8203
3468.13 23.7776
3468.63 19.7890
3469.64 14.9347
3470.65 12.1483
3471.66 10.3616
3473.69 8.21529
3475.71 6.96217
3477.73 6.12553
3481.77 5.02743
3485.81 4.27382
3489.86 3.66400
3491.88 3.38870
3493.90 3.13844
3494.91 3.03795
3495.92 3.00068
3496.43 3.06455
3496.93 3.35150
3497.19 3.78475
3497.31 4.21175
3497.44 4.96469
3497.57 6.47895
3497.63 7.85554
3497.69 10.1261
3497.75 14.2460
3497.79 17.7437
3497.82 22.8271
3497.85 31.1561
3497.88 44.8271
3497.91 70.6349
3497.94 120.322
3497.97 191.086
3498.00 238.029
3498.03 191.075
3498.06 120.307
3498.08 77.6452
3498.11 53.3395
3498.13 38.1308
3498.16 28.9230
3498.21 18.3795
3498.26 13.1004
3498.31 10.0090
3498.36 8.11887
3498.46 5.96117
3498.56 4.83716
3498.66 4.17709
3498.87 3.46837
3499.27 2.90135
3499.67 2.66978
3500.48 2.46470
3501.29 2.37592
3502.91 2.39085
3504.52 2.79063
3505.33 3.28326
3506.14 4.15301
3506.95 5.69861
3507.76 8.52608
3508.57 14.0254
3508.97 18.7073
3509.38 25.7123
3509.78 36.5600
3510.18 54.0118
3510.59 83.1140
3510.99 132.259
3511.50 231.733
3512.00 316.748
3512.51 276.882
3513.01 188.946
3513.51 127.114
3514.01 90.1064
3514.51 67.5146
3515.01 53.0563
3515.51 43.2697
3516.01 36.3666
3517.00 27.4544
3518.00 22.0778
3519.00 18.5498
3521.00 14.2787
3523.00 11.8222
3524.99 10.2397
3528.99 8.31933
3532.98 7.18298
3536.98 6.41489
3540.97 5.84806
3542.97 5.62656
3543.97 5.58498
3544.22 5.62820
3544.47 5.79267
3544.59 6.03195
3544.72 6.67411
3544.78 7.48604
3544.84 9.37765
3544.87 11.4443
3544.91 15.5652
3544.92 19.4535
3544.94 25.3170
3544.95 35.9552
3544.97 53.8655
3544.98 83.6516
3545.00 102.632
3545.02 83.7721
3545.03 54.0153
3545.04 39.8570
3545.06 30.0097
3545.08 19.5475
3545.10 14.2504
3545.13 11.4941
3545.17 8.71995
3545.22 7.48609
3545.31 6.41478
3545.41 5.97852
3545.59 5.62549
3545.78 5.48081
3546.52 5.27740
3548.01 5.09953
3550.99 4.81972
3556.95 4.29341
3559.92 4.00248
3561.41 3.83421
3562.90 3.63804
3564.39 3.39874
3565.14 3.25908
3565.88 3.11361
3566.62 3.00748
3567.00 3.02664
3567.37 3.20477
3567.74 3.84435
3567.93 4.61164
3568.11 6.10442
3568.30 9.26394
3568.39 12.1944
3568.49 16.9586
3568.58 25.2050
3568.67 40.6829
3568.72 53.8148
3568.76 72.7514
3568.81 101.862
3568.86 144.714
3568.93 245.770
3569.00 324.974
3569.07 275.463
3569.14 183.575
3569.20 127.715
3569.27 92.3897
3569.33 69.9094
3569.39 55.2580
3569.51 37.6209
3569.63 28.1228
3569.75 22.3349
3569.87 18.5842
3570.11 14.0886
3570.36 11.5511
3570.60 9.96449
3570.84 8.88398
3571.08 8.11179
3571.57 7.08207
3572.05 6.43139
3572.54 5.98326
3573.02 5.65494
3573.99 5.20226
3574.96 4.89956
3576.90 4.50481
3578.84 4.24249
3580.78 4.04287
3584.66 3.73293
3592.42 3.24688
3600.18 2.79980
3607.94 2.32453
3611.82 2.06577
3615.70 1.80135
3619.58 1.59161
3621.52 1.58324
3623.46 1.78532
3624.43 2.06500
3625.40 2.58933
3626.37 3.57327
3627.34 5.49255
3627.83 7.12021
3628.31 9.54201
3628.80 13.2774
3629.28 19.3120
3629.77 29.6627
3630.25 48.8309
3630.50 64.7144
3630.74 87.7405
3630.98 122.005
3631.22 172.501
3631.61 293.604
3632.00 390.257
3632.39 331.680
3632.78 220.075
3633.01 168.774
3633.25 131.734
3633.72 85.6911
3634.20 60.4399
3634.67 45.3962
3635.14 35.7559
3635.61 29.2030
3636.56 21.0809
3637.51 16.3608
3638.45 13.3349
3640.34 9.70619
3642.23 7.55974
3644.12 5.98987
3645.07 5.23789
3645.54 4.82897
3646.02 4.37325
3646.49 3.84735
3646.73 3.56226
3646.96 3.30000
3647.20 3.19917
3647.32 3.35947
3647.43 3.91366
3647.55 5.45653
3647.61 7.07387
3647.67 9.88155
3647.73 15.0050
3647.76 19.2225
3647.79 25.0342
3647.82 33.8148
3647.85 46.4947
3647.88 66.4816
3647.91 96.7823
3647.95 170.537
3648.00 237.152
3648.02 234.609
3648.05 209.963
3648.09 145.820
3648.14 99.3318
3648.19 71.2078
3648.23 54.0782
3648.28 43.2765
3648.33 35.7823
3648.37 30.4800
3648.47 23.6774
3648.56 19.5093
3648.65 16.7893
3648.84 13.4520
3649.03 11.5188
3649.22 10.2651
3649.59 8.73556
3649.96 7.82856
3650.34 7.21860
3651.09 6.42741
3651.83 5.91441
3652.58 5.53899
3654.08 4.99769
3657.07 4.28623
3660.06 3.78505
3666.04 3.03121
3672.03 2.40787
3678.01 1.81328
3683.99 1.19788
3686.99 0.879435
3689.98 0.570456
3692.97 0.332107
3693.72 0.308150
3694.47 0.329665
3694.84 0.386482
3695.21 0.553272
3695.40 0.773634
3695.59 1.34673
3695.68 2.06932
3695.77 3.80182
3695.82 5.79710
3695.87 9.90235
3695.89 14.0476
3695.91 20.9133
3695.94 33.6240
3695.96 58.5207
3695.98 93.4017
3696.00 116.814
3696.02 93.3460
3696.04 58.4539
3696.06 36.7731
3696.08 24.3921
3696.10 16.8110
3696.12 12.3940
3696.16 7.42671
3696.19 5.01258
3696.27 2.77237
3696.35 1.82466
3696.50 1.06702
3696.66 0.788173
3696.96 0.610799
3697.27 0.590849
3697.89 0.704982
3698.51 0.941624
3699.12 1.30588
3699.74 1.83699
3700.36 2.60613
3700.97 3.72151
3701.59 5.36673
3702.20 7.83840
3702.82 11.6776
3703.44 17.8634
3704.05 28.3948
3704.67 47.4703
3704.98 62.8641
3705.29 84.7513
3705.59 116.261
3705.90 161.462
3706.45 282.011
3707.00 383.486
3707.55 332.837
3708.10 225.196
3708.70 143.960
3709.31 98.4780
3709.91 72.2683
3710.52 56.2502
3711.73 39.1810
3712.94 31.9807
3714.15 30.8889
3715.36 37.2306
3715.97 45.5799
3716.57 60.9414
3717.18 89.7290
3717.78 144.322
3718.39 236.284
3719.00 309.336
3719.61 263.700
3720.22 177.669
3720.78 122.823
3721.33 89.0268
3721.89 67.9327
3722.44 54.1778
3723.55 38.0019
3724.66 29.1822
3725.77 23.7737
3726.88 20.1714
3729.09 15.7104
3731.31 13.0661
3733.53 11.3149
3735.75 10.0691
3736.86 9.59975
3737.41 9.50143
3737.55 9.57296
3737.69 9.84728
3737.76 10.2370
3737.83 11.2000
3737.87 12.3185
3737.90 14.5789
3737.92 16.8619
3737.93 20.5250
3737.95 27.1107
3737.97 40.1565
3737.98 58.3377
3738.00 71.1957
3738.02 58.3042
3738.03 40.1066
3738.05 28.1337
3738.06 21.6657
3738.09 15.3671
3738.12 12.7607
3738.16 11.4649
3738.22 10.2771
3738.28 9.76191
3738.40 9.31883
3738.53 9.12112
3739.02 8.79028
3740.02 8.42885
3742.00 7.86269
3743.98 7.40021
3744.97 7.23919
3745.47 7.32806
3745.59 7.48450
3745.72 7.92543
3745.78 8.48178
3745.84 9.79073
3745.87 11.2105
3745.90 14.0074
3745.94 20.4686
3745.95 26.7618
3745.97 37.5281
3745.98 56.2020
3746.00 68.0894
3746.02 56.2034
3746.03 37.5250
3746.05 28.4437
3746.06 22.5998
3746.08 16.0021
3746.11 12.6370
3746.13 10.8720
3746.18 9.08730
3746.23 8.28719
3746.33 7.58073
3746.42 7.28981
3746.62 7.03921
3746.81 6.92344
3747.59 6.70215
3749.15 6.41995
3752.26 5.95134
3758.49 5.17606
3764.72 4.49207
3767.84 4.15909
3768.62 4.09003
3769.39 4.06547
3769.78 4.11624
3770.17 4.34236
3770.37 4.68424
3770.56 5.60981
3770.66 6.78930
3770.76 9.57650
3770.81 12.6979
3770.85 18.8722
3770.88 24.8107
3770.90 34.1638
3770.93 50.2521
3770.95 78.6627
3770.98 124.675
3771.00 153.774
3771.03 122.838
3771.05 78.8119
3771.07 53.1228
3771.09 37.4924
3771.11 27.8607
3771.13 21.6771
3771.18 14.6364
3771.22 10.9939
3771.30 7.56651
3771.39 6.06659
3771.55 4.81229
3771.72 4.30631
3772.06 3.88166
3772.39 3.68901
3773.06 3.47163
3773.73 3.31142
3775.07 3.00390
3776.41 2.65223
3777.75 2.22631
3778.43 1.99254
3779.10 1.78910
3779.77 1.78120
3780.10 2.02791
3780.44 2.74710
3780.60 3.47845
3780.77 4.67460
3780.94 6.70618
3781.11 10.2618
3781.27 16.9700
3781.36 22.5526
3781.44 30.6350
3781.53 43.0066
3781.61 62.4102
3781.69 93.7819
3781.78 144.138
3781.89 251.888
3782.00 343.546
3782.11 299.465
3782.22 203.607
3782.34 135.596
3782.45 95.5721
3782.56 71.1556
3782.67 55.7282
3782.79 45.2589
3782.90 37.9521
3783.12 28.5140
3783.35 22.8566
3783.57 19.1618
3784.02 14.7167
3784.47 12.1874
3784.92 10.5758
3785.37 9.46609
3785.82 8.65783
3786.72 7.56051
3787.62 6.84861
3789.42 5.97051
3791.22 5.43740
3793.02 5.06865
3796.62 4.56876
3803.82 3.95286
3811.02 3.52308
3818.22 3.15936
3825.42 2.80806
3829.02 2.61971
3830.82 2.51753
3832.62 2.40786
3834.42 2.29320
3836.22 2.21011
3837.12 2.25649
3837.57 2.36628
3838.02 2.63340
3838.47 3.30770
3838.70 4.01661
3838.92 5.30155
3839.15 7.86583
3839.26 10.1714
3839.37 13.7956
3839.49 19.9737
3839.60 31.1727
3839.66 40.3487
3839.71 53.6361
3839.77 73.2326
3839.82 102.091
3839.91 169.763
3840.00 220.318
3840.09 183.428
3840.18 120.131
3840.27 77.3837
3840.35 53.0385
3840.44 38.4947
3840.53 29.5116
3840.62 23.5109
3840.71 19.4026
3840.89 14.2037
3841.06 11.1733
3841.24 9.24306
3841.59 6.99171
3841.95 5.75782
3842.30 4.99539
3842.66 4.48348
3843.01 4.11904
3843.72 3.63343
3844.42 3.32480
3845.84 2.94634
3847.25 2.71218
3848.67 2.54327
3851.50 2.29313
3857.16 1.91259
3862.82 1.55567
3868.48 1.15596
3871.31 0.925089
3874.14 0.671869
3876.97 0.429136
3878.39 0.362560
3879.10 0.372107
3879.80 0.438740
3880.51 0.606221
3881.22 0.957333
3881.57 1.24976
3881.93 1.66437
3882.28 2.25657
3882.63 3.11090
3882.99 4.37501
3883.34 6.29194
3883.69 9.30469
3884.05 14.2501
3884.40 22.9369
3884.76 39.4495
3884.93 53.4124
3885.11 74.1397
3885.29 105.560
3885.46 152.899
3885.73 262.754
3886.00 351.920
3886.27 300.885
3886.54 200.546
3886.75 143.604
3886.96 106.074
3887.17 81.2192
3887.38 64.2862
3887.79 43.6564
3888.21 32.1234
3888.63 25.0200
3889.05 20.3130
3889.88 14.5986
3890.72 11.3342
3891.56 9.25192
3893.23 6.75487
3894.90 5.26072
3896.57 4.13678
3897.41 3.58008
3897.83 3.27147
3898.24 2.92340
3898.66 2.52313
3898.87 2.31181
3899.08 2.13039
3899.29 2.11267
3899.39 2.30528
3899.50 2.85900
3899.60 4.32319
3899.65 5.80674
3899.71 8.33941
3899.76 13.0055
3899.79 16.6786
3899.81 21.8723
3899.84 29.3828
3899.86 40.4894
3899.89 57.2018
3899.92 83.0562
3899.96 147.206
3900.00 203.027
3900.02 201.001
3900.04 179.819
3900.08 123.924
3900.12 91.4737
3900.15 69.2759
3900.18 54.3926
3900.22 44.1474
3900.28 31.5022
3900.35 24.3154
3900.41 19.8231
3900.48 16.8067
3900.61 13.0839
3900.74 10.9164
3900.88 9.51511
3901.14 7.82495
3901.40 6.84501
3901.67 6.20294
3902.20 5.40332
3902.72 4.91111
3903.25 4.56898
3904.31 4.10460
3905.36 3.78845
3906.42 3.54922
3908.53 3.19489
3910.64 2.93309
3912.75 2.72665
3914.86 2.56965
3915.91 2.56248
3916.18 2.61478
3916.44 2.78987
3916.57 3.03539
3916.70 3.68682
3916.77 4.49861
3916.84 6.42281
3916.87 8.54379
3916.90 12.8216
3916.92 16.8966
3916.93 23.1363
3916.95 33.6907
3916.97 52.0961
3916.98 81.8517
3917.00 101.863
3917.02 81.8750
3917.03 52.1237
3917.05 31.2687
3917.07 20.0351
3917.09 14.0558
3917.11 10.6014
3917.15 7.04041
3917.19 5.39003
3917.27 3.89848
3917.35 3.29065
3917.51 2.79796
3917.67 2.60453
3917.99 2.44632
3918.31 2.37609
3919.58 2.24972
3922.12 2.09788
3927.20 1.85697
3937.38 1.47049
3942.46 1.28804
3945.00 1.18810
3947.55 1.07470
3950.09 0.943714
3951.36 0.877984
3952.63 0.835671
3953.90 0.902408
3954.54 1.06934
3955.17 1.48905
3955.49 1.90150
3955.81 2.58001
3956.13 3.74310
3956.45 5.85255
3956.60 7.57237
3956.76 10.0609
3956.92 13.7915
3957.08 19.6354
3957.24 29.3042
3957.40 46.4112
3957.56 79.0450
3957.64 105.935
3957.72 143.883
3957.86 243.347
3958.00 321.632
3958.14 272.333
3958.28 180.157
3958.39 131.374
3958.49 98.2713
3958.59 75.8970
3958.70 60.4197
3958.90 41.2965
3959.11 30.4896
3959.31 23.8071
3959.52 19.3798
3959.93 14.0404
3960.34 11.0202
3960.75 9.13474
3961.58 6.96262
3962.40 5.78948
3963.22 5.07800
3964.87 4.29765
3966.52 3.91935
3968.16 3.73494
3971.45 3.66857
3978.04 4.20586
3984.62 5.51051
3991.21 7.91479
3997.79 12.2937
4004.38 20.7668
4007.67 28.1330
4009.31 33.2537
4010.14 36.4352
4010.34 37.3925
4010.55 38.5930
4010.65 39.4701
4010.75 40.9947
4010.81 42.4870
4010.86 45.3809
4010.88 48.1806
4010.91 52.8171
4010.93 61.9894
4010.95 69.7521
4010.96 79.8925
4010.98 104.697
4011.00 120.208
4011.02 103.601
4011.04 80.2293
4011.06 66.3145
4011.08 58.3480
4011.11 50.0533
4011.15 46.4486
4011.18 44.6640
4011.25 43.1651
4011.32 42.7035
4011.46 42.7288
4011.60 43.1714
4011.88 44.4285
4012.16 45.8882
4013.28 52.8747
4015.52 73.9776
4016.64 91.1032
4017.76 117.414
4018.88 162.083
4020.00 244.661
4021.00 367.048
4022.00 469.479
4022.84 444.210
4024.00 343.355
4025.13 285.080
4026.25 263.177
4027.38 260.688
4028.50 267.876
4033.00 303.086
4038.08 251.874
4043.16 166.170
4046.56 123.654
4048.26 107.281
4049.11 100.236
4049.32 98.6745
4049.53 97.3957
4049.64 97.0627
4049.74 97.4381
4049.80 98.3949
4049.85 100.886
4049.88 103.569
4049.90 108.213
4049.93 117.581
4049.94 125.196
4049.96 136.584
4049.98 161.971
4050.00 179.515
4050.02 161.736
4050.04 136.055
4050.07 117.156
4050.09 107.656
4050.12 102.429
4050.14 99.2933
4050.20 95.7992
4050.25 93.9844
4050.35 91.9641
4050.45 90.7230
4050.65 88.8901
4050.85 87.3490
4051.65 81.9310
4053.26 72.5711
4056.48 58.1314
4058.09 53.3983
4058.90 52.1912
4059.70 52.5056
4060.51 55.8412
4061.31 66.0417
4061.72 76.6260
4062.12 94.2813
4062.52 124.324
4062.92 175.139
4063.46 288.660
4064.00 394.341
4064.54 359.670
4065.08 262.574
4065.45 209.078
4065.82 170.700
4066.57 123.613
4067.32 97.6595
4068.06 81.8357
4068.81 71.2810
4069.56 63.7639
4071.05 53.6714
4072.54 47.0701
4074.03 42.3011
4077.02 35.6389
4080.01 31.0097
4082.99 27.4925
4085.98 24.6785
4086.72 24.0658
4087.47 23.5080
4087.84 23.2757
4088.22 23.1519
4088.40 23.2267
4088.59 23.6539
4088.68 24.3083
4088.78 25.9918
4088.82 27.9916
4088.87 32.1817
4088.89 36.4719
4088.92 43.6700
4088.94 57.2383
4088.95 69.0594
4088.96 85.5076
4088.98 123.703
4089.00 148.629
4089.02 123.712
4089.04 85.4984
4089.06 58.8735
4089.08 45.3507
4089.10 37.5833
4089.12 33.2161
4089.17 28.4845
4089.21 26.2404
4089.29 24.1770
4089.38 23.2822
4089.55 22.4906
4089.72 22.1164
4090.06 21.6858
4090.40 21.3815
4091.77 20.4120
4094.49 18.7408
4099.95 15.8205
4102.68 14.4389
4105.41 12.9657
4106.77 12.1020
4107.45 11.5991
4108.13 11.0182
4108.82 10.3281
4109.16 9.94143
4109.50 9.56018
4109.84 9.32778
4110.01 9.42610
4110.18 9.93772
4110.35 11.5148
4110.44 13.2089
4110.52 16.1804
4110.61 21.6272
4110.69 32.2740
4110.73 41.4903
4110.78 54.8533
4110.82 75.5121
4110.86 105.942
4110.93 185.268
4111.00 257.362
4111.07 230.879
4111.14 162.812
4111.19 126.479
4111.24 100.573
4111.28 82.3111
4111.33 69.4564
4111.43 52.5067
4111.52 42.5586
4111.62 36.0913
4111.71 31.7067
4111.90 26.1725
4112.09 22.8636
4112.28 20.7022
4112.67 18.0386
4113.05 16.4529
4113.43 15.3905
4114.19 14.0093
4114.95 13.1008
4115.72 12.4195
4117.24 11.3788
4120.29 9.78080
4123.34 8.33319
4126.39 6.78662
4127.91 5.91455
4129.44 4.94809
4130.96 3.91342
4131.73 3.44621
4132.49 3.18785
4133.25 3.63280
4133.63 4.56626
4134.01 6.63489
4134.20 8.46307
4134.39 11.1787
4134.58 15.3273
4134.77 21.7528
4134.97 32.1331
4135.16 49.3471
4135.35 79.2727
4135.54 131.489
4135.77 238.733
4136.00 337.390
4136.23 303.633
4136.46 212.449
4136.71 141.746
4136.96 100.466
4137.21 75.6492
4137.46 59.9406
4137.71 49.3158
4137.96 41.8266
4138.46 32.0886
4138.96 26.1233
4139.46 22.1562
4140.45 17.3199
4141.45 14.9354
4141.95 14.6386
4142.45 15.3309
4142.95 17.9801
4143.44 25.2999
4143.69 32.9945
4143.94 46.3107
4144.19 70.3241
4144.44 114.395
4144.72 199.118
4145.00 275.570
4145.28 247.286
4145.56 174.677
4145.77 132.068
4145.99 102.786
4146.20 82.8122
4146.41 68.9123
4146.84 51.3809
4147.26 41.1844
4147.69 34.6759
4148.11 30.2163
4148.96 24.5519
4149.81 21.1120
4150.66 18.7961
4152.36 15.8285
4154.06 13.9556
4155.76 12.6258
4159.16 10.7771
4165.96 8.44872
4172.76 6.83940
4179.57 5.58869
4186.37 4.74205
4189.77 4.62573
4193.17 4.96729
4196.57 6.27629
4198.27 7.64847
4199.12 8.67869
4199.54 9.48857
4199.65 9.86778
4199.76 10.5922
4199.81 11.3584
4199.86 13.0167
4199.89 14.7845
4199.92 18.0504
4199.94 25.7135
4199.96 33.0987
4199.97 46.3715
4199.99 68.4207
4200.00 83.0113
4200.02 68.4892
4200.03 46.4947
4200.05 30.6003
4200.07 22.9017
4200.08 18.5192
4200.10 16.1233
4200.14 13.5708
4200.17 12.3904
4200.24 11.4217
4200.31 11.0993
4200.45 10.9959
4200.59 11.1257
4201.15 12.1682
4202.26 15.1761
4204.49 25.5780
4205.61 34.4877
4206.73 47.7021
4207.84 67.6853
4208.40 81.6392
4208.54 85.9364
4208.68 91.1079
4208.75 94.6198
4208.82 100.021
4208.85 104.577
4208.89 112.368
4208.91 119.007
4208.92 128.443
4208.94 143.157
4208.96 167.550
4208.98 209.564
4209.00 238.912
4209.02 211.045
4209.04 170.405
4209.07 140.740
4209.09 126.037
4209.12 118.685
4209.14 114.830
4209.19 111.737
4209.24 111.238
4209.30 111.962
4209.36 113.356
4209.48 117.019
4209.71 125.906
4210.18 146.610
4211.12 195.390
4213.00 277.328
4214.88 250.650
4216.76 175.970
4218.60 121.700
4220.45 88.1204
4222.29 67.0773
4224.13 53.2154
4227.82 36.4941
4231.51 26.7103
4235.19 19.7961
4237.04 16.7555
4238.88 13.7146
4240.72 10.4659
4241.65 8.72631
4242.57 6.98077
4243.49 5.56838
4243.95 5.34337
4244.41 5.98284
4244.64 6.92712
4244.87 8.57841
4245.10 11.3461
4245.33 15.8505
4245.56 23.2164
4245.79 35.2129
4246.02 54.9349
4246.25 87.1684
4246.44 126.547
4246.63 178.765
4247.00 281.434
4247.19 295.480
4247.37 278.908
4247.75 212.433
4248.09 160.521
4248.43 125.369
4248.78 101.916
4249.12 85.7705
4249.81 65.6462
4250.49 53.9202
4251.18 46.3545
4251.86 41.0964
4253.23 34.2761
4254.61 30.0148
4255.98 27.0729
4258.72 23.1979
4261.46 20.6882
4264.21 18.8808
4269.69 16.3586
4280.67 13.2553
4291.64 11.1947
4302.61 9.52879
4308.10 8.74931
4313.59 7.98551
4319.07 7.29253
4321.82 7.06380
4324.56 7.09826
4327.30 7.89014
4328.67 9.00940
4330.04 11.2558
4331.42 15.9581
4332.10 20.1732
4332.79 26.7195
4333.47 37.3362
4334.16 55.3786
4334.85 87.5982
4335.53 146.434
4336.27 251.602
4337.00 339.348
4337.74 293.656
4338.47 197.989
4339.32 122.206
4340.17 78.6877
4340.60 63.0692
4341.02 48.9461
4341.23 41.8686
4341.34 38.3484
4341.45 35.0375
4341.55 32.5705
4341.66 33.2195
4341.71 36.7400
4341.77 45.2950
4341.82 64.1168
4341.85 80.7584
4341.87 103.942
4341.90 145.983
4341.94 202.566
4342.00 323.024
4342.03 346.316
4342.06 335.608
4342.13 269.702
4342.18 217.321
4342.24 179.595
4342.30 152.673
4342.35 133.757
4342.46 108.870
4342.57 93.6270
4342.68 83.3639
4342.79 75.9498
4343.02 65.8598
4343.24 59.1031
4343.46 54.1621
4343.90 47.2125
4344.35 42.3655
4344.79 38.7096
4345.68 33.4191
4347.45 26.9156
4349.22 22.9971
4350.99 20.3614
4352.77 18.4626
4356.31 15.8979
4359.86 14.2282
4363.41 13.0350
4370.50 11.3843
4377.59 10.2070
4384.68 9.18988
4388.23 8.64919
4390.00 8.33951
4391.77 7.97437
4393.55 7.50317
4394.43 7.19471
4395.32 6.80198
4396.21 6.27103
4396.65 5.92938
4397.09 5.52681
4397.54 5.09913
4397.76 4.94191
4397.98 4.96539
4398.20 5.56291
4398.31 6.42970
4398.42 8.17082
4398.53 11.8504
4398.59 15.1706
4398.64 20.1974
4398.70 28.3622
4398.75 41.6457
4398.81 64.3830
4398.86 104.728
4398.93 185.809
4399.00 260.798
4399.07 233.712
4399.14 164.364
4399.18 130.711
4399.22 106.094
4399.30 74.3234
4399.38 56.1007
4399.46 44.8582
4399.54 37.4460
4399.62 32.2861
4399.78 25.7049
4399.94 21.7466
4400.10 19.1697
4400.42 16.0358
4400.74 14.2151
4401.06 13.0364
4401.70 11.5927
4402.34 10.7302
4402.98 10.1462
4404.26 9.37232
4405.54 8.84499
4406.82 8.42829
4409.39 7.71461
4411.95 6.98571
4413.23 6.56461
4414.51 6.07816
4415.79 5.52510
4416.43 5.25632
4417.07 5.08339
4417.71 5.28088
4418.03 5.77714
4418.35 6.93297
4418.67 9.58520
4418.83 12.0594
4418.99 15.9925
4419.15 22.4611
4419.31 33.5465
4419.47 53.3632
4419.63 89.4968
4419.82 160.438
4420.00 226.327
4420.18 205.154
4420.37 145.404
4420.52 107.594
4420.67 82.4614
4420.82 65.7106
4420.97 54.2205
4421.27 40.0579
4421.57 31.9925
4421.87 26.9148
4422.17 23.4998
4422.77 19.2489
4423.37 16.7413
4423.97 15.1056
4425.17 13.1048
4426.37 11.9236
4427.57 11.1403
4428.17 10.8397
4428.77 10.5899
4429.37 10.4299
4429.67 10.5773
4429.75 10.7852
4429.82 11.3350
4429.86 12.0021
4429.90 13.4221
4429.93 17.5026
4429.95 22.7474
4429.97 33.8343
4429.99 48.2293
4430.00 57.5596
4430.01 48.2062
4430.03 33.7985
4430.04 24.4161
4430.06 19.2021
4430.09 14.6179
4430.12 12.7385
4430.15 11.8076
4430.20 10.9467
4430.26 10.5814
4430.50 10.1206
4430.96 9.87572
4431.90 9.60870
4433.76 9.20826
4437.50 8.61578
4441.23 8.16228
4443.10 7.97539
4444.04 7.93939
4444.50 8.12094
4444.62 8.33015
4444.74 8.88285
4444.79 9.58246
4444.85 11.2006
4444.88 12.9554
4444.91 16.4235
4444.94 24.5107
4444.95 33.2231
4444.97 48.1892
4444.98 71.8292
4445.00 88.7335
4445.02 71.8839
4445.03 48.2544
4445.05 31.1252
4445.07 22.5553
4445.08 17.5798
4445.10 14.8146
4445.14 11.8042
4445.17 10.3595
4445.24 9.07621
4445.31 8.53979
4445.45 8.10277
4445.59 7.92788
4446.15 7.70397
4447.27 7.54655
4449.50 7.30887
4451.73 7.07143
4453.97 6.81387
4456.20 6.51266
4457.32 6.33187
4458.43 6.11592
4459.55 5.84046
4460.11 5.66704
4460.67 5.45987
4461.23 5.21569
4461.78 5.00430
4462.06 5.07466
4462.20 5.29452
4462.34 5.84082
4462.48 7.20739
4462.55 8.59105
4462.62 10.9262
4462.69 15.2404
4462.76 23.8211
4462.80 31.3454
4462.83 42.8543
4462.87 60.9041
4462.90 88.4101
4462.95 150.911
4463.00 203.784
4463.05 177.582
4463.10 121.632
4463.16 78.3120
4463.21 54.3895
4463.27 40.7025
4463.33 32.2991
4463.39 26.7932
4463.44 22.9864
4463.56 18.2109
4463.67 15.3607
4463.78 13.5288
4464.01 11.3213
4464.24 10.0631
4464.46 9.25541
4464.92 8.27683
4465.37 7.69482
4465.83 7.29897
4466.73 6.76316
4467.64 6.38033
4468.55 6.06080
4470.37 5.47266
4471.28 5.17088
4472.19 4.85420
4473.09 4.52787
4474.00 4.23536
4474.91 4.15807
4475.37 4.39427
4475.82 5.14190
4476.27 7.17501
4476.50 9.28292
4476.73 12.9236
4476.96 19.5360
4477.18 32.4128
4477.30 43.4676
4477.41 59.7733
4477.52 84.6953
4477.64 122.102
4477.82 215.786
4478.00 298.902
4478.18 265.544
4478.36 184.332
4478.53 129.885
4478.70 95.5226
4478.86 73.7285
4479.03 59.3330
4479.36 42.2524
4479.69 32.8761
4480.02 27.1303
4480.36 23.3176
4481.02 18.6552
4481.68 15.9570
4482.35 14.2161
4483.01 13.0051
4483.68 12.1153
4485.00 10.8940
4486.33 10.0906
4488.99 9.08085
4491.64 8.45045
4494.30 8.00003
4499.61 7.34944
4504.92 6.83169
4507.58 6.57787
4510.24 6.30137
4512.89 5.96514
4514.22 5.75097
4515.55 5.47893
4516.88 5.10477
4517.54 4.85393
4518.20 4.53888
4518.87 4.14720
4519.20 3.93650
4519.53 3.76886
4519.86 3.82761
4520.03 4.12894
4520.20 4.91981
4520.36 6.90407
4520.45 8.89382
4520.53 12.2574
4520.61 18.2348
4520.69 29.5887
4520.74 39.2189
4520.78 52.9559
4520.82 73.2385
4520.86 103.659
4520.93 183.003
4521.00 252.742
4521.07 224.436
4521.14 155.545
4521.22 103.296
4521.29 72.9279
4521.37 54.9769
4521.44 43.8147
4521.52 36.2558
4521.59 31.0213
4521.75 24.2526
4521.90 20.1689
4522.05 17.5142
4522.35 14.3003
4522.65 12.4504
4522.96 11.2667
4523.26 10.4434
4523.56 9.84219
4524.17 9.01856
4524.77 8.47988
4525.38 8.09750
4525.98 7.80969
4527.19 7.39887
4528.40 7.11223
4530.82 6.71808
4533.24 6.43828
4535.66 6.21180
4540.50 5.82489
4545.34 5.44873
4547.76 5.23971
4550.18 4.99546
4552.60 4.68104
4553.81 4.47468
4555.02 4.20979
4556.23 3.84648
4556.84 3.60711
4557.44 3.31598
4558.05 2.98260
4558.35 2.83368
4558.65 2.78112
4558.95 3.07815
4559.10 3.59847
4559.26 4.74493
4559.33 5.78113
4559.41 7.36950
4559.48 9.87167
4559.56 13.8938
4559.63 20.8645
4559.71 33.3537
4559.75 43.5365
4559.79 57.9949
4559.82 78.7531
4559.86 107.880
4559.93 189.481
4560.00 261.201
4560.07 229.989
4560.14 158.416
4560.22 102.542
4560.30 70.9235
4560.38 52.6480
4560.46 41.3401
4560.53 33.8847
4560.61 28.7031
4560.77 22.1198
4560.93 18.2062
4561.09 15.6581
4561.40 12.5999
4561.72 10.8469
4562.03 9.72739
4562.35 8.94957
4562.66 8.38150
4563.30 7.60238
4563.93 7.09100
4565.19 6.44924
4566.45 6.04885
4567.71 5.76289
4570.24 5.35275
4575.29 4.76933
4580.33 4.25073
4585.38 3.67324
4587.91 3.33002
4590.43 2.92891
4592.95 2.45800
4594.22 2.20711
4595.48 1.98786
4596.74 1.94529
4597.37 2.13876
4598.00 2.72239
4598.32 3.31246
4598.63 4.27025
4598.95 5.86748
4599.26 8.61232
4599.58 13.6280
4599.74 17.6873
4599.90 23.4584
4600.05 31.9862
4600.21 44.8590
4600.37 64.7170
4600.53 95.1693
4600.76 166.573
4601.00 227.643
4601.24 198.776
4601.47 135.356
4601.63 103.424
4601.79 80.5752
4602.10 52.8203
4602.41 37.8112
4602.72 28.9072
4603.03 23.1753
4603.34 19.2712
4603.96 14.3670
4604.59 11.4569
4605.21 9.55714
4606.45 7.29308
4607.70 6.31851
4608.32 6.40808
4608.94 7.25284
4609.57 9.75397
4609.88 12.3146
4610.19 16.6183
4610.50 24.1379
4610.81 38.0284
4610.97 49.3762
4611.12 65.4656
4611.28 88.8337
4611.43 122.201
4611.72 214.908
4612.00 296.071
4612.28 261.737
4612.57 181.048
4612.76 137.883
4612.96 107.405
4613.16 86.0964
4613.35 70.9967
4613.75 51.5953
4614.14 40.2240
4614.54 32.9415
4614.93 27.9901
4615.72 21.7789
4616.50 18.1091
4617.29 15.7113
4618.86 12.7854
4620.44 11.0671
4622.01 9.92973
4625.16 8.49495
4628.31 7.60118
4631.46 6.96893
4637.75 6.08161
4644.05 5.42523
4650.34 4.85081
4653.49 4.56003
4656.64 4.23277
4658.21 4.03044
4659.00 3.90711
4659.79 3.75624
4660.57 3.55579
4661.36 3.25500
4661.75 3.03458
4662.15 2.76258
4662.34 2.66671
4662.54 2.87876
4662.64 3.49404
4662.74 5.43381
4662.79 7.83271
4662.83 12.8173
4662.86 17.4393
4662.88 24.3861
4662.91 36.0540
4662.93 54.6879
4662.95 72.7296
4662.97 95.5336
4663.00 132.355
4663.02 131.100
4663.03 117.242
4663.07 81.7017
4663.09 61.1473
4663.12 46.8559
4663.15 37.2133
4663.17 30.5441
4663.22 22.2739
4663.27 17.6242
4663.33 14.6419
4663.38 12.6712
4663.48 10.2039
4663.58 8.76581
4663.69 7.83708
4663.89 6.72131
4664.10 6.07750
4664.31 5.66259
4664.72 5.15389
4665.13 4.84841
4665.54 4.64081
4666.37 4.36500
4668.02 4.03776
4669.67 3.82157
4672.97 3.52350
4676.26 3.39144
4679.56 3.65158
4681.21 4.16544
4682.86 5.30465
4684.51 7.87187
4685.34 10.2901
4686.16 14.1967
4686.99 20.8292
4687.81 32.7678
4688.64 55.7497
4689.05 74.8428
4689.46 101.871
4690.23 177.371
4691.00 242.105
4691.77 212.113
4692.54 145.316
4693.14 106.464
4693.74 80.3706
4694.34 62.9152
4694.94 50.9372
4696.14 36.1557
4697.34 27.7804
4698.54 22.5480
4699.74 19.0390
4702.14 14.7010
4704.53 12.1583
4706.93 10.4947
4711.73 8.42740
4716.53 7.13761
4721.33 6.17122
4723.72 5.72727
4726.12 5.25209
4727.32 4.96887
4727.92 4.80124
4728.52 4.60407
4729.12 4.36067
4729.72 4.06217
4730.02 3.93058
4730.32 4.02812
4730.47 4.48796
4730.55 5.05090
4730.62 6.13358
4730.70 8.34850
4730.73 10.3507
4730.77 13.3766
4730.81 18.4168
4730.85 26.7751
4730.88 41.6571
4730.92 68.9406
4730.96 118.092
4731.00 160.030
4731.04 139.885
4731.08 96.0672
4731.12 68.2539
4731.15 50.9706
4731.18 39.7992
4731.22 32.3179
4731.29 23.3354
4731.35 18.3639
4731.42 15.2744
4731.49 13.2604
4731.63 10.8026
4731.76 9.37880
4731.90 8.47246
4732.17 7.38427
4732.44 6.75221
4732.72 6.33677
4733.26 5.81197
4733.81 5.47745
4734.35 5.23296
4735.44 4.86864
4737.62 4.31852
4739.81 3.81495
4741.99 3.28280
4743.08 3.00938
4744.17 2.77398
4745.26 2.73278
4745.80 2.94637
4746.35 3.58228
4746.62 4.22031
4746.89 5.25228
4747.17 6.95077
4747.44 9.82232
4747.71 14.9472
4747.98 24.6150
4748.12 32.7247
4748.26 44.4430
4748.39 61.7134
4748.53 87.1040
4748.77 154.922
4749.00 215.170
4749.24 191.482
4749.47 133.168
4749.73 88.4292
4749.98 62.4596
4750.23 47.0388
4750.49 37.3106
4750.74 30.8039
4751.00 26.2311
4751.50 20.3581
4752.01 16.8105
4752.52 14.4751
4753.53 11.6284
4754.55 9.97004
4755.56 8.88815
4757.59 7.55050
4759.63 6.73869
4761.66 6.17815
4765.72 5.41720
4769.78 4.88657
4773.84 4.46615
4777.90 4.10874
4779.93 3.96166
4780.95 3.96005
4781.45 4.21370
4781.58 4.48264
4781.71 5.18332
4781.77 6.04648
4781.84 7.99546
4781.87 10.0944
4781.90 13.9755
4781.93 22.8142
4781.95 31.4616
4781.96 45.4203
4781.98 70.4515
4782.00 87.0189
4782.02 70.4848
4782.04 45.4599
4782.05 32.9091
4782.07 25.1078
4782.09 16.2187
4782.12 11.7715
4782.14 9.29920
4782.20 6.80061
4782.25 5.68091
4782.35 4.70779
4782.46 4.31120
4782.67 3.99085
4782.88 3.86026
4783.72 3.67888
4785.40 3.52049
4788.76 3.26268
4795.47 2.77029
4802.19 2.27910
4808.91 1.78832
4815.63 1.34010
4822.35 1.13387
4825.71 1.35479
4827.39 1.67425
4829.06 2.26815
4830.74 3.38671
4831.58 4.31909
4832.42 5.72527
4833.26 8.05834
4833.68 9.91259
4834.10 12.6861
4834.52 17.3070
4834.73 20.9972
4834.94 26.4844
4835.15 35.3608
4835.36 51.5169
4835.47 65.2246
4835.57 86.2085
4835.68 119.885
4835.78 173.828
4835.89 251.159
4836.00 282.064
4836.11 201.695
4836.22 112.335
4836.28 81.1560
4836.33 59.6701
4836.39 44.6266
4836.45 34.0001
4836.56 20.8575
4836.68 13.7394
4836.79 9.68336
4836.90 7.35635
4837.02 6.00700
4837.13 5.25473
4837.36 4.76420
4837.59 4.99946
4838.05 6.45000
4838.96 11.2187
4839.87 18.2493
4840.79 28.7773
4841.70 45.2613
4842.62 72.0500
4843.53 116.123
4844.77 213.074
4846.00 301.180
4847.24 269.619
4848.47 187.016
4849.88 120.648
4851.28 83.0981
4852.68 61.2014
4854.09 47.5679
4855.49 38.5176
4856.90 32.1988
4859.71 24.1237
4862.51 19.3081
4865.32 16.2023
4870.94 12.7322
4876.56 11.6549
4879.37 12.1215
4882.18 13.7302
4884.98 17.5001
4887.79 26.0523
4889.20 34.0984
4890.60 47.0132
4892.01 68.3737
4893.41 103.976
4895.21 176.901
4897.00 238.270
4898.80 207.282
4900.59 141.663
4902.68 89.9432
4904.78 61.6859
4906.87 45.6063
4907.92 40.1833
4908.18 39.0713
4908.44 38.1627
4908.57 37.9034
4908.70 38.1020
4908.77 38.7386
4908.83 40.5381
4908.87 42.6597
4908.90 46.7947
4908.92 50.7696
4908.93 56.7388
4908.95 66.5463
4908.96 83.4153
4908.98 112.571
4909.00 131.196
4909.02 112.487
4909.04 83.2058
4909.05 69.5917
4909.06 60.6180
4909.09 50.1800
4909.11 44.6672
4909.13 41.6889
4909.18 38.5520
4909.23 37.0435
4909.33 35.5333
4909.43 34.7231
4909.62 33.6946
4909.81 32.9211
4910.20 31.6155
4910.59 30.4583
4912.14 26.6174
4915.25 21.2522
4918.35 17.6704
4921.46 15.0840
4924.57 13.0716
4927.67 11.3409
4929.22 10.4684
4930.00 9.98990
4930.78 9.44800
4931.55 8.78358
4931.94 8.37314
4932.33 7.88173
4932.72 7.28952
4933.11 6.68056
4933.30 6.61035
4933.40 6.83450
4933.49 7.50844
4933.59 9.21449
4933.69 13.5448
4933.74 18.0365
4933.79 25.5790
4933.83 39.2643
4933.88 64.0211
4933.94 115.109
4934.00 165.906
4934.03 167.799
4934.06 153.545
4934.12 111.819
4934.18 78.1451
4934.24 58.2266
4934.30 46.0593
4934.37 38.2099
4934.43 32.7911
4934.49 28.9942
4934.62 24.0155
4934.74 20.9277
4934.86 18.8766
4935.11 16.3112
4935.36 14.7828
4935.61 13.7652
4936.11 12.4799
4936.61 11.6775
4937.10 11.1116
4938.10 10.3281
4940.09 9.33469
4942.08 8.63623
4946.06 7.56675
4950.04 6.69224
4958.01 5.19516
4961.99 4.52343
4963.98 4.21556
4964.97 4.10248
4965.47 4.17526
4965.72 4.64976
4965.78 5.09650
4965.85 6.16719
4965.88 7.35619
4965.91 9.77378
4965.94 15.6999
4965.95 22.4417
4965.97 34.8208
4965.99 53.4434
4966.00 65.7507
4966.02 53.4359
4966.03 34.8082
4966.04 24.8695
4966.05 18.9658
4966.08 12.4613
4966.10 9.21130
4966.12 7.53846
4966.17 5.86399
4966.21 5.11118
4966.30 4.47016
4966.39 4.20740
4966.75 3.89032
4967.47 3.71904
4968.91 3.51919
4971.79 3.24708
4974.66 3.21473
4977.54 3.70503
4978.98 4.34109
4980.42 5.45193
4981.86 7.35135
4983.30 10.6140
4984.73 16.3665
4986.17 26.9172
4987.61 47.2243
4988.33 63.9382
4989.05 87.3899
4990.53 161.349
4992.00 231.586
4993.48 211.326
4994.95 149.635
4996.08 112.607
4997.20 86.9002
4998.33 69.2220
4999.46 56.7869
5001.71 40.9889
5002.84 35.8439
5003.12 34.8067
5003.40 33.9848
5003.54 33.7874
5003.68 34.1003
5003.75 34.8633
5003.82 36.9642
5003.86 39.3965
5003.89 44.3594
5003.91 49.0677
5003.93 56.2486
5003.95 69.1945
5003.96 90.3763
5003.98 126.641
5004.00 149.141
5004.02 124.564
5004.04 90.2328
5004.05 74.0865
5004.06 62.9630
5004.09 49.9744
5004.11 43.3048
5004.13 39.6412
5004.18 35.6814
5004.23 33.8048
5004.32 31.9936
5004.42 31.0870
5004.61 30.0357
5004.80 29.3089
5005.18 28.1328
5005.55 27.1094
5007.07 23.7118
5008.59 21.0684
5010.11 19.0735
5011.62 17.9655
5012.38 18.0532
5013.14 19.0648
5013.90 22.0565
5014.66 29.9383
5015.04 38.1239
5015.41 52.3652
5015.79 78.2256
5016.17 126.189
5016.59 215.806
5017.00 295.796
5017.41 264.020
5017.83 186.094
5018.25 128.710
5018.68 94.5399
5019.10 73.7205
5019.53 60.3764
5019.95 51.2934
5020.38 44.8388
5021.22 36.3814
5022.07 31.1474
5022.92 27.6146
5024.62 23.1295
5026.32 20.3653
5028.01 18.4571
5031.41 15.9170
5034.80 14.2353
5038.20 12.9959
5044.98 11.2123
5051.77 9.92034
5058.56 8.88706
5072.14 7.19619
5085.72 5.66258
5092.51 4.86149
5099.29 3.98719
5106.08 3.00573
5109.48 2.48462
5112.87 2.00319
5116.27 1.78032
5117.96 1.99188
5119.66 2.79048
5120.51 3.63289
5121.36 5.01651
5122.21 7.31415
5123.06 11.2157
5123.90 18.1296
5124.75 31.0533
5125.18 41.6933
5125.60 56.9397
5126.03 79.0742
5126.45 111.093
5127.23 201.153
5128.00 282.942
5128.78 253.462
5129.55 176.567
5130.27 123.946
5130.98 90.6874
5131.70 69.5666
5132.41 55.5886
5133.84 38.9376
5135.27 29.7358
5136.70 24.0435
5138.13 20.2301
5140.99 15.5011
5143.85 12.7146
5146.71 10.9095
5152.43 8.90758
5158.15 8.58043
5161.00 9.31495
5163.86 11.1800
5166.72 15.1982
5169.58 23.7547
5171.01 31.3550
5172.44 42.8752
5173.87 60.5957
5175.30 87.7507
5177.65 159.297
5180.00 227.461
5182.35 208.106
5184.70 148.483
5186.24 117.040
5187.78 93.9316
5190.85 64.9388
5193.93 48.7172
5197.00 38.7891
5200.08 32.2117
5203.16 27.5600
5209.31 21.3610
5215.46 17.2189
5218.54 15.5132
5221.61 13.9340
5224.69 12.4812
5226.23 11.8791
5227.76 11.5417
5229.30 11.9663
5230.07 12.8990
5230.84 14.9295
5231.61 19.2501
5232.38 28.8303
5232.76 37.7813
5233.15 51.9899
5233.53 75.2157
5233.92 113.159
5234.46 201.164
5235.00 284.155
5235.54 259.484
5236.08 185.945
5236.68 127.029
5237.28 92.6544
5237.87 72.0937
5238.47 59.0603
5239.07 50.2627
5239.66 44.0400
5240.86 35.9327
5242.05 30.9497
5243.24 27.6039
5245.63 23.4020
5248.01 20.8493
5250.40 19.1105
5255.17 16.8305
5259.94 15.3388
5264.71 14.2377
5274.25 12.6095
5283.79 11.3119
5288.56 10.6850
5293.33 10.0129
5298.11 9.21503
5300.49 8.72222
5302.88 8.12086
5305.26 7.35440
5306.46 6.89371
5307.65 6.39946
5308.84 5.99072
5309.44 5.96134
5310.03 6.29892
5310.63 7.59209
5310.93 9.05262
5311.23 11.6347
5311.52 16.3194
5311.82 25.1922
5311.97 32.4858
5312.12 42.9207
5312.27 57.9733
5312.42 79.5904
5312.71 146.028
5313.00 210.777
5313.29 195.389
5313.58 141.537
5313.82 106.418
5314.07 82.6496
5314.31 66.6999
5314.55 55.7348
5315.03 42.0771
5315.51 34.2211
5315.99 29.2365
5316.47 25.8527
5317.43 21.5993
5318.40 19.0609
5319.36 17.3862
5321.28 15.3092
5323.21 14.0626
5325.13 13.2195
5328.98 12.1219
5332.83 11.4064
5336.68 10.8775
5344.38 10.0932
5359.78 8.95399
5375.18 7.96271
5390.58 6.89977
5398.28 6.28914
5405.98 5.60761
5413.68 4.90233
5417.53 4.62791
5421.38 4.58536
5425.23 5.24093
5427.16 6.22177
5429.08 8.16917
5431.01 12.0533
5432.93 20.1205
5433.89 27.2425
5434.86 38.0136
5435.82 54.5477
5436.78 79.8901
5438.39 148.519
5440.00 216.196
5441.61 201.239
5443.22 145.819
5445.08 98.4440
5446.95 71.1084
5448.81 54.9461
5450.67 44.7533
5452.53 37.9062
5454.40 33.0679
5458.12 26.7773
5461.84 22.9201
5465.57 20.3333
5473.02 17.0770
5480.47 15.0569
5487.92 13.5449
5491.64 12.8110
5493.50 12.4004
5495.37 11.9155
5497.23 11.2762
5498.16 10.8452
5499.09 10.2776
5499.56 9.91367
5500.02 9.47211
5500.49 8.92121
5500.95 8.22257
5501.42 7.33528
5501.88 6.38042
5502.12 6.22295
5502.23 6.50480
5502.35 7.38224
5502.47 9.57863
5502.52 11.6189
5502.58 14.7766
5502.64 19.7221
5502.70 27.5861
5502.76 40.2552
5502.81 60.6352
5502.86 85.1084
5502.91 116.299
5503.00 175.514
5503.00 24.0215
5600.00 23.8528
6000.00 23.1572
6500.00 22.3891
7000.00 21.7043
7500.00 21.0886
8000.00 20.5311
8219.68 20.3079
8500.00 20.0231
9000.00 19.5576
9500.00 19.1290
10000.0 18.7326
11000.0 18.0215
12000.0 17.4001
12064.8 17.3645
13000.0 16.8509
14000.0 16.3607
15000.0 15.9196
16000.0 15.5197
17000.0 15.1550
17708.8 14.9179
18000.0 14.8205
19000.0 14.5121
20000.0 14.2267
21000.0 13.9613
22000.0 13.7138
23000.0 13.4821
24000.0 13.2646
25000.0 13.0599
25992.9 12.8681
26000.0 12.8668
27000.0 12.6841
28000.0 12.5109
29000.0 12.3465
30000.0 12.1900
31000.0 12.0409
32000.0 11.8985
33000.0 11.7623
34000.0 11.6320
35000.0 11.5070
36000.0 11.3870
37000.0 11.2717
38000.0 11.1608
38152.4 11.1445
39000.0 11.0539
40000.0 10.9508
41000.0 10.8513
42000.0 10.7552
43000.0 10.6623
44000.0 10.5724
45000.0 10.4853
46000.0 10.4009
47000.0 10.3191
48000.0 10.2396
49000.0 10.1625
50000.0 10.0875
56000.0 9.69712
60000.0 9.43690
70000.0 8.92090
80000.0 8.49661
82196.8 8.41789
90000.0 8.13828
100000 7.82939
110000 7.55879
120000 7.31860
120648 7.30464
130000 7.10312
140000 6.90805
150000 6.73013
153073 6.68186
170000 6.41599
177088 6.32336
200000 6.02393
210838 5.90539
225000 5.75050
225000 5.75055
250000 5.65464
259929 5.63775
300000 5.56958
381524 5.63932
400000 5.65512
440000 5.75575
453176 5.78891
495000 5.89416
495000 5.89416
500000 5.90674
506168 5.92569
600000 6.21391
646894 6.35795
700000 6.52107
747257 6.65066
747257 6.65066
771628 6.71749
800000 6.79530
880088 6.97808
898558 7.02023
900000 7.02353
945960 7.10552
1.00000E+06 7.20192
1.00748E+06 7.21167
1.09751E+06 7.32907
1.10000E+06 7.33232
1.17453E+06 7.39721
1.20000E+06 7.41939
1.23671E+06 7.43743
1.23671E+06 7.43743
1.30000E+06 7.46853
1.31504E+06 7.47066
1.31504E+06 7.47066
1.40000E+06 7.48269
1.41701E+06 7.47486
1.41701E+06 7.47485
1.44133E+06 7.46367
1.44133E+06 7.46366
1.50000E+06 7.43667
1.51663E+06 7.43069
1.56650E+06 7.41275
1.56742E+06 7.41242
1.56742E+06 7.41242
1.60000E+06 7.40070
1.61969E+06 7.39362
1.61969E+06 7.39361
1.70000E+06 7.36473
1.75149E+06 7.33460
1.75149E+06 7.33460
1.78736E+06 7.31361
1.78736E+06 7.31361
1.80000E+06 7.30621
1.81218E+06 7.29908
1.81218E+06 7.29908
1.86457E+06 7.26843
1.86457E+06 7.26843
1.86560E+06 7.26783
1.86560E+06 7.26783
1.90000E+06 7.24769
1.92429E+06 7.23069
1.92429E+06 7.23069
1.97988E+06 7.19176
1.97988E+06 7.19176
2.00000E+06 7.17767
2.50000E+06 6.76914
3.00000E+06 6.32201
3.50000E+06 5.87488
4.00000E+06 5.45424
5.00000E+06 4.80013
6.00000E+06 4.47904
6.16622E+06 4.47085
6.16622E+06 4.47085
6.98294E+06 4.43061
7.00000E+06 4.42977
7.55696E+06 4.48119
8.00000E+06 4.52209
9.00000E+06 4.66220
1.00000E+07 4.80230
1.10000E+07 4.92956
1.20000E+07 5.03481
1.30000E+07 5.11148
1.34402E+07 5.13012
1.40000E+07 5.15382
1.45000E+07 5.15643
1.50000E+07 5.15903
1.60000E+07 5.12719
1.60636E+07 5.12294
1.60636E+07 5.12294
1.70000E+07 5.06028
1.80000E+07 4.96299
1.90000E+07 4.84314
2.00000E+07 4.71011