Nd-146(n,tot) ENDF/B-VII.1
Energy(eV) XS(b)
1.00000E-05 85.1672
1.25000E-05 77.2578
1.50000E-05 71.4194
2.00000E-05 63.2240
2.75000E-05 55.4262
3.50000E-05 50.2942
4.25000E-05 46.5894
5.00000E-05 43.7531
6.25000E-05 40.2160
7.50000E-05 37.6049
0.000100000 33.9398
0.000125000 31.4387
0.000150000 29.5924
0.000200000 27.0008
0.000275000 24.5349
0.000350000 22.9120
0.000425000 21.7404
0.000500000 20.8435
0.000625000 19.7250
0.000750000 18.8993
0.00100000 17.7403
0.00125000 16.9493
0.00150000 16.3655
0.00200000 15.5459
0.00275000 14.7661
0.00350000 14.2528
0.00425000 13.8823
0.00500000 13.5987
0.00625000 13.2449
0.00750000 12.9837
0.0100000 12.6171
0.0125000 12.3669
0.0150000 12.1822
0.0200000 11.9229
0.0253000 11.7369
0.0314750 11.5826
0.0376500 11.4680
0.0500000 11.3061
0.0625000 11.1938
0.0750000 11.1107
0.100000 10.9940
0.125000 10.9140
0.150000 10.8548
0.200000 10.7711
0.275000 10.6906
0.350000 10.6368
0.500000 10.5663
0.750000 10.4965
1.00000 10.4516
1.50000 10.3916
2.00000 10.3494
2.75000 10.3003
3.50000 10.2599
5.00000 10.1913
7.50000 10.0931
10.0000 10.0043
15.0000 9.84006
20.0000 9.68644
27.5000 9.46933
35.0000 9.26469
50.0000 8.88564
75.0000 8.32579
100.000 7.83683
150.000 7.01486
200.000 6.33784
279.726 5.42382
299.657 5.20048
319.588 4.95209
329.554 4.79848
334.537 4.70356
339.520 4.58479
344.503 4.41976
346.994 4.30406
349.485 4.14672
350.731 4.04293
351.977 3.91323
353.223 3.74573
354.468 3.52109
355.091 3.37840
355.714 3.20982
356.337 3.01367
356.960 2.80337
357.271 2.71286
357.583 2.66752
357.894 2.74465
358.205 3.15675
358.361 3.66080
358.439 4.05480
358.517 4.59220
358.556 4.93340
358.595 5.33426
358.634 5.80809
358.673 6.37056
358.712 7.04345
358.750 7.84884
358.789 8.82132
358.828 10.0042
358.867 11.4591
358.906 13.2566
358.945 15.5069
358.984 18.3601
359.023 22.0415
359.062 26.8492
359.101 33.2704
359.140 42.0564
359.179 54.4734
359.218 72.5734
359.256 100.238
359.295 145.054
359.334 223.696
359.354 286.464
359.373 375.859
359.393 509.169
359.412 713.586
359.432 1041.48
359.451 1566.54
359.476 2570.98
359.500 3296.73
359.525 2705.71
359.549 1735.00
359.566 1250.55
359.583 924.701
359.601 703.440
359.618 551.611
359.652 364.317
359.686 259.496
359.721 195.413
359.755 153.465
359.823 103.647
359.892 76.1952
359.961 59.3741
360.029 48.2612
360.098 40.5062
360.235 30.5608
360.372 24.6045
360.509 20.7065
360.646 17.9946
360.921 14.5140
361.195 12.4112
361.469 11.0196
361.744 10.0380
362.292 8.75481
362.841 7.95944
363.390 7.42074
363.938 7.03261
365.035 6.51133
366.133 6.17708
367.230 5.94381
368.327 5.77104
370.522 5.53014
372.716 5.36772
374.911 5.24863
377.105 5.15596
381.495 5.01715
385.884 4.91385
394.662 4.75954
412.218 4.53713
429.775 4.35803
500.000 3.75211
562.493 3.23899
593.740 2.97305
609.363 2.83533
617.174 2.76634
619.127 2.75032
621.080 2.73769
622.057 2.73614
623.033 2.74829
623.521 2.77322
623.766 2.80037
624.010 2.85186
624.254 2.96436
624.376 3.07720
624.498 3.28266
624.559 3.45550
624.620 3.71786
624.681 4.14462
624.742 4.90787
624.773 5.54056
624.803 6.48495
624.834 7.98992
624.864 10.6035
624.895 15.7466
624.910 20.4369
624.925 28.0903
624.940 42.0094
624.948 53.4870
624.956 70.6216
624.963 98.0513
624.971 143.664
624.978 225.810
624.986 379.815
624.993 606.113
625.000 756.981
625.007 606.085
625.014 379.782
625.020 249.041
625.026 171.188
625.032 123.208
625.038 92.3963
625.050 57.3077
625.062 39.1600
625.074 28.6778
625.086 22.1117
625.110 14.6866
625.134 10.8064
625.158 8.54774
625.182 7.11415
625.206 6.14819
625.254 4.96642
625.302 4.30143
625.350 3.88981
625.398 3.61744
625.494 3.29039
625.591 3.10906
625.783 2.92502
625.975 2.83758
626.167 2.78886
626.551 2.73824
626.935 2.71272
627.320 2.69716
628.088 2.67800
629.625 2.65496
631.162 2.63740
634.236 2.60594
637.310 2.57560
649.606 2.45349
674.199 2.19241
698.791 1.89675
711.087 1.73079
714.161 1.68782
717.235 1.64661
718.772 1.62965
720.309 1.62428
721.078 1.63794
721.462 1.65764
721.846 1.69875
722.231 1.79383
722.423 1.89161
722.615 2.07224
722.711 2.22533
722.807 2.45953
722.903 2.84330
722.999 3.53497
723.047 4.11204
723.095 4.98059
723.143 6.37829
723.191 8.83964
723.215 10.8508
723.239 13.8054
723.263 18.4180
723.287 26.1945
723.311 40.8063
723.323 53.4382
723.335 73.1291
723.347 106.062
723.359 166.431
723.365 216.586
723.371 290.533
723.377 402.346
723.383 573.312
723.392 915.427
723.400 1145.40
723.408 915.521
723.417 573.437
723.422 421.262
723.427 316.030
723.438 190.949
723.448 125.256
723.459 88.2206
723.469 65.2079
723.479 50.2892
723.500 32.5882
723.521 22.9899
723.542 17.2265
723.584 10.9704
723.626 7.81803
723.667 6.01947
723.709 4.89308
723.751 4.14459
723.834 3.23931
723.918 2.73406
724.001 2.42341
724.085 2.21869
724.252 1.97351
724.419 1.83742
724.753 1.69775
725.087 1.62944
725.421 1.58958
726.089 1.54414
727.425 1.49710
728.762 1.46581
731.434 1.41343
734.106 1.36370
744.796 1.15494
755.485 0.914952
766.175 0.633539
771.520 0.477041
776.865 0.316200
782.209 0.171505
784.882 0.122489
786.218 0.110370
787.554 0.111048
788.890 0.129681
789.558 0.147923
790.226 0.173649
790.895 0.208313
791.563 0.253688
792.899 0.385750
794.235 0.594116
795.571 0.916825
796.907 1.41556
798.244 2.19453
799.580 3.43946
800.916 5.50285
802.252 9.11275
802.920 11.9526
803.588 15.9519
804.256 21.7689
804.925 30.5817
805.593 44.6572
806.261 68.7822
806.929 114.398
807.263 153.632
807.597 213.989
807.931 312.494
808.265 485.196
808.599 814.074
808.766 1088.00
808.933 1476.44
809.217 2418.75
809.500 3094.65
809.784 2533.39
810.068 1619.82
810.347 1027.35
810.626 686.836
810.906 486.179
811.185 361.314
811.464 279.215
811.743 222.683
812.301 152.192
812.859 111.591
813.418 86.0500
814.534 56.7917
815.651 41.1610
816.767 31.7499
817.884 25.5943
819.000 21.3181
821.234 15.8608
823.467 12.5888
825.700 10.4403
827.933 8.93476
832.399 6.98054
836.865 5.77478
841.331 4.95725
845.798 4.36440
854.730 3.55325
863.662 3.01193
881.527 2.29808
899.392 1.80887
917.257 1.42204
935.121 1.09052
944.054 0.939409
948.520 0.869803
949.637 0.855463
950.753 0.848038
951.311 0.853751
951.870 0.886369
952.149 0.939471
952.288 0.994559
952.428 1.09652
952.567 1.31518
952.637 1.53147
952.707 1.92003
952.777 2.72832
952.812 3.50640
952.847 4.86859
952.881 7.58274
952.899 10.0896
952.916 14.2422
952.934 21.9514
952.943 28.4555
952.951 38.3847
952.960 54.5068
952.969 82.7847
952.977 137.056
952.982 183.371
952.986 248.077
952.993 396.495
953.000 495.475
953.007 396.565
953.014 248.165
953.020 165.706
953.026 115.395
953.031 83.2880
953.037 62.7708
953.049 38.8619
953.060 26.4332
953.071 19.1225
953.083 14.5229
953.106 9.31574
953.129 6.57713
953.152 4.97681
953.175 3.95446
953.198 3.26755
953.244 2.42481
953.289 1.94843
953.381 1.45771
953.473 1.22214
953.565 1.09097
953.748 0.956827
954.115 0.855325
954.482 0.815491
955.217 0.779383
955.951 0.759252
957.419 0.730297
958.887 0.705612
964.761 0.615607
976.507 0.449656
1000.00 0.173170
1010.10 0.0881962
1015.15 0.0570463
1017.68 0.0449305
1020.20 0.0354112
1022.73 0.0287358
1025.25 0.0251789
1027.78 0.0250449
1030.30 0.0286723
1032.83 0.0364375
1035.35 0.0487596
1037.88 0.0661057
1040.40 0.0889976
1045.45 0.153821
1050.50 0.248793
1055.55 0.380939
1060.60 0.559203
1070.70 1.10342
1080.80 2.02198
1090.90 3.56380
1101.00 6.19688
1111.10 10.8715
1116.15 14.5557
1121.20 19.7236
1126.25 27.1724
1131.30 38.2823
1136.35 55.5926
1141.40 84.1374
1146.45 134.887
1148.98 175.785
1151.50 234.756
1154.03 322.835
1156.55 459.484
1159.08 678.892
1161.60 1034.38
1164.80 1725.26
1168.00 2242.17
1171.20 1863.47
1174.40 1210.80
1176.97 843.004
1179.53 606.309
1182.10 453.317
1184.67 351.158
1189.80 229.508
1194.93 163.287
1200.06 123.363
1205.20 97.4042
1215.46 66.6204
1225.72 49.5609
1235.99 38.9947
1246.25 31.9172
1256.52 26.8931
1277.05 20.2882
1297.58 16.1537
1318.11 13.3000
1338.64 11.1715
1379.69 8.01662
1400.22 6.67632
1420.75 5.32665
1441.28 3.81199
1451.55 2.92382
1461.81 1.90750
1466.95 1.35351
1472.08 0.796058
1477.21 0.315817
1478.49 0.230107
1479.78 0.169672
1481.06 0.143967
1481.70 0.148022
1482.34 0.165945
1482.98 0.200205
1483.63 0.253647
1484.27 0.329669
1484.91 0.432146
1486.19 0.737410
1487.47 1.22160
1488.76 1.96205
1490.04 3.07628
1491.32 4.74805
1492.61 7.27487
1493.89 11.1585
1495.17 17.2886
1496.46 27.3435
1497.74 44.7450
1499.02 77.1987
1499.66 104.317
1500.30 144.425
1500.95 206.249
1501.59 305.375
1502.23 471.444
1502.87 753.168
1503.64 1289.76
1504.40 1720.41
1505.17 1463.29
1505.93 970.310
1506.54 687.496
1507.15 502.718
1507.76 381.846
1508.37 300.299
1509.59 201.964
1510.81 147.568
1512.03 114.320
1513.25 92.4261
1515.69 66.0591
1518.13 51.1543
1520.57 41.7736
1523.01 35.4010
1525.45 30.8283
1530.33 24.7490
1535.21 20.9188
1540.08 18.2934
1544.96 16.3818
1554.72 13.7758
1564.48 12.0664
1584.00 9.91037
1603.51 8.54993
1623.03 7.56605
1662.06 6.12335
1701.09 4.96057
1720.61 4.39026
1740.13 3.77412
1759.64 3.04140
1769.40 2.58974
1779.16 2.03929
1784.04 1.71136
1788.92 1.33861
1793.80 0.918563
1798.67 0.474772
1801.11 0.277931
1802.33 0.202579
1803.55 0.156580
1804.77 0.157942
1805.38 0.184901
1805.99 0.235889
1806.60 0.317605
1807.21 0.438813
1807.82 0.611095
1808.43 0.849476
1809.04 1.17567
1809.65 1.61815
1810.26 2.21712
1810.87 3.02986
1811.48 4.13961
1812.09 5.67050
1812.70 7.81297
1813.31 10.8632
1813.92 15.3295
1814.53 22.0722
1815.14 32.6803
1815.75 50.2951
1816.36 81.7173
1816.67 107.029
1816.97 143.432
1817.28 197.541
1817.58 280.835
1817.89 413.100
1818.19 623.856
1818.60 1057.10
1819.00 1396.04
1819.41 1174.75
1819.81 770.770
1820.16 525.657
1820.51 372.850
1820.87 276.722
1821.22 213.784
1821.92 140.167
1822.63 100.640
1823.33 76.9576
1824.03 61.5859
1825.44 43.3479
1826.85 33.1882
1828.26 26.8611
1829.67 22.6011
1831.07 19.5660
1833.89 15.5613
1836.70 13.0617
1839.52 11.3599
1842.33 10.1283
1847.97 8.45904
1853.60 7.36982
1864.86 5.99645
1876.12 5.12018
1887.38 4.47126
1909.91 3.47096
1932.43 2.60695
1954.95 1.72447
1966.22 1.24626
1977.48 0.742582
1988.74 0.264097
1991.56 0.169262
1994.37 0.0983130
1995.78 0.0758504
1997.19 0.0650959
1998.59 0.0690428
2000.00 0.0915008
2000.94 0.119145
2001.88 0.158905
2002.82 0.212979
2003.75 0.283770
2005.63 0.488470
2007.51 0.805517
2009.39 1.28321
2011.26 1.99513
2013.14 3.05686
2015.02 4.65548
2016.89 7.11221
2018.77 10.9991
2020.65 17.4119
2022.52 28.6306
2024.40 49.9463
2025.34 68.1151
2026.28 95.5540
2027.22 139.014
2028.15 211.426
2029.09 338.922
2030.03 569.719
2031.02 965.197
2032.00 1274.57
2032.99 1074.14
2033.97 706.116
2035.02 445.311
2036.06 298.664
2037.10 213.521
2038.15 160.972
2039.19 126.470
2040.24 102.689
2042.33 72.8317
2044.42 55.4145
2046.50 44.2874
2050.68 31.2388
2054.86 24.0251
2059.04 19.5351
2063.21 16.5014
2067.39 14.3274
2075.75 11.4300
2084.10 9.58824
2100.81 7.35935
2117.52 6.02494
2134.23 5.10386
2167.65 3.83883
2234.49 2.19034
2301.34 0.960731
2334.76 0.460697
2351.47 0.257483
2368.18 0.104175
2376.53 0.0535141
2380.71 0.0364332
2384.89 0.0256950
2389.07 0.0220276
2393.24 0.0262621
2397.42 0.0393403
2401.60 0.0623223
2405.78 0.0964316
2409.95 0.143033
2418.31 0.280283
2426.66 0.489645
2435.02 0.791719
2443.37 1.21413
2451.73 1.79415
2460.08 2.58323
2468.44 3.65321
2476.79 5.10651
2485.15 7.09212
2493.50 9.83227
2501.86 13.6678
2510.22 19.1397
2518.57 27.1355
2526.93 39.1847
2535.28 58.0555
2543.64 89.0599
2551.99 143.031
2560.35 243.036
2568.70 435.222
2576.85 752.710
2585.00 1011.80
2593.15 869.227
2601.30 582.908
2607.13 430.434
2612.97 325.373
2618.80 253.420
2624.64 203.084
2636.30 140.045
2647.97 103.840
2659.64 81.1348
2671.31 65.8927
2694.64 47.1394
2717.98 36.2710
2741.32 29.2552
2764.65 24.3514
2776.32 22.4043
2782.15 21.5259
2785.07 21.1121
2786.53 20.9296
2787.26 20.9169
2787.44 20.9822
2787.62 21.2081
2787.71 21.5340
2787.80 22.4333
2787.85 23.6288
2787.87 24.7639
2787.90 26.6057
2787.92 30.2708
2787.93 33.6952
2787.94 38.7103
2787.95 48.2384
2787.96 65.0962
2787.97 81.1430
2787.98 101.396
2787.98 139.657
2787.99 189.744
2787.99 291.209
2788.00 358.882
2788.01 291.279
2788.01 189.830
2788.02 139.738
2788.02 112.159
2788.03 75.0555
2788.04 56.0315
2788.05 45.2985
2788.06 38.7348
2788.07 34.4563
2788.09 29.4293
2788.10 26.7130
2788.12 25.0851
2788.16 23.3505
2788.23 21.9295
2788.30 21.3941
2788.44 20.9757
2788.59 20.8117
2788.87 20.6661
2789.16 20.5891
2790.30 20.3976
2792.58 20.0851
2797.14 19.4965
2806.26 18.3945
2824.51 16.4197
2861.00 13.0340
2897.49 9.78242
2915.74 7.87214
2924.86 6.72735
2929.42 6.08172
2931.71 5.74535
2932.85 5.61201
2933.13 5.61479
2933.42 5.70537
2933.56 5.87007
2933.70 6.35975
2933.77 7.04213
2933.84 8.84301
2933.88 11.1699
2933.90 13.3263
2933.91 16.6824
2933.93 23.1609
2933.94 28.6619
2933.95 37.0750
2933.96 50.7606
2933.97 74.7949
2933.98 120.853
2933.99 204.225
2933.99 328.939
2934.00 401.883
2934.01 329.046
2934.01 203.017
2934.02 154.532
2934.02 114.128
2934.03 86.9076
2934.03 68.2121
2934.04 45.4541
2934.05 32.9181
2934.06 25.3805
2934.07 20.5277
2934.09 15.0971
2934.11 12.0034
2934.13 10.2450
2934.17 8.27345
2934.25 6.70364
2934.33 6.11347
2934.49 5.65144
2934.64 5.46694
2934.96 5.29828
2935.27 5.20368
2936.53 4.94636
2939.04 4.48209
2944.06 3.48239
2949.08 2.36196
2954.10 1.17544
2956.61 0.636756
2957.87 0.419025
2959.12 0.266547
2959.75 0.226034
2960.38 0.217779
2961.01 0.250110
2961.64 0.333378
2962.26 0.481234
2962.89 0.710770
2963.52 1.04419
2964.15 1.50960
2964.77 2.14655
2965.40 3.00522
2966.66 5.68378
2967.91 10.4702
2969.17 19.2074
2969.80 26.1754
2970.42 35.9616
2971.05 49.9827
2971.68 70.5110
2972.31 101.482
2972.94 149.490
2973.56 225.726
2974.19 347.053
2975.10 627.015
2976.00 878.726
2976.91 783.946
2977.81 543.490
2978.50 403.926
2979.18 308.133
2979.86 242.718
2980.55 197.145
2981.92 140.040
2983.29 107.136
2984.65 86.3473
2986.02 72.2985
2988.76 54.8292
2991.50 44.5881
2994.23 37.9445
2999.71 29.9103
3005.18 25.2497
3010.66 22.2027
3021.61 18.4205
3032.55 16.1127
3043.50 14.5119
3065.40 12.3311
3087.30 10.8024
3109.19 9.57242
3131.09 8.47585
3142.04 7.94229
3147.51 7.67381
3150.25 7.54039
3151.62 7.48212
3152.30 7.48814
3152.65 7.62640
3152.73 7.77785
3152.82 8.18872
3152.86 8.73223
3152.90 10.1288
3152.92 11.8869
3152.95 15.7608
3152.96 20.1021
3152.97 27.6209
3152.97 35.5722
3152.98 45.9655
3152.98 62.2220
3152.99 89.7787
3152.99 141.786
3153.00 171.576
3153.01 141.834
3153.01 89.1973
3153.02 62.2803
3153.02 46.0172
3153.03 34.0154
3153.03 27.6594
3153.05 19.6140
3153.06 15.7834
3153.08 11.7870
3153.10 10.1352
3153.14 8.72947
3153.18 8.17897
3153.27 7.75399
3153.36 7.59396
3153.70 7.41981
3154.39 7.34374
3155.76 7.26324
3158.51 7.11937
3164.00 6.82941
3174.98 6.21073
3185.97 5.50750
3196.95 4.65877
3207.94 3.55102
3213.43 2.83800
3218.92 1.97249
3221.67 1.47648
3224.41 0.951747
3227.16 0.449539
3228.53 0.250860
3229.22 0.181095
3229.91 0.142376
3230.59 0.147128
3231.28 0.212890
3231.97 0.364860
3232.65 0.638651
3233.34 1.08823
3234.03 1.79209
3234.71 2.87565
3235.40 4.53150
3236.09 7.08755
3236.77 11.0905
3237.46 17.5561
3238.14 28.3931
3238.83 47.6348
3239.52 84.2427
3239.86 115.138
3240.20 160.500
3240.55 228.409
3240.89 329.952
3241.45 581.435
3242.00 797.229
3242.56 698.814
3243.11 477.092
3243.62 329.778
3244.13 237.568
3244.63 179.475
3245.14 141.384
3246.16 96.4277
3247.17 71.9464
3248.19 57.0480
3249.20 47.2226
3251.23 35.3004
3253.26 28.4652
3255.29 24.0955
3257.32 21.0800
3259.35 18.8807
3263.41 15.8918
3267.47 13.9526
3275.59 11.5602
3283.72 10.1066
3291.84 9.09835
3308.08 7.71939
3340.56 5.96530
3373.05 4.66607
3405.53 3.50994
3438.01 2.39725
3470.50 1.31447
3486.74 0.810130
3494.86 0.581952
3498.92 0.485158
3500.95 0.475148
3501.46 0.504987
3501.97 0.611942
3502.22 0.770358
3502.47 1.22193
3502.60 1.83702
3502.73 3.50196
3502.79 5.69339
3502.82 7.76785
3502.85 11.1844
3502.89 17.9169
3502.90 23.8830
3502.92 32.6716
3502.93 48.6042
3502.95 79.1705
3502.96 105.767
3502.97 146.757
3502.97 212.243
3502.98 309.446
3502.99 489.895
3503.00 618.746
3503.01 490.066
3503.02 309.657
3503.03 193.001
3503.04 124.126
3503.05 84.9842
3503.06 61.3281
3503.07 46.1595
3503.08 35.9307
3503.10 23.9603
3503.12 16.8411
3503.14 12.6772
3503.18 7.88974
3503.22 5.43118
3503.25 4.00540
3503.33 2.50250
3503.49 1.35480
3503.64 0.929765
3503.96 0.611197
3504.27 0.492012
3504.89 0.396160
3505.52 0.353195
3508.02 0.271242
3513.01 0.170021
3518.01 0.0956902
3520.51 0.0684161
3523.00 0.0486206
3525.50 0.0371721
3528.00 0.0350810
3530.50 0.0435093
3533.00 0.0637973
3535.49 0.0975257
3537.99 0.146761
3540.49 0.216516
3541.74 0.274200
3542.36 0.367595
3542.67 0.654422
3542.75 0.929271
3542.83 1.65895
3542.87 2.59267
3542.91 4.92015
3542.93 7.75850
3542.95 13.7020
3542.96 20.0512
3542.97 31.8823
3542.97 41.8659
3542.98 56.7877
3542.98 79.6883
3542.99 110.594
3542.99 174.220
3543.00 221.077
3543.01 174.370
3543.01 110.778
3543.02 69.4879
3543.03 44.5263
3543.03 30.4272
3543.04 22.9297
3543.05 13.3284
3543.07 8.94801
3543.09 4.78735
3543.12 3.03553
3543.18 1.62312
3543.23 1.08717
3543.34 0.672449
3543.44 0.523910
3543.87 0.386579
3544.73 0.382457
3546.45 0.453760
3549.89 0.652893
3556.76 1.24406
3563.63 2.17919
3570.50 3.62129
3577.37 5.83086
3584.24 9.23581
3591.12 14.5707
3594.55 18.3403
3596.27 20.6045
3597.13 21.8664
3597.56 22.6028
3597.77 23.2660
3597.83 23.6735
3597.88 24.5823
3597.91 25.6700
3597.93 28.2290
3597.95 31.2294
3597.96 36.9765
3597.97 42.8013
3597.97 50.9854
3597.98 67.7699
3597.99 95.3233
3597.99 140.915
3598.00 167.048
3598.01 141.013
3598.01 94.9025
3598.02 64.8292
3598.03 47.9684
3598.04 39.3014
3598.04 34.9000
3598.06 29.9226
3598.07 27.5694
3598.10 25.4854
3598.13 24.6912
3598.20 24.1079
3598.26 23.9496
3598.50 24.0795
3598.98 24.8241
3599.96 26.5283
3601.90 30.3811
3605.78 40.1268
3609.67 53.5872
3613.56 72.5494
3617.44 99.8413
3621.33 139.962
3625.21 199.887
3629.10 289.275
3635.55 518.219
3642.00 718.995
3648.45 633.316
3654.90 433.559
3660.47 306.540
3666.03 224.624
3671.60 171.662
3677.16 136.165
3688.29 93.4273
3699.42 69.6177
3710.55 54.8544
3721.68 44.9450
3743.94 32.5833
3766.20 25.1394
3788.46 20.0371
3810.72 16.1585
3821.85 14.4886
3827.42 13.6999
3830.20 13.3207
3831.59 13.1583
3832.29 13.1770
3832.46 13.2690
3832.64 13.5664
3832.72 13.9861
3832.81 15.1292
3832.86 16.6331
3832.90 20.3190
3832.92 24.7793
3832.94 34.1005
3832.95 43.9327
3832.96 62.0490
3832.97 78.8530
3832.97 99.5475
3832.98 129.789
3832.98 182.751
3832.99 278.479
3833.00 351.663
3833.01 278.643
3833.02 181.839
3833.02 110.444
3833.03 75.6943
3833.04 54.1562
3833.05 42.8916
3833.07 30.1319
3833.08 24.0150
3833.12 18.5973
3833.15 16.3940
3833.22 14.5780
3833.28 13.8748
3833.42 13.3272
3833.55 13.1165
3834.09 12.8499
3835.16 12.6540
3837.31 12.3523
3841.61 11.7788
3850.20 10.6587
3867.39 8.45811
3884.58 6.23623
3901.77 3.93863
3918.96 1.64179
3927.55 0.656311
3931.85 0.295324
3934.00 0.173320
3936.14 0.106338
3937.22 0.0985208
3938.29 0.111180
3939.37 0.147315
3940.44 0.210439
3941.52 0.304769
3942.59 0.434968
3944.74 0.827102
3946.89 1.44731
3949.04 2.38183
3951.18 3.76067
3953.33 5.78096
3955.48 8.76235
3957.63 13.2363
3959.78 20.1635
3961.93 31.3857
3964.08 50.8634
3966.22 88.1536
3967.30 120.533
3968.37 170.330
3969.45 249.964
3970.52 378.334
3971.76 592.359
3973.00 714.933
3974.24 544.457
3975.48 318.796
3976.63 188.267
3977.77 114.711
3978.92 72.6664
3980.07 47.9076
3981.21 33.1990
3982.36 24.8805
3983.50 21.0527
3984.65 20.8118
3985.80 23.8568
3986.94 30.3100
3988.09 40.6816
3989.24 55.8838
3990.38 77.3265
3991.53 106.939
3993.82 201.769
3995.37 302.749
3996.91 436.503
4000.00 697.932
4001.55 731.333
4003.09 686.395
4006.18 512.656
4008.14 414.885
4010.11 339.636
4014.03 240.589
4017.95 182.557
4021.88 146.023
4025.80 121.457
4029.73 104.030
4037.57 81.2415
4045.42 67.1622
4053.27 57.6483
4061.12 50.7113
4065.04 47.6831
4066.02 46.8538
4066.51 46.3868
4067.00 45.8482
4067.49 45.1639
4067.74 44.7171
4067.98 44.1366
4068.23 43.3031
4068.35 42.7147
4068.48 41.9309
4068.60 40.8020
4068.66 40.0428
4068.72 39.0954
4068.78 37.9193
4068.84 36.7908
4068.87 36.7295
4068.90 38.2391
4068.92 40.8122
4068.94 45.8994
4068.95 56.3807
4068.97 78.9613
4068.97 99.8435
4068.98 129.690
4069.00 186.993
4069.02 189.178
4069.03 153.966
4069.05 126.482
4069.07 106.978
4069.08 93.9277
4069.10 85.4140
4069.13 74.0081
4069.16 67.5741
4069.19 63.3014
4069.22 60.4451
4069.29 56.7198
4069.35 54.4503
4069.41 52.9259
4069.54 51.0035
4069.66 49.8317
4069.79 49.0331
4070.04 47.9915
4070.29 47.3172
4070.55 46.8253
4071.05 46.1155
4071.55 45.5866
4072.06 45.1505
4073.06 44.4227
4075.08 43.2299
4077.09 42.2019
4085.15 38.8291
4101.27 33.9566
4133.50 27.9371
4165.74 24.3006
4181.86 22.9605
4185.89 22.6610
4189.92 22.3750
4193.94 22.1091
4195.96 22.0180
4196.46 22.0295
4196.97 22.1221
4197.22 22.2781
4197.47 22.7368
4197.60 23.3617
4197.72 25.0260
4197.79 27.1361
4197.82 29.1126
4197.85 32.2924
4197.88 38.3307
4197.90 43.4721
4197.91 50.7476
4197.93 63.1915
4197.94 83.2034
4197.96 123.065
4197.97 199.674
4197.99 308.638
4198.00 377.795
4198.01 308.846
4198.03 199.937
4198.04 142.636
4198.05 105.086
4198.06 81.6777
4198.07 67.6667
4198.09 50.2924
4198.11 41.0750
4198.13 35.6614
4198.15 32.2303
4198.20 28.3057
4198.28 24.9952
4198.36 23.7007
4198.53 22.6848
4198.70 22.2995
4199.04 21.9990
4199.38 21.8764
4200.73 21.6901
4203.43 21.4956
4208.84 21.1645
4219.65 20.5591
4241.27 19.5019
4284.51 17.8273
4327.74 16.5435
4349.36 16.0027
4360.17 15.7527
4365.58 15.6343
4368.28 15.5851
4369.63 15.5968
4370.31 15.7447
4370.48 15.9057
4370.65 16.3568
4370.73 16.9684
4370.82 18.5771
4370.86 20.6167
4370.90 25.6165
4370.92 31.3742
4370.94 43.6999
4370.95 56.5498
4370.96 77.0331
4370.97 120.640
4370.98 154.350
4370.98 205.284
4370.99 323.724
4371.00 394.130
4371.01 323.882
4371.02 204.356
4371.03 132.908
4371.03 93.1548
4371.04 67.5364
4371.05 53.7755
4371.07 37.8306
4371.08 30.3666
4371.12 23.2722
4371.15 20.2573
4371.22 17.7872
4371.28 16.8500
4371.42 16.1280
4371.55 15.8608
4371.81 15.6599
4372.08 15.5841
4373.14 15.4918
4375.27 15.4284
4379.51 15.3344
4388.01 15.1592
4405.01 14.8279
4439.00 14.2246
4472.99 13.6849
4489.99 13.4346
4498.48 13.3150
4502.73 13.2616
4504.86 13.2579
4505.92 13.3470
4506.19 13.4499
4506.45 13.7429
4506.58 14.1445
4506.72 15.2387
4506.78 16.6892
4506.85 20.3662
4506.88 24.8344
4506.90 28.9458
4506.92 35.1366
4506.93 46.6041
4506.95 67.5623
4506.96 88.6194
4506.97 118.324
4506.97 166.205
4506.98 244.260
4506.99 390.770
4507.00 475.635
4507.01 375.446
4507.02 244.564
4507.03 174.321
4507.03 133.861
4507.04 85.9812
4507.06 61.0239
4507.07 46.7606
4507.08 37.3782
4507.09 31.7812
4507.12 25.1230
4507.17 19.2066
4507.22 16.8019
4507.31 14.9065
4507.41 14.1941
4507.61 13.6515
4507.80 13.4516
4508.58 13.2433
4510.14 13.1702
4513.27 13.1140
4519.51 13.0262
4532.00 12.8602
4544.50 12.6995
4550.74 12.6211
4553.86 12.5838
4555.43 12.5718
4556.21 12.5927
4556.60 12.7072
4556.79 13.1483
4556.84 13.5745
4556.89 14.6761
4556.91 16.0692
4556.94 19.1962
4556.95 22.5469
4556.96 29.0844
4556.97 44.0308
4556.98 59.1512
4556.99 88.9818
4556.99 132.119
4557.00 165.574
4557.01 132.245
4557.01 89.1341
4557.02 66.3952
4557.02 50.7405
4557.03 33.8407
4557.04 25.8554
4557.05 21.5798
4557.07 17.4494
4557.09 15.6729
4557.13 14.1061
4557.17 13.4765
4557.33 12.7973
4557.64 12.6040
4558.26 12.5456
4559.51 12.5168
4562.01 12.4825
4567.01 12.4204
4577.01 12.2996
4597.01 12.0644
4637.00 11.6128
4676.99 11.1781
4696.99 10.9641
4706.99 10.8577
4711.99 10.8063
4714.49 10.7884
4715.74 10.8110
4716.36 10.9475
4716.52 11.0908
4716.67 11.4888
4716.75 12.0210
4716.83 13.4295
4716.87 15.2127
4716.91 19.5733
4716.93 24.7586
4716.95 35.2461
4716.96 46.0026
4716.97 65.0723
4716.98 102.114
4716.98 168.032
4716.99 262.504
4717.00 325.571
4717.01 262.707
4717.02 168.286
4717.03 102.345
4717.03 67.9252
4717.04 49.1195
4717.05 39.0315
4717.07 26.8696
4717.09 21.3275
4717.12 16.1922
4717.16 14.0939
4717.22 12.3641
4717.29 11.6971
4717.43 11.1885
4717.57 11.0002
4718.12 10.8060
4719.23 10.7446
4721.44 10.7079
4725.86 10.6570
4734.70 10.5611
4752.39 10.3696
4787.76 9.97676
4858.51 9.10184
4893.88 8.57285
4929.25 7.91970
4964.63 7.02693
4982.31 6.40971
5000.00 5.57820
5007.49 5.12347
5011.24 4.86511
5013.11 4.73271
5014.05 4.68975
5014.52 4.76870
5014.75 5.18543
5014.81 5.60727
5014.87 6.69570
5014.90 8.11071
5014.93 11.4071
5014.94 15.2475
5014.96 22.5613
5014.97 30.4672
5014.97 42.1291
5014.98 62.3679
5014.99 98.5179
5014.99 154.933
5015.00 192.584
5015.01 155.031
5015.01 98.6402
5015.02 66.4601
5015.03 46.8837
5015.04 27.0818
5015.05 18.2718
5015.06 14.0051
5015.08 9.67003
5015.11 7.74713
5015.15 6.13538
5015.20 5.49393
5015.38 4.79977
5015.75 4.58166
5016.49 4.47072
5017.97 4.33142
5020.92 4.05855
5026.82 3.43997
5032.72 2.69255
5038.62 1.79019
5041.57 1.28550
5044.52 0.773626
5047.47 0.332300
5048.94 0.197985
5049.68 0.173452
5050.42 0.191067
5051.16 0.265764
5051.90 0.417933
5052.63 0.675804
5053.37 1.07835
5054.11 1.68317
5054.85 2.57055
5055.58 3.86465
5056.32 5.74663
5057.06 8.51034
5057.80 12.6125
5058.53 18.8398
5059.27 28.5188
5060.01 44.1091
5060.75 70.1302
5061.48 115.357
5062.22 194.971
5063.11 357.124
5064.00 506.591
5064.89 456.488
5065.78 319.215
5066.54 230.588
5067.29 172.267
5068.05 133.994
5068.81 108.050
5070.32 76.4472
5071.84 58.6567
5073.35 47.5540
5074.86 40.0955
5077.89 30.8434
5080.92 25.4033
5083.94 21.8460
5090.00 17.4646
5096.05 14.8219
5102.11 12.9893
5114.22 10.3803
5126.33 8.18817
5132.38 7.00619
5138.43 5.62263
5144.49 3.87713
5147.52 2.81287
5150.54 1.63218
5153.57 0.546502
5154.33 0.379989
5155.08 0.318870
5155.84 0.429478
5156.22 0.580530
5156.60 0.819840
5156.98 1.17393
5157.35 1.67455
5157.73 2.36939
5158.11 3.31532
5158.49 4.60041
5158.87 6.33256
5159.25 8.67567
5159.62 11.8600
5160.00 16.2340
5160.38 22.2731
5160.76 30.7663
5161.14 42.8312
5161.52 60.3555
5161.90 86.0951
5162.27 124.431
5162.65 181.367
5163.33 342.796
5164.00 499.365
5164.34 505.344
5164.68 460.716
5165.35 328.910
5166.02 230.449
5166.68 169.092
5167.34 130.531
5168.01 105.243
5168.67 87.7843
5169.34 75.2449
5170.67 58.7054
5171.99 48.4745
5173.32 41.6289
5174.65 36.7917
5174.98 35.8296
5175.32 35.0111
5175.65 34.7291
5175.73 35.0895
5175.81 36.3620
5175.86 38.1184
5175.90 42.3053
5175.92 47.0868
5175.94 56.8851
5175.95 66.5502
5175.96 81.0156
5175.97 105.603
5175.98 148.361
5175.99 221.081
5176.00 263.800
5176.01 214.193
5176.02 148.500
5176.03 116.176
5176.03 96.8051
5176.05 71.4391
5176.06 58.1770
5176.07 51.0480
5176.10 43.0126
5176.12 39.3508
5176.17 35.9997
5176.22 34.5772
5176.33 33.2844
5176.43 32.6615
5176.83 31.3920
5177.24 30.5166
5177.65 29.7482
5179.27 27.2120
5182.51 23.6597
5185.76 21.2720
5189.01 19.5531
5195.50 17.2285
5201.99 15.7115
5208.49 14.6272
5214.98 13.8025
5218.23 13.4588
5221.47 13.1560
5223.09 13.0256
5224.72 12.9310
5225.53 12.9266
5226.34 13.0397
5226.75 13.2544
5226.95 13.4827
5227.15 13.9078
5227.36 14.8131
5227.46 15.7025
5227.56 17.2597
5227.66 20.4340
5227.71 23.3991
5227.76 28.2861
5227.81 37.6215
5227.84 45.5069
5227.86 57.6832
5227.89 78.8393
5227.91 115.920
5227.93 147.724
5227.94 190.376
5227.95 259.167
5227.96 358.170
5227.98 568.785
5228.00 704.334
5228.02 569.222
5228.04 358.721
5228.05 235.368
5228.07 164.049
5228.09 118.360
5228.10 91.2748
5228.14 59.8358
5228.17 44.2261
5228.20 34.9652
5228.23 29.2217
5228.30 22.8546
5228.36 19.4998
5228.43 17.5718
5228.56 15.5057
5228.69 14.4874
5228.82 13.9093
5229.08 13.3072
5229.61 12.8340
5230.13 12.6382
5231.18 12.4468
5232.22 12.3310
5234.32 12.1565
5236.41 12.0074
5240.59 11.7388
5244.78 11.4934
5261.52 10.6488
5295.01 9.25495
5328.50 7.85371
5345.24 7.01967
5353.61 6.53841
5357.80 6.28013
5359.89 6.16375
5360.94 6.18160
5361.46 6.49225
5361.59 6.83058
5361.72 7.76558
5361.79 9.01120
5361.85 12.1709
5361.88 16.0911
5361.92 24.8295
5361.93 34.8225
5361.95 53.2367
5361.96 69.3387
5361.97 94.2991
5361.97 134.538
5361.98 200.141
5361.99 323.305
5362.00 394.694
5362.01 310.540
5362.02 200.540
5362.03 141.494
5362.03 102.935
5362.04 77.6996
5362.05 62.7791
5362.06 42.6273
5362.07 31.3914
5362.10 19.8675
5362.13 14.8205
5362.18 10.4007
5362.23 8.64335
5362.34 7.23001
5362.44 6.69852
5362.65 6.28778
5362.86 6.12912
5363.71 5.92443
5365.39 5.76396
5368.76 5.49810
5375.50 4.93335
5382.24 4.29020
5385.61 3.93540
5387.30 3.76020
5388.14 3.72049
5388.56 3.89855
5388.67 4.11644
5388.77 4.72469
5388.83 5.53869
5388.88 7.58398
5388.91 10.1757
5388.93 15.9422
5388.95 22.0357
5388.96 33.7096
5388.97 59.5388
5388.98 87.2057
5388.98 129.740
5388.99 203.018
5389.00 256.392
5389.01 203.391
5389.02 130.196
5389.02 92.9312
5389.03 70.0432
5389.04 41.4531
5389.05 27.5502
5389.06 19.9758
5389.08 12.5526
5389.10 9.20024
5389.15 6.35644
5389.19 5.23200
5389.28 4.32180
5389.37 3.97693
5389.72 3.58909
5390.41 3.41108
5391.81 3.21251
5394.61 2.84329
5400.20 2.05644
5405.80 1.21769
5411.39 0.453483
5412.79 0.314887
5414.19 0.220739
5415.59 0.191750
5416.99 0.257686
5417.69 0.339275
5418.39 0.462267
5419.09 0.635563
5419.79 0.870002
5421.18 1.57986
5422.58 2.74341
5423.98 4.60599
5425.38 7.56576
5426.78 12.3122
5428.18 20.0572
5429.58 33.0844
5430.97 55.7931
5432.37 97.0256
5433.77 173.169
5435.39 327.342
5437.00 477.159
5437.81 482.826
5438.62 440.115
5440.23 314.154
5441.66 227.828
5443.09 171.206
5444.52 134.201
5445.95 109.190
5448.80 78.7086
5451.66 61.5023
5454.52 50.7230
5457.38 43.4448
5463.09 34.3529
5468.80 28.9380
5474.52 25.2971
5477.38 23.8264
5480.23 22.4156
5481.66 21.6359
5482.38 21.1812
5483.09 20.6333
5483.81 19.8980
5484.16 19.3955
5484.52 18.7229
5484.88 17.7396
5485.06 17.0388
5485.23 16.1076
5485.41 14.8005
5485.50 13.9545
5485.59 12.9636
5485.68 11.9197
5485.73 11.5450
5485.77 11.5699
5485.82 12.7155
5485.86 17.0134
5485.88 22.4251
5485.90 32.1595
5485.93 50.6888
5485.94 65.6509
5485.95 86.3064
5485.96 120.075
5485.97 164.244
5486.00 248.730
5486.01 258.319
5486.03 242.302
5486.05 183.868
5486.07 145.658
5486.09 119.405
5486.11 99.8078
5486.13 86.4100
5486.17 68.4857
5486.21 57.7193
5486.25 50.6959
5486.29 45.8148
5486.36 39.6139
5486.44 35.7899
5486.52 33.2694
5486.67 30.1057
5486.83 28.2078
5486.98 26.9542
5487.14 26.0565
5487.29 25.3789
5487.61 24.4134
5487.92 23.7529
5488.54 22.8777
5489.16 22.2993
5489.78 21.8693
5491.02 21.2352
5493.50 20.3608
5495.99 19.7101
5505.92 17.9093
5515.85 16.6904
5525.79 15.7763
5545.65 14.4711
5565.52 13.5671
5605.25 12.3592
5625.12 11.9223
5635.05 11.7306
5640.02 11.6415
5642.50 11.6046
5643.74 11.6128
5644.36 11.7220
5644.67 12.1751
5644.75 12.6274
5644.83 13.8101
5644.87 15.3273
5644.91 19.0656
5644.93 23.5480
5644.95 32.7013
5644.96 42.1782
5644.97 56.9102
5644.98 87.8556
5644.98 142.933
5644.99 221.883
5645.00 274.618
5645.01 222.125
5645.02 143.236
5645.02 97.4828
5645.03 69.9338
5645.04 53.1046
5645.04 42.3715
5645.06 30.2323
5645.07 24.3296
5645.10 18.2945
5645.13 15.7625
5645.18 13.6154
5645.24 12.7722
5645.35 12.1216
5645.46 11.8784
5645.90 11.6262
5646.77 11.5459
5648.53 11.4987
5652.05 11.4354
5659.08 11.3210
5673.14 11.1086
5701.26 10.7300
5757.50 10.0942
5813.74 9.54932
5841.86 9.29444
5855.92 9.16935
5862.95 9.10743
5866.47 9.07779
5868.23 9.06834
5869.11 9.08548
5869.55 9.17909
5869.77 9.54124
5869.88 10.7877
5869.90 11.9153
5869.93 14.4428
5869.96 22.3503
5869.97 34.7799
5869.98 47.4846
5869.98 67.0116
5869.99 100.641
5870.00 125.109
5870.01 100.747
5870.02 67.1413
5870.03 41.3296
5870.04 28.1230
5870.06 17.6181
5870.08 13.8242
5870.10 12.0743
5870.17 9.96868
5870.33 9.30054
5870.65 9.10874
5871.28 9.05229
5872.55 9.02764
5875.08 9.00174
5880.14 8.95617
5890.26 8.86677
5910.49 8.68796
5930.73 8.50771
5940.85 8.41843
5945.91 8.38237
5948.44 8.40182
5949.08 8.44082
5949.71 8.56242
5950.02 8.73557
5950.34 9.22193
5950.50 9.87873
5950.66 11.6389
5950.74 13.9008
5950.78 16.0391
5950.81 19.5526
5950.85 26.3324
5950.87 32.2366
5950.89 40.9249
5950.91 56.1320
5950.93 84.1924
5950.94 107.640
5950.95 142.367
5950.96 195.081
5950.97 268.276
5950.99 422.236
5951.00 527.884
5951.01 422.702
5951.03 267.921
5951.04 183.226
5951.05 127.248
5951.06 92.9596
5951.08 71.0731
5951.10 46.3207
5951.12 33.6112
5951.15 26.3058
5951.17 21.7452
5951.22 16.6042
5951.27 13.9331
5951.32 12.3726
5951.41 10.7282
5951.60 9.44645
5951.79 8.97206
5952.18 8.61561
5952.56 8.48437
5954.09 8.34232
5957.15 8.28007
5963.27 8.21394
5975.51 8.09596
6000.00 7.85694
6024.49 7.60589
6036.73 7.47498
6042.85 7.41027
6045.91 7.38826
6047.44 7.42154
6048.21 7.61206
6048.40 7.81097
6048.59 8.35364
6048.69 9.07135
6048.78 10.8972
6048.83 13.1488
6048.88 18.3994
6048.90 24.0861
6048.93 35.3103
6048.94 45.3749
6048.95 61.3726
6048.96 88.0088
6048.97 130.687
6048.99 206.324
6049.00 254.378
6049.01 206.591
6049.03 131.025
6049.04 77.8318
6049.06 50.1286
6049.07 35.5238
6049.09 27.5474
6049.12 18.8951
6049.15 14.7752
6049.21 11.1080
6049.28 9.62385
6049.40 8.43010
6049.53 7.97469
6049.78 7.62871
6050.03 7.50000
6051.03 7.36187
6053.03 7.30528
6057.02 7.25002
6065.02 7.15332
6081.01 6.95615
6113.00 6.52363
6144.99 6.02129
6160.98 5.73534
6168.98 5.58353
6172.98 5.51388
6174.98 5.51698
6175.98 5.67298
6176.23 5.84798
6176.48 6.34244
6176.60 7.01039
6176.73 8.79598
6176.79 11.1078
6176.85 16.7519
6176.88 23.3016
6176.91 37.4612
6176.93 52.0994
6176.95 76.4531
6176.95 97.2992
6176.96 127.488
6176.97 172.024
6176.98 227.775
6176.99 361.386
6177.00 450.620
6177.01 361.770
6177.02 228.256
6177.04 142.622
6177.05 97.6878
6177.06 70.6710
6177.07 53.6138
6177.09 34.4873
6177.11 24.7292
6177.16 15.5268
6177.20 11.6674
6177.29 8.45932
6177.38 7.20934
6177.56 6.24925
6177.74 5.89268
6178.09 5.62124
6178.45 5.51844
6179.87 5.39297
6182.71 5.30654
6188.39 5.17366
6199.76 4.90306
6222.50 4.28462
6245.23 3.52390
6256.60 3.07378
6262.29 2.83443
6265.13 2.74092
6266.55 2.82393
6266.91 2.96177
6267.26 3.37641
6267.44 3.95370
6267.62 5.51208
6267.70 7.54293
6267.75 9.47370
6267.79 12.6787
6267.84 18.9099
6267.86 24.2406
6267.88 32.5933
6267.90 46.6647
6267.93 72.7425
6267.94 94.6555
6267.95 127.328
6267.96 177.469
6267.97 259.115
6267.99 410.606
6268.00 516.554
6268.02 411.312
6268.03 259.988
6268.04 184.048
6268.05 135.659
6268.06 102.964
6268.07 80.3872
6268.09 51.6907
6268.11 36.6809
6268.13 27.1906
6268.15 21.3744
6268.19 14.4164
6268.23 10.6993
6268.28 8.48782
6268.36 6.10134
6268.52 4.22780
6268.68 3.51991
6269.01 2.97492
6269.34 2.76534
6269.99 2.59015
6270.65 2.50608
6273.26 2.32301
6278.50 2.03649
6288.97 1.44604
6299.43 0.822363
6309.90 0.254096
6312.52 0.149940
6315.13 0.0778398
6317.75 0.0528250
6320.37 0.0966994
6321.68 0.153997
6322.99 0.241591
6324.29 0.366188
6325.60 0.535722
6328.22 1.05308
6330.84 1.90973
6333.45 3.29532
6336.07 5.52768
6338.69 9.16523
6341.30 15.2382
6343.92 25.7587
6346.54 44.8991
6347.85 60.2207
6349.15 81.7126
6350.46 112.115
6351.77 154.908
6354.39 285.670
6357.00 407.371
6359.62 368.658
6362.23 258.705
6364.02 199.227
6365.80 156.429
6367.59 126.027
6369.37 104.105
6372.94 75.6753
6376.51 58.7066
6380.08 47.7302
6383.65 40.1739
6390.79 30.5926
6397.93 24.8432
6405.07 21.0287
6419.36 16.2500
6433.64 13.2950
6447.92 11.1844
6476.48 8.02916
6505.04 5.24625
6519.32 3.77866
6533.61 2.21575
6547.89 0.711665
6551.46 0.421533
6553.24 0.307212
6555.03 0.221340
6556.81 0.171942
6558.60 0.169260
6560.38 0.226447
6562.17 0.360499
6563.95 0.593708
6565.74 0.954874
6567.52 1.48257
6569.31 2.22827
6571.09 3.26155
6572.88 4.67768
6574.66 6.60867
6576.45 9.24008
6578.24 12.8389
6580.02 17.7844
6581.81 24.6409
6583.59 34.2455
6585.38 47.8518
6587.16 67.3295
6588.95 95.3828
6590.73 135.573
6594.37 265.722
6598.00 398.918
6599.82 408.897
6601.64 377.162
6605.27 274.860
6607.48 222.174
6609.69 181.855
6614.11 128.748
6618.53 97.0198
6619.64 90.7936
6620.74 84.6191
6621.29 81.2051
6621.57 79.2495
6621.85 76.9485
6622.12 73.9692
6622.26 72.0195
6622.40 69.5158
6622.54 66.0715
6622.61 63.7808
6622.67 60.9289
6622.74 57.3746
6622.81 53.3688
6622.85 51.9344
6622.88 52.8516
6622.90 55.8879
6622.92 62.4117
6622.93 75.7369
6622.95 101.697
6622.96 135.353
6622.98 179.716
6623.00 285.673
6623.03 309.077
6623.05 263.267
6623.08 211.212
6623.11 178.009
6623.14 155.832
6623.16 141.439
6623.19 130.910
6623.22 123.422
6623.28 113.149
6623.33 106.369
6623.39 101.707
6623.50 95.5233
6623.62 91.5683
6623.73 88.8152
6623.96 85.0864
6624.18 82.5535
6624.41 80.6457
6624.86 77.7653
6625.77 73.6641
6626.67 70.5055
6628.49 65.4223
6630.30 61.2721
6637.54 49.5267
6644.79 42.0766
6652.03 36.9289
6666.52 30.3083
6681.01 26.2471
6695.50 23.5009
6709.99 21.5144
6724.48 20.0046
6728.11 19.6817
6731.73 19.3781
6735.35 19.1017
6737.16 19.0183
6738.07 19.1743
6738.30 19.3862
6738.52 19.9974
6738.64 20.8232
6738.75 23.0037
6738.81 25.7758
6738.86 32.3333
6738.89 40.0298
6738.92 55.5817
6738.93 70.2990
6738.95 95.1092
6738.96 140.085
6738.97 232.234
6738.99 355.803
6739.00 445.469
6739.01 356.333
6739.03 232.039
6739.03 170.783
6739.04 128.486
6739.05 100.466
6739.06 81.4456
6739.08 58.5387
6739.10 46.5691
6739.13 33.9808
6739.17 28.4293
6739.24 23.6092
6739.31 21.6697
6739.45 20.1458
6739.59 19.5684
6739.88 19.1189
6740.16 18.9415
6741.29 18.7019
6743.56 18.5001
6748.09 18.1835
6752.62 17.8934
6757.15 17.6205
6775.27 16.6616
6811.51 15.1753
6847.75 14.0079
6865.87 13.4786
6874.93 13.2177
6879.46 13.0877
6881.72 13.0263
6882.85 13.0123
6883.42 13.0731
6883.70 13.3621
6883.84 14.4296
6883.88 15.4385
6883.92 17.8487
6883.93 20.7080
6883.95 26.4074
6883.97 42.4599
6883.98 62.0736
6883.99 97.3104
6883.99 150.777
6884.00 181.954
6884.01 151.000
6884.01 97.5980
6884.02 65.4959
6884.03 45.9680
6884.05 29.4341
6884.06 22.6510
6884.08 19.3002
6884.11 16.2011
6884.14 14.9463
6884.26 13.5141
6884.50 13.0948
6884.99 12.9678
6885.96 12.9089
6887.91 12.8434
6891.80 12.7254
6899.58 12.4879
6915.15 11.9792
6930.72 11.3893
6946.28 10.6456
6961.85 9.59547
6969.63 8.85236
6977.42 7.84412
6981.31 7.18550
6985.20 6.37490
6989.09 5.35473
6992.98 4.04654
6996.88 2.37783
6998.82 1.44056
7000.77 0.592506
7001.74 0.335127
7002.23 0.300970
7002.71 0.367516
7003.20 0.578810
7003.69 0.997368
7004.17 1.71873
7004.66 2.88061
7005.15 4.70452
7005.63 7.52292
7006.12 11.8980
7006.61 18.7232
7007.09 29.5851
7007.58 47.1400
7008.06 76.0653
7008.55 123.792
7009.28 245.256
7010.00 372.003
7010.36 383.171
7010.73 355.109
7011.45 261.120
7012.21 184.282
7012.96 136.558
7013.72 106.796
7014.47 87.3058
7015.23 73.8766
7015.99 64.2054
7017.50 51.4118
7019.01 43.4606
7020.52 38.1030
7023.55 31.4129
7026.57 27.4400
7029.59 24.8225
7032.62 22.9718
7035.64 21.5948
7041.69 19.6814
7047.74 18.4116
7053.79 17.5035
7059.83 16.8186
7071.93 15.8460
7084.03 15.1795
7108.22 14.3026
7132.41 13.7311
7156.60 13.3150
7180.79 12.9902
7192.89 12.8515
7198.94 12.7877
7201.96 12.7603
7203.47 12.7611
7204.23 12.8182
7204.61 13.0640
7204.80 13.9761
7204.84 14.8310
7204.89 16.9766
7204.91 19.5964
7204.94 25.1812
7204.95 31.1545
7204.96 42.3698
7204.97 66.2324
7204.98 88.3603
7204.98 115.711
7204.99 177.557
7205.00 218.832
7205.01 177.664
7205.02 115.845
7205.02 84.0901
7205.03 63.5162
7205.04 42.4637
7205.05 31.9080
7205.06 26.0240
7205.08 19.9644
7205.11 17.3346
7205.15 15.0255
7205.20 14.0978
7205.38 13.1010
7205.73 12.8180
7206.45 12.7365
7207.89 12.7029
7210.76 12.6698
7216.50 12.6140
7227.99 12.5108
7239.48 12.4164
7245.22 12.3799
7248.10 12.3988
7248.81 12.4372
7249.53 12.5573
7249.89 12.7288
7250.25 13.2118
7250.43 13.8676
7250.61 15.6160
7250.70 17.8749
7250.74 19.9796
7250.79 23.4279
7250.83 30.0023
7250.86 35.8233
7250.88 44.4682
7250.90 59.5266
7250.92 85.6511
7250.95 137.552
7250.96 182.730
7250.97 249.132
7250.98 396.131
7251.00 486.744
7251.02 387.566
7251.03 249.926
7251.04 188.551
7251.05 145.217
7251.07 94.9818
7251.09 67.7145
7251.11 51.7132
7251.13 41.6527
7251.15 34.9609
7251.19 26.9371
7251.22 22.5149
7251.26 19.8296
7251.34 16.8781
7251.49 14.5160
7251.64 13.6104
7251.95 12.9215
7252.25 12.6663
7252.86 12.4738
7253.47 12.4012
7255.90 12.3144
7260.77 12.2600
7270.51 12.1859
7280.24 12.1195
7285.11 12.0903
7287.54 12.0868
7288.76 12.1292
7289.37 12.3216
7289.67 13.0438
7289.75 13.7288
7289.82 15.4662
7289.86 17.5512
7289.90 22.2714
7289.92 27.2096
7289.94 36.5505
7289.96 56.7490
7289.97 77.1859
7289.98 106.237
7289.99 162.847
7290.00 200.671
7290.01 163.047
7290.02 106.488
7290.04 65.9513
7290.05 45.2730
7290.08 27.6977
7290.11 20.9840
7290.14 17.7941
7290.19 14.9870
7290.25 13.8423
7290.47 12.5581
7290.91 12.1863
7291.80 12.0809
7293.58 12.0432
7297.14 12.0139
7304.26 11.9688
7318.50 11.8858
7332.74 11.8077
7339.86 11.7712
7343.42 11.7577
7345.20 11.7706
7346.09 11.8568
7346.53 12.2058
7346.75 13.4593
7346.81 14.6221
7346.87 17.3962
7346.89 20.6097
7346.92 27.4312
7346.95 45.5040
7346.96 66.9667
7346.98 105.101
7346.99 161.288
7347.00 198.886
7347.01 161.621
7347.02 105.517
7347.04 67.3470
7347.05 48.1084
7347.07 30.1125
7347.10 22.4188
7347.12 18.7849
7347.17 15.4057
7347.22 13.9989
7347.41 12.3827
7347.80 11.9089
7348.58 11.7752
7350.14 11.7322
7353.26 11.7070
7359.50 11.6744
7365.73 11.6499
7368.85 11.6636
7370.41 11.7769
7370.80 11.9006
7371.19 12.2517
7371.38 12.7299
7371.58 14.0251
7371.68 15.7208
7371.77 19.9765
7371.82 25.1329
7371.85 29.5528
7371.87 36.4849
7371.90 48.8334
7371.92 71.2125
7371.93 90.1762
7371.94 118.689
7371.96 162.929
7371.97 237.820
7371.98 369.862
7372.00 464.269
7372.02 370.639
7372.03 238.054
7372.04 168.511
7372.05 125.588
7372.07 96.9690
7372.08 77.4124
7372.10 53.6689
7372.12 40.5944
7372.14 32.4444
7372.17 27.4625
7372.21 21.6515
7372.30 16.6354
7372.39 14.6213
7372.57 13.0446
7372.74 12.4521
7373.10 12.0023
7373.45 11.8369
7374.87 11.6643
7377.72 11.6061
7383.40 11.5675
7394.77 11.5135
7417.51 11.4169
7440.25 11.3272
7451.61 11.2845
7457.30 11.2645
7460.14 11.2594
7461.56 11.2788
7462.27 11.3789
7462.63 11.7782
7462.72 12.1752
7462.81 13.2354
7462.85 14.6119
7462.89 17.9379
7462.92 21.7667
7462.94 29.9514
7462.95 37.9671
7462.96 51.9984
7462.97 78.8600
7462.98 103.932
7462.98 135.493
7462.99 209.164
7463.00 260.361
7463.01 209.661
7463.02 136.110
7463.03 90.7254
7463.03 64.8503
7463.05 39.3188
7463.07 28.2007
7463.08 22.5209
7463.12 17.1327
7463.15 14.8963
7463.21 13.0281
7463.28 12.3005
7463.54 11.5337
7464.06 11.3203
7465.10 11.2589
7467.17 11.2356
7471.33 11.2162
7479.64 11.1858
7496.26 11.1291
7529.50 11.0230
7562.74 10.9244
7579.36 10.8776
7587.67 10.8554
7591.82 10.8484
7593.90 10.8634
7594.94 10.9484
7595.46 11.2955
7595.59 11.6447
7595.72 12.5895
7595.78 13.8160
7595.85 16.9211
7595.88 20.7177
7595.91 29.0064
7595.93 37.5312
7595.95 53.3377
7595.96 86.4821
7595.97 117.027
7595.98 169.915
7595.99 262.051
7596.00 329.763
7596.01 262.675
7596.02 170.679
7596.03 122.616
7596.04 90.2677
7596.05 55.2655
7596.07 38.6761
7596.08 30.1970
7596.12 21.4992
7596.15 17.5574
7596.21 14.2039
7596.27 12.8552
7596.40 11.7931
7596.52 11.3964
7597.02 10.9855
7598.01 10.8712
7600.00 10.8352
7600.00 20.6465
8000.00 20.2805
9000.00 19.4734
10000.0 18.7892
12500.0 17.4489
15000.0 16.4537
17000.0 15.8177
20000.0 15.0442
20000.0 15.0442
20000.0 15.0442
25000.0 14.0697
30000.0 13.3403
35000.0 12.7655
40000.0 12.2954
50000.0 11.5612
60000.0 11.0033
70000.0 10.5572
80000.0 10.1876
90000.0 9.87318
100000 9.60044
125000 9.04672
150000 8.61627
170000 8.33151
200000 7.97465
250000 7.50927
300000 7.15213
350000 6.86843
400000 6.63780
456000 6.42692
456970 6.42326
456970 6.42329
456997 6.42332
456998 6.42332
500000 6.47466
600000 6.62710
693000 6.76887
693000 6.76887
700000 6.77954
800000 6.91901
900000 7.03077
921829 7.04870
921829 7.04870
1.00000E+06 7.11293
1.05038E+06 7.13724
1.05038E+06 7.13724
1.10000E+06 7.16119
1.19773E+06 7.19255
1.19773E+06 7.19254
1.20000E+06 7.19328
1.30000E+06 7.20418
1.31221E+06 7.20325
1.38627E+06 7.19763
1.38627E+06 7.19764
1.40000E+06 7.19659
1.48077E+06 7.17233
1.48077E+06 7.17234
1.50000E+06 7.16655
1.52819E+06 7.15808
1.52819E+06 7.15808
1.60000E+06 7.13651
1.61378E+06 7.12945
1.70000E+06 7.08531
1.70883E+06 7.08078
1.70883E+06 7.08078
1.75716E+06 7.05604
1.75716E+06 7.05603
1.78193E+06 7.04335
1.78194E+06 7.04335
1.78949E+06 7.03948
1.78949E+06 7.03948
1.79241E+06 7.03799
1.79241E+06 7.03799
1.79976E+06 7.03423
1.79976E+06 7.03423
1.80000E+06 7.03410
1.82453E+06 7.01810
1.82453E+06 7.01810
1.84668E+06 7.00364
1.84668E+06 7.00364
1.89773E+06 6.97032
1.89773E+06 6.97032
1.90000E+06 6.96884
1.91857E+06 6.95672
1.91857E+06 6.95672
1.93217E+06 6.94785
1.93217E+06 6.94785
1.99161E+06 6.90906
1.99161E+06 6.90905
2.00000E+06 6.90358
2.00305E+06 6.90126
2.00305E+06 6.90126
2.50000E+06 6.52328
3.00000E+06 6.12523
3.41142E+06 5.79770
3.42374E+06 5.78789
3.44671E+06 5.76960
3.49921E+06 5.72781
3.50000E+06 5.72718
3.51300E+06 5.71786
3.54586E+06 5.69431
4.00000E+06 5.36879
5.00000E+06 4.83014
6.00000E+06 4.56838
6.02839E+06 4.56704
7.00000E+06 4.52126
7.60000E+06 4.55369
7.61730E+06 4.55463
7.61730E+06 4.55463
7.70000E+06 4.55910
8.00000E+06 4.58885
8.64837E+06 4.65316
9.00000E+06 4.68803
1.00000E+07 4.79894
1.10000E+07 4.90986
1.20000E+07 5.00505
1.30000E+07 5.07766
1.34131E+07 5.09581
1.40000E+07 5.12160
1.45000E+07 5.12799
1.50000E+07 5.13438
1.56434E+07 5.12299
1.60000E+07 5.11667
1.70000E+07 5.07179
1.80000E+07 5.00483
1.90000E+07 4.92168
2.00000E+07 4.82810