Eu-151(n,tot) ENDF/B-VII.1
Energy(eV) XS(b)
1.00000E-05 679337
1.30871E-05 593802
1.50000E-05 554631
1.61743E-05 534108
2.00000E-05 480285
2.23486E-05 454331
2.75000E-05 409538
2.85229E-05 402120
3.16101E-05 381960
3.46972E-05 364554
3.50000E-05 362972
3.57529E-05 359125
3.65057E-05 355398
3.80115E-05 348279
4.10230E-05 335235
4.70459E-05 313011
5.00000E-05 303609
5.93945E-05 278521
7.17431E-05 253369
7.50000E-05 247793
8.40917E-05 233979
0.000100000 214506
0.000108789 205629
0.000133486 185559
0.000150000 174999
0.000158183 170389
0.000179092 160079
0.000200000 151428
0.000207578 148620
0.000232276 140439
0.000256973 133465
0.000275000 128978
0.000306367 122134
0.000350000 114185
0.000405156 106032
0.000500000 95297.3
0.000503945 94917.3
0.000516294 93756.2
0.000528642 92635.8
0.000553340 90507.9
0.000602734 86649.3
0.000750000 77489.0
0.000800313 74951.5
0.000997891 66904.0
0.00100000 66831.1
0.00100611 66621.2
0.00101222 66413.2
0.00102443 66002.7
0.00104887 65203.1
0.00109774 63683.9
0.00119547 60926.9
0.00150000 54119.7
0.00159062 52477.1
0.00178820 49332.7
0.00198578 46662.6
0.00200000 46485.5
0.00204762 45906.0
0.00209524 45345.9
0.00219047 44280.0
0.00238094 42339.7
0.00275000 39159.2
0.00317125 36216.0
0.00350000 34289.2
0.00396156 31989.2
0.00475187 28837.2
0.00500000 28000.4
0.00566625 26022.6
0.00633250 24354.7
0.00750000 21967.5
0.00791312 21247.2
0.00949375 18922.8
0.0100000 18292.9
0.0113275 16838.6
0.0126550 15610.8
0.0150000 13841.2
0.0158162 13316.8
0.0189775 11609.0
0.0200000 11144.1
0.0221387 10277.5
0.0253000 9205.45
0.0295458 8053.50
0.0337915 7137.74
0.0376500 6455.02
0.0380373 6392.93
0.0390988 6228.12
0.0401602 6070.76
0.0422831 5776.57
0.0500000 4895.81
0.0507746 4820.89
0.0528975 4626.08
0.0550204 4445.46
0.0592662 4121.67
0.0677577 3595.36
0.0750000 3244.33
0.0762493 3191.10
0.0804951 3024.02
0.0847408 2876.11
0.0932324 2628.37
0.100000 2468.71
0.101724 2432.59
0.105970 2350.67
0.110215 2277.92
0.127198 2062.56
0.144182 1941.58
0.150000 1917.62
0.161165 1893.66
0.169657 1893.81
0.178148 1909.47
0.186640 1940.89
0.195131 1988.86
0.200000 2024.38
0.212114 2141.03
0.220605 2250.52
0.229097 2387.68
0.237588 2558.36
0.246080 2770.56
0.254572 3034.83
0.263063 3364.81
0.271555 3777.09
0.280046 4288.52
0.281210 4367.08
0.285165 4649.45
0.289120 4954.78
0.297029 5619.68
0.308515 6583.20
0.314257 6960.93
0.320000 7203.03
0.321000 7229.21
0.322420 7258.13
0.322420 7258.13
0.322420 7258.14
0.322421 7258.15
0.322421 7258.16
0.322423 7258.18
0.322425 7258.22
0.322430 7258.29
0.322439 7258.45
0.322458 7258.77
0.322495 7259.40
0.322570 7260.63
0.322720 7263.02
0.323020 7267.48
0.323619 7275.15
0.324818 7285.59
0.327217 7288.00
0.332013 7231.00
0.341605 6993.23
0.351198 6810.18
0.355994 6794.60
0.360790 6844.78
0.367440 7033.80
0.374090 7371.10
0.380740 7867.44
0.387390 8537.32
0.394040 9400.76
0.400690 10483.3
0.407340 11813.9
0.413990 13419.7
0.413990 13419.8
0.413991 13420.0
0.413991 13420.1
0.413992 13420.4
0.413994 13420.9
0.413999 13422.1
0.414007 13424.3
0.414024 13428.8
0.414058 13437.8
0.414126 13455.7
0.414263 13491.8
0.414535 13564.2
0.415080 13710.6
0.416170 14009.1
0.418909 14793.9
0.421649 15626.7
0.427128 17422.4
0.438085 21297.7
0.449043 24616.1
0.454521 25558.6
0.460000 25781.1
0.465000 25305.5
0.470000 24239.5
0.480000 20912.5
0.500000 13584.9
0.503830 12420.6
0.517705 9020.63
0.531580 6682.92
0.531580 6682.89
0.531581 6682.81
0.531581 6682.72
0.531583 6682.56
0.531585 6682.24
0.531589 6681.60
0.531599 6680.33
0.531617 6677.78
0.531654 6672.68
0.531728 6662.51
0.531875 6642.23
0.532170 6601.89
0.532760 6522.19
0.533939 6366.56
0.536298 6069.80
0.541016 5529.67
0.550453 4630.53
0.569325 3357.44
0.588198 2531.42
0.607070 1972.19
0.644815 1294.81
0.682560 922.895
0.682560 922.893
0.682561 922.889
0.682561 922.885
0.682562 922.877
0.682564 922.861
0.682569 922.830
0.682577 922.767
0.682594 922.642
0.682628 922.390
0.682696 921.888
0.682831 920.885
0.683102 918.884
0.683644 914.905
0.684728 907.035
0.686895 891.641
0.691230 862.176
0.699899 808.143
0.717238 716.898
0.751915 585.509
0.814168 462.839
0.876420 450.984
0.876420 450.984
0.876421 450.985
0.876421 450.985
0.876422 450.986
0.876424 450.987
0.876428 450.990
0.876435 450.996
0.876450 451.009
0.876481 451.033
0.876541 451.082
0.876662 451.181
0.876903 451.381
0.877386 451.786
0.878351 452.626
0.880282 454.418
0.884144 458.470
0.891868 468.580
0.907315 498.159
0.938210 611.585
0.969105 861.482
0.984553 1087.30
1.00000 1431.41
1.01090 1773.63
1.02193 2214.58
1.03295 2716.68
1.05500 3325.83
1.07705 2657.78
1.09910 1686.72
1.12540 984.490
1.12540 984.453
1.12541 984.361
1.12541 984.268
1.12542 984.102
1.12544 983.751
1.12548 983.049
1.12555 981.665
1.12570 978.888
1.12601 973.367
1.12661 962.475
1.12782 941.188
1.13023 900.606
1.13506 826.707
1.14471 703.618
1.16401 528.957
1.20263 337.056
1.24124 240.699
1.27985 185.510
1.35708 127.390
1.43430 98.8901
1.44500 96.1673
1.44500 96.1668
1.44501 96.1656
1.44501 96.1643
1.44502 96.1619
1.44504 96.1570
1.44508 96.1473
1.44516 96.1280
1.44532 96.0896
1.44564 96.0126
1.44627 95.8591
1.44754 95.5545
1.45007 94.9547
1.45514 93.7907
1.46528 91.5999
1.48556 87.7295
1.52613 81.8196
1.60725 77.0825
1.68838 88.8892
1.72894 114.800
1.74922 142.382
1.76950 189.343
1.79225 269.445
1.81500 321.644
1.83520 275.214
1.85540 199.295
1.85540 199.289
1.85541 199.272
1.85541 199.255
1.85542 199.222
1.85544 199.155
1.85548 199.021
1.85556 198.754
1.85572 198.225
1.85604 197.168
1.85668 195.076
1.85795 190.969
1.86050 183.081
1.86922 159.315
1.87794 140.148
1.89538 112.585
1.93025 82.9341
1.96513 68.9509
2.00000 61.5499
2.09560 53.9215
2.19120 53.7238
2.28680 58.1650
2.38240 68.9804
2.38240 68.9808
2.38241 68.9816
2.38241 68.9822
2.38242 68.9837
2.38244 68.9867
2.38247 68.9925
2.38254 69.0040
2.38268 69.0271
2.38296 69.0736
2.38353 69.1669
2.38465 69.3547
2.38689 69.7358
2.39139 70.5207
2.40037 72.1866
2.41834 75.9504
2.45428 85.7032
2.52615 121.626
2.56209 157.556
2.59803 223.218
2.63396 360.019
2.65193 486.071
2.66990 681.181
2.68168 855.544
2.69345 1054.46
2.71700 1303.03
2.74055 1057.18
2.76410 689.290
2.78253 495.408
2.80096 373.826
2.83783 249.388
2.87469 197.775
2.91155 177.574
2.98528 182.432
3.05900 232.052
3.05900 232.055
3.05901 232.063
3.05902 232.071
3.05903 232.088
3.05907 232.121
3.05913 232.187
3.05926 232.319
3.05951 232.584
3.06002 233.116
3.06104 234.189
3.06309 236.372
3.06717 240.894
3.07534 250.595
3.09168 272.915
3.12435 332.445
3.15703 421.270
3.18970 559.646
3.22238 789.114
3.25505 1203.23
3.27139 1541.93
3.28773 2034.02
3.30406 2764.96
3.32040 3849.30
3.34420 6111.30
3.36800 7608.68
3.39180 6093.31
3.41560 3838.90
3.43106 2814.93
3.44653 2115.73
3.47745 1316.98
3.50838 933.991
3.53930 754.674
3.57023 703.664
3.60115 775.858
3.63208 1039.14
3.64754 1297.85
3.66300 1691.50
3.67475 2097.34
3.68650 2565.50
3.71000 3149.12
3.72175 2966.67
3.73350 2537.33
3.75700 1625.38
3.77836 1077.79
3.79973 751.356
3.82109 552.523
3.84245 425.210
3.88518 279.058
3.92790 201.550
3.92790 201.547
3.92791 201.537
3.92791 201.529
3.92793 201.513
3.92795 201.479
3.92800 201.411
3.92810 201.274
3.92830 201.004
3.92870 200.463
3.92950 199.391
3.93109 197.275
3.93428 193.160
3.94066 185.369
3.95342 171.357
3.97893 148.386
4.02996 116.147
4.13203 80.2478
4.23409 61.8020
4.33615 51.7272
4.43821 47.2200
4.54028 49.3366
4.59131 55.5125
4.64234 70.7376
4.66785 86.0388
4.69337 112.522
4.71889 161.462
4.74440 255.564
4.76720 391.404
4.79000 482.407
4.81280 392.121
4.83560 256.181
4.85615 175.500
4.87670 127.682
4.89725 98.9022
4.91780 80.8214
4.95890 60.9603
5.00000 51.5762
5.04350 47.1294
5.04350 47.1293
5.04351 47.1290
5.04351 47.1288
5.04352 47.1283
5.04354 47.1273
5.04357 47.1253
5.04364 47.1214
5.04378 47.1134
5.04405 47.0977
5.04461 47.0667
5.04571 47.0063
5.04791 46.8919
5.05233 46.6884
5.06115 46.3793
5.07880 46.1374
5.11410 47.1400
5.18470 56.7794
5.22000 68.4282
5.25530 90.1663
5.29060 133.731
5.30825 171.483
5.32590 226.597
5.35295 347.020
5.38000 427.458
5.40705 347.328
5.43410 227.179
5.46509 142.546
5.49608 99.3381
5.52706 76.4932
5.55805 63.8047
5.62003 52.9676
5.68200 52.4437
5.74398 60.6451
5.80595 84.1424
5.83694 108.603
5.86793 152.179
5.89891 236.285
5.92990 408.296
5.95495 639.105
5.98000 793.137
6.00510 639.205
6.03020 408.152
6.05806 248.496
6.08593 164.590
6.11379 118.578
6.14165 91.5050
6.19738 63.3850
6.25310 50.4245
6.36455 40.7340
6.47600 39.7496
6.47600 39.7496
6.47601 39.7497
6.47601 39.7498
6.47602 39.7499
6.47603 39.7501
6.47607 39.7506
6.47613 39.7515
6.47626 39.7535
6.47652 39.7573
6.47703 39.7651
6.47807 39.7809
6.48013 39.8138
6.48426 39.8844
6.49252 40.0444
6.50903 40.4397
6.54206 41.5298
6.60813 44.9672
6.74025 58.5017
6.80631 70.7840
6.87238 90.3172
6.93844 125.284
6.97147 156.233
7.00450 208.854
7.02725 264.481
7.05000 315.451
7.09550 348.703
7.13290 445.531
7.15160 536.149
7.17030 668.799
7.18900 865.998
7.20770 1168.71
7.22640 1649.87
7.24510 2422.83
7.26755 3801.56
7.29000 4751.60
7.31245 3958.33
7.33490 2782.94
7.35035 2313.33
7.36580 2134.86
7.38125 2227.24
7.39670 2606.96
7.40753 3053.02
7.41835 3601.68
7.44000 4287.24
7.45083 4026.68
7.46165 3447.51
7.48330 2223.10
7.50930 1314.03
7.53530 846.064
7.56130 589.743
7.58730 436.717
7.63930 271.424
7.69130 188.357
7.74330 140.464
7.79530 110.209
7.89930 75.4492
8.00330 57.0586
8.10730 46.3911
8.31530 36.4468
8.31530 36.4468
8.31531 36.4467
8.31531 36.4465
8.31532 36.4463
8.31534 36.4458
8.31539 36.4448
8.31547 36.4428
8.31564 36.4389
8.31599 36.4310
8.31667 36.4152
8.31804 36.3841
8.32079 36.3229
8.32627 36.2051
8.33724 35.9878
8.35918 35.6259
8.40306 35.1954
8.49083 35.6023
8.57859 38.1808
8.66635 44.3380
8.75411 57.8337
8.79800 70.3010
8.84188 90.5143
8.88576 125.761
8.92964 193.915
8.95158 253.506
8.97352 345.726
8.99546 493.969
9.01740 734.701
9.04370 1166.19
9.07000 1455.06
9.09630 1169.32
9.12260 738.519
9.15002 453.217
9.17744 297.049
9.20486 208.619
9.23228 155.257
9.28711 98.0360
9.34195 70.1347
9.39679 54.7133
9.45163 45.4698
9.56130 35.9420
9.67098 32.3456
9.78065 32.2187
9.89033 35.3321
10.0000 43.2178
10.1058 60.1592
10.1586 76.0818
10.2115 102.589
10.2644 150.982
10.2908 191.435
10.3173 252.277
10.3437 349.090
10.3701 513.918
10.3834 641.198
10.3966 816.612
10.4098 1061.12
10.4230 1399.46
10.4465 2241.55
10.4700 2811.33
10.4935 2255.09
10.5170 1417.63
10.5370 944.115
10.5570 656.015
10.5770 478.744
10.5970 365.451
10.6370 238.589
10.6770 176.959
10.6770 176.938
10.6771 176.874
10.6771 176.821
10.6772 176.715
10.6774 176.493
10.6779 176.052
10.6787 175.180
10.6804 173.484
10.6837 170.245
10.6904 164.336
10.7038 154.643
10.7305 142.616
10.7840 146.151
10.8108 165.961
10.8375 207.474
10.8643 289.740
10.8910 450.572
10.9155 689.010
10.9400 848.550
10.9645 688.480
10.9890 445.444
11.0077 317.428
11.0264 234.307
11.0451 180.089
11.0638 143.631
11.1011 99.8452
11.1385 75.7942
11.2133 51.6526
11.2880 40.3618
11.4375 30.8837
11.5870 28.5454
11.7365 30.9582
11.8113 34.6256
11.8860 41.3601
11.9608 54.3113
11.9981 65.5357
12.0355 83.0710
12.0729 112.708
12.1103 168.528
12.1289 216.641
12.1476 290.528
12.1663 408.685
12.1850 600.132
12.2075 946.794
12.2300 1182.13
12.2525 955.078
12.2750 615.825
12.2950 420.578
12.3150 307.365
12.3350 242.208
12.3550 204.841
12.3950 176.247
12.4350 186.552
12.4750 235.483
12.4950 281.646
12.5150 351.730
12.5350 460.215
12.5550 633.913
12.5750 922.455
12.5950 1406.73
12.6175 2230.47
12.6400 2783.38
12.6625 2250.23
12.6850 1429.39
12.6993 1055.47
12.7137 794.401
12.7423 485.260
12.7710 324.587
12.7996 232.992
12.8283 176.446
12.8569 139.304
12.9143 95.2411
12.9716 71.2157
13.0289 56.8263
13.1435 41.7934
13.2581 36.1534
13.3728 37.9813
13.4301 43.7262
13.4874 57.4185
13.5160 70.6990
13.5447 92.8242
13.5734 131.603
13.6020 201.174
13.6310 312.025
13.6600 387.320
13.6850 330.030
13.7100 230.545
13.7100 230.472
13.7101 230.220
13.7101 230.004
13.7103 229.572
13.7105 228.674
13.7110 226.888
13.7120 223.356
13.7140 216.451
13.7180 203.323
13.7337 160.031
13.7493 128.249
13.7807 88.0703
13.8120 65.6964
13.8434 52.3724
13.9060 38.3577
13.9687 31.8681
14.0941 27.4237
14.2194 28.5855
14.3448 35.3993
14.4074 42.6765
14.4701 55.3871
14.5328 79.7381
14.5641 101.048
14.5955 134.655
14.6268 191.930
14.6581 300.209
14.6738 393.221
14.6895 535.012
14.7051 758.841
14.7208 1114.80
14.7404 1776.22
14.7600 2222.55
14.7796 1789.69
14.7992 1134.33
14.8205 689.186
14.8417 453.003
14.8630 323.744
14.8842 249.180
14.9267 178.616
14.9692 160.624
15.0117 179.568
15.0542 251.930
15.0755 327.990
15.0967 459.019
15.1073 559.445
15.1180 695.848
15.1286 882.591
15.1392 1135.40
15.1494 1448.79
15.1596 1809.52
15.1800 2271.15
15.1902 2146.78
15.2004 1835.08
15.2208 1164.40
15.2394 759.528
15.2580 519.626
15.2766 374.710
15.2953 282.865
15.3325 179.214
15.3697 125.704
15.4069 94.5845
15.4441 74.8707
15.5186 52.0965
15.5930 39.8088
15.6675 32.3532
15.8164 24.0376
15.9652 19.7012
16.1141 17.1694
16.4119 14.6801
16.7097 14.1451
17.0075 15.6947
17.1563 18.1302
17.3052 23.6657
17.3797 29.2573
17.4541 39.4428
17.5286 60.8542
17.5658 81.5513
17.6030 117.533
17.6030 117.559
17.6031 117.623
17.6031 117.688
17.6032 117.805
17.6034 118.039
17.6038 118.522
17.6045 119.498
17.6060 121.475
17.6089 125.587
17.6148 134.506
17.6266 155.531
17.6501 215.596
17.6737 315.045
17.6854 388.150
17.6972 482.440
17.7104 615.775
17.7236 768.814
17.7500 963.734
17.7632 910.766
17.7764 778.737
17.8028 495.151
17.8220 352.247
17.8412 258.185
17.8604 196.197
17.8796 154.297
17.9180 104.111
17.9563 76.9750
17.9947 60.9772
18.0331 50.9507
18.1099 40.0582
18.1866 35.3188
18.2634 33.8221
18.4169 37.2858
18.5704 50.7347
18.6472 64.4065
18.7240 87.6883
18.8007 130.725
18.8391 166.888
18.8775 221.416
18.9159 308.229
18.9542 455.913
18.9734 569.758
18.9926 726.347
19.0118 944.058
19.0310 1244.74
19.0655 2001.06
19.1000 2515.25
19.1345 2018.46
19.1690 1266.36
19.1950 879.193
19.2209 628.819
19.2469 466.247
19.2729 357.528
19.3248 228.468
19.3768 158.928
19.4287 117.612
19.4806 91.1957
19.5845 60.6813
19.6884 44.4204
19.7923 34.7531
20.0000 24.3552
20.2060 19.3144
20.4121 16.6740
20.6181 15.4672
20.8241 15.4982
21.0301 17.3091
21.1331 19.5085
21.2362 23.5668
21.3392 31.7543
21.3907 39.2544
21.4422 51.6529
21.4937 74.3213
21.5194 93.4065
21.5452 122.421
21.5710 169.362
21.5967 251.326
21.6096 316.296
21.6225 407.885
21.6353 539.232
21.6482 726.400
21.6691 1155.54
21.6900 1444.76
21.7109 1164.58
21.7318 738.950
21.7457 540.434
21.7596 405.188
21.7873 249.885
21.8151 172.574
21.8428 130.799
21.8983 93.9535
21.9538 86.7769
22.0093 101.471
22.0371 120.530
22.0648 153.822
22.0926 213.789
22.1064 261.979
22.1203 331.017
22.1342 433.506
22.1481 591.297
22.1619 843.173
22.1758 1247.88
22.1929 1993.09
22.2100 2499.90
22.2186 2361.64
22.2271 2017.48
22.2442 1278.06
22.2554 935.301
22.2666 699.898
22.2891 426.162
22.3115 286.660
22.3339 208.493
22.3563 161.124
22.3788 130.781
22.4236 96.9790
22.4685 82.2032
22.5133 79.0751
22.5582 87.3061
22.6030 113.840
22.6030 113.858
22.6031 113.904
22.6031 113.951
22.6032 114.043
22.6034 114.229
22.6038 114.602
22.6046 115.359
22.6062 116.901
22.6094 120.148
22.6157 127.343
22.6285 145.104
22.6539 200.671
22.6794 305.166
22.6921 390.364
22.7048 508.852
22.7161 646.292
22.7274 804.517
22.7500 1007.01
22.7613 952.432
22.7726 815.642
22.7952 521.267
22.8223 304.491
22.8493 194.867
22.8764 136.130
22.9035 101.866
22.9576 65.9708
23.0117 48.6046
23.0658 38.8968
23.1199 32.9348
23.2282 26.3964
23.4447 22.0667
23.6612 23.1372
23.8776 29.9591
23.9859 37.6088
24.0941 51.5733
24.1483 63.0200
24.2024 79.8352
24.2565 105.787
24.2836 124.326
24.3106 148.569
24.3377 181.039
24.3647 225.780
24.3918 289.572
24.4189 384.353
24.4459 532.378
24.4730 777.544
24.4865 961.765
24.5000 1209.51
24.5136 1545.07
24.5271 1995.82
24.5536 3212.33
24.5800 4044.91
24.6065 3264.67
24.6329 2061.70
24.6636 1195.51
24.6943 749.598
24.7250 508.431
24.7557 367.454
24.7864 279.222
24.8171 220.939
24.8785 152.542
24.9399 118.180
25.0013 104.879
25.0320 106.879
25.0627 118.784
25.0934 150.561
25.1241 226.698
25.1471 326.928
25.1700 393.800
25.1930 323.604
25.2159 218.963
25.2371 155.312
25.2583 117.710
25.3007 80.7886
25.3431 65.3328
25.3856 59.1486
25.4280 59.3464
25.4704 67.7711
25.4916 77.5852
25.5128 94.5951
25.5340 124.615
25.5552 177.712
25.5776 264.990
25.6000 323.519
25.6224 264.754
25.6448 176.235
25.6609 132.038
25.6771 102.773
25.7093 70.1061
25.7416 54.0667
25.7738 45.2482
25.8383 36.6527
25.9028 33.1422
26.0318 32.2873
26.1608 37.1020
26.2898 50.6966
26.3543 64.4708
26.4188 88.5038
26.4833 134.841
26.5156 175.562
26.5478 239.823
26.5801 348.840
26.6123 552.369
26.6284 724.411
26.6446 981.817
26.6607 1378.59
26.6768 1991.47
26.6984 3196.19
26.7200 4013.88
26.7416 3231.19
26.7632 2035.38
26.7825 1326.49
26.8018 903.216
26.8211 646.261
26.8405 483.085
26.8791 299.159
26.9177 204.964
26.9563 150.919
26.9950 117.352
27.0722 80.3420
27.1495 63.3053
27.2267 58.8213
27.2653 62.5094
27.3040 74.1398
27.3426 104.135
27.3619 134.216
27.3812 182.901
27.4056 275.412
27.4300 338.650
27.4544 277.613
27.4788 184.008
27.4965 136.718
27.5142 105.325
27.5496 70.1430
27.5849 52.6641
27.6203 42.8839
27.6911 32.9976
27.7618 28.6939
27.8326 27.3916
27.9033 29.4794
27.9387 33.0418
27.9741 40.5915
28.0094 57.7550
28.0271 74.2793
28.0448 100.528
28.0674 150.443
28.0900 184.407
28.1126 151.810
28.1352 101.943
28.1630 64.6329
28.1907 46.1016
28.2184 36.3177
28.2462 30.6954
28.3017 24.9738
28.3572 22.4345
28.4681 20.9491
28.5791 21.9138
28.6901 25.2207
28.8011 32.6111
28.8565 39.3376
28.9120 50.0510
28.9675 68.3303
29.0230 102.837
29.0230 102.854
29.0231 102.898
29.0231 102.933
29.0232 103.003
29.0233 103.143
29.0237 103.424
29.0243 103.991
29.0256 105.148
29.0282 107.516
29.0333 112.532
29.0436 123.774
29.0642 152.433
29.0848 193.002
29.1054 252.733
29.1260 344.906
29.1466 495.110
29.1672 753.916
29.1878 1211.46
29.2089 1942.64
29.2300 2439.83
29.2511 1966.80
29.2722 1241.84
29.2863 900.504
29.3004 667.789
29.3286 399.504
29.3568 263.952
29.3850 188.195
29.4132 142.147
29.4414 112.316
29.4979 77.6321
29.5543 59.4039
29.6107 49.1398
29.7235 40.6726
29.8363 42.9047
29.8927 48.9601
29.9492 61.0823
30.0056 85.4861
30.0338 106.920
30.0620 140.209
30.0902 195.049
30.1184 292.382
30.1325 370.452
30.1466 481.466
30.1607 642.006
30.1748 873.198
30.1974 1401.88
30.2200 1766.18
30.2313 1671.28
30.2426 1429.66
30.2652 907.810
30.2807 656.694
30.2961 486.729
30.3116 371.934
30.3271 292.728
30.3580 195.629
30.3890 141.727
30.4199 109.211
30.4508 88.4029
30.5127 65.2830
30.5746 55.7310
30.6365 56.6625
30.6674 62.8676
30.6983 76.6377
30.7293 105.914
30.7602 168.654
30.7851 254.426
30.8100 312.902
30.8349 256.218
30.8598 169.503
30.8811 119.650
30.9024 89.0163
30.9236 69.9378
30.9449 57.5648
30.9874 43.3219
31.0300 35.9590
31.1151 29.6937
31.2002 28.9683
31.2852 33.0979
31.3278 38.1065
31.3703 46.8791
31.4129 62.9108
31.4554 94.9596
31.4767 123.587
31.4980 168.622
31.5192 242.381
31.5405 364.739
31.5529 465.339
31.5653 581.016
31.5900 729.802
31.6148 591.940
31.6395 378.091
31.6680 224.445
31.6965 144.748
31.7250 101.313
31.7536 75.7124
31.7821 59.5236
31.8106 48.6870
31.8676 35.5392
31.9246 28.1452
31.9817 23.5498
32.0957 18.3049
32.2098 15.4822
32.3238 13.7605
32.5519 11.8534
32.7800 11.0140
33.0081 11.1193
33.1222 11.9077
33.2362 14.2761
33.2932 17.1706
33.3503 23.5121
33.3788 29.8110
33.4073 40.9406
33.4358 62.4691
33.4501 80.7122
33.4643 106.912
33.4872 166.641
33.5100 207.385
33.5329 168.859
33.5557 109.693
33.5708 82.0444
33.5860 63.1145
33.6163 41.2160
33.6465 30.1084
33.6768 23.8905
33.7373 17.6813
33.7979 14.8899
33.9190 12.7711
34.0401 12.4637
34.1611 13.2672
34.2822 15.7319
34.3428 18.4119
34.4033 23.7589
34.4336 28.7914
34.4639 37.4790
34.4941 54.2104
34.5244 89.4359
34.5472 134.360
34.5700 165.320
34.5929 137.912
34.6157 95.5260
34.6399 67.7890
34.6641 53.8193
34.7126 44.7989
34.7610 47.3032
34.8094 58.1153
34.8578 81.1136
34.8820 100.861
34.9063 130.571
34.9305 177.344
34.9547 255.192
34.9668 313.909
34.9789 392.993
34.9910 500.454
35.0031 645.012
35.0266 1031.69
35.0500 1294.94
35.0735 1045.03
35.0969 661.696
35.1118 488.867
35.1267 368.616
35.1564 226.541
35.1862 152.954
35.2159 111.194
35.2456 85.5828
35.2754 68.9168
35.3349 49.5849
35.3944 39.6339
35.4539 34.3634
35.5729 31.4753
35.6918 36.8270
35.7513 44.1483
35.8108 57.6871
35.8703 84.3661
35.9001 107.911
35.9298 145.006
35.9596 207.675
35.9744 256.106
35.9893 323.633
36.0042 420.764
36.0191 564.741
36.0339 783.905
36.0488 1118.11
36.0694 1794.37
36.0900 2256.04
36.1106 1819.50
36.1312 1149.65
36.1443 847.879
36.1573 637.860
36.1835 389.895
36.2096 261.458
36.2358 188.532
36.2619 143.753
36.2880 114.558
36.3403 80.5246
36.3926 62.7536
36.4449 53.0176
36.5494 46.2615
36.6540 52.0512
36.7062 61.4015
36.7585 78.9871
36.8108 113.383
36.8369 143.213
36.8631 189.215
36.8892 264.500
36.9153 397.238
36.9284 503.021
36.9415 652.835
36.9545 868.333
36.9676 1176.61
36.9888 1887.45
37.0100 2373.38
37.0312 1915.20
37.0524 1211.29
37.0658 894.671
37.0792 674.215
37.1061 413.487
37.1329 278.160
37.1597 201.255
37.1865 154.031
37.2134 123.286
37.2670 87.6460
37.2670 87.6367
37.2671 87.6091
37.2671 87.5815
37.2672 87.5309
37.2675 87.4253
37.2679 87.2197
37.2688 86.8073
37.2707 85.9962
37.2743 84.4277
37.2816 81.4968
37.2961 76.3565
37.3252 68.4595
37.3834 59.5527
37.4416 57.4850
37.4998 62.2236
37.5580 77.4398
37.5870 92.2128
37.6161 115.885
37.6452 155.461
37.6743 225.985
37.6889 282.408
37.7034 362.315
37.7180 477.281
37.7325 641.574
37.7563 1022.77
37.7800 1283.66
37.8038 1037.98
37.8275 659.807
37.8482 439.230
37.8690 305.566
37.8897 223.345
37.9104 170.604
37.9519 110.404
37.9933 79.0627
38.0348 60.7884
38.0762 49.2181
38.1591 35.9440
38.2420 28.9452
38.3249 24.9070
38.4907 21.2269
38.6565 21.1961
38.8223 25.6828
38.9052 31.6802
38.9881 44.5541
39.0296 57.1569
39.0710 79.7958
39.0917 98.6826
39.1125 127.171
39.1228 147.078
39.1332 172.396
39.1435 204.806
39.1539 246.062
39.1654 303.434
39.1770 369.334
39.2000 462.508
39.2231 418.377
39.2461 351.749
39.2668 347.680
39.2875 409.035
39.2978 470.655
39.3081 560.326
39.3185 686.762
39.3288 859.745
39.3494 1342.96
39.3700 1673.74
39.3803 1581.50
39.3906 1353.24
39.4112 862.337
39.4265 610.125
39.4418 444.912
39.4570 336.308
39.4723 263.027
39.5029 175.102
39.5334 127.308
39.5640 98.9400
39.5945 81.0832
39.6556 62.0515
39.7167 55.9397
39.7778 61.9570
39.8084 73.1606
39.8389 96.9537
39.8695 150.573
39.8847 201.680
39.9000 282.117
39.9100 354.825
39.9200 438.635
39.9400 546.778
39.9600 447.262
39.9800 292.110
40.0005 189.271
40.0211 131.931
40.0416 98.9635
40.0621 78.8238
40.1032 56.9658
40.1442 46.2469
40.2263 37.1036
40.3085 34.4087
40.4727 37.0399
40.6369 48.4868
40.7190 59.2280
40.8011 75.8865
40.8832 102.826
40.9654 149.492
41.0064 186.442
41.0475 239.261
41.0885 318.097
41.1296 442.382
41.1706 652.935
41.2117 1044.52
41.2322 1374.02
41.2528 1864.99
41.2733 2616.60
41.2938 3769.32
41.3219 6084.18
41.3500 7675.68
41.3781 6200.69
41.4062 3915.84
41.4271 2740.78
41.4479 1972.07
41.4688 1468.25
41.4897 1128.96
41.5314 722.859
41.5731 502.213
41.6149 370.438
41.6566 285.925
41.7401 188.470
41.8235 138.039
41.9070 112.679
41.9487 108.573
41.9904 113.926
42.0322 141.099
42.0530 174.109
42.0739 233.754
42.0970 339.365
42.1200 416.175
42.1431 351.302
42.1661 244.648
42.1967 157.266
42.2273 114.175
42.2579 90.9978
42.2885 77.0837
42.3498 61.5274
42.4110 53.1713
42.5334 45.0034
42.6559 42.9269
42.7783 47.0597
42.8395 53.2411
42.9007 65.1053
42.9620 88.9805
42.9926 110.192
43.0232 143.621
43.0538 199.822
43.0844 302.723
43.0997 387.795
43.1150 512.262
43.1303 698.578
43.1456 977.261
43.1678 1562.76
43.1900 1963.18
43.2122 1587.14
43.2344 1007.41
43.2524 688.518
43.2703 488.003
43.2883 360.890
43.3062 277.439
43.3421 180.121
43.3780 128.517
43.4139 98.1165
43.4498 78.7698
43.5216 56.4843
43.5934 44.6708
43.6652 37.7772
43.8089 31.1658
43.9525 30.4141
44.0243 32.5014
44.0961 37.5485
44.1679 48.7210
44.2038 59.0844
44.2397 75.8838
44.2756 105.047
44.3115 160.691
44.3295 208.513
44.3474 281.128
44.3654 394.864
44.3833 574.018
44.3950 735.168
44.4067 921.065
44.4300 1162.98
44.4417 1102.66
44.4534 945.743
44.4767 604.677
44.5046 352.612
44.5325 224.676
44.5604 156.081
44.5883 116.126
44.6162 91.0789
44.6441 74.4432
44.7000 54.4966
44.7558 43.5373
44.8116 36.9903
44.9232 30.4265
45.0348 28.8335
45.1465 32.4760
45.2023 38.4646
45.2581 52.0287
45.2860 65.3194
45.3139 88.1142
45.3418 130.065
45.3558 163.879
45.3697 210.599
45.3823 265.478
45.3949 328.677
45.4200 410.538
45.4452 336.327
45.4703 220.308
45.4982 139.259
45.5260 96.3025
45.5538 72.6451
45.5817 58.7532
45.6374 44.5779
45.6931 38.5686
45.8044 36.3149
45.9158 41.7724
45.9715 47.8208
46.0272 57.4078
46.0550 64.1837
46.0829 72.8658
46.1107 84.1630
46.1386 99.1492
46.1664 119.522
46.1942 148.032
46.2221 189.454
46.2499 252.401
46.2778 353.716
46.2917 428.467
46.3056 528.401
46.3195 664.711
46.3335 854.124
46.3474 1120.52
46.3613 1492.95
46.3857 2413.71
46.4100 3061.51
46.4344 2497.50
46.4587 1599.22
46.4814 1043.96
46.5040 716.995
46.5266 521.039
46.5493 397.985
46.5946 261.615
46.6398 194.270
46.6851 158.430
46.7304 139.595
46.8210 132.179
46.9115 159.829
46.9568 193.129
47.0021 250.465
47.0474 353.005
47.0926 552.367
47.1153 725.781
47.1379 991.753
47.1606 1413.48
47.1832 2086.89
47.2116 3346.70
47.2400 4207.69
47.2684 3395.75
47.2968 2146.91
47.3141 1601.81
47.3314 1216.45
47.3661 752.361
47.4007 506.655
47.4354 364.764
47.4700 276.339
47.5046 217.797
47.5739 147.692
47.6432 108.865
47.7125 85.0655
47.8510 58.4203
47.8510 58.4177
47.8511 58.4083
47.8512 58.3990
47.8513 58.3817
47.8515 58.3471
47.8521 58.2780
47.8531 58.1390
47.8552 57.8644
47.8594 57.3215
47.8678 56.2672
47.8845 54.2724
47.9180 50.6871
47.9850 44.8243
48.1189 36.6406
48.3868 27.6903
48.6547 23.3778
48.9226 21.5270
49.1905 21.7404
49.4583 25.0085
49.5923 28.9772
49.7262 36.7334
49.7932 43.8667
49.8602 56.5987
49.8937 67.7594
49.9271 86.3302
49.9606 121.699
49.9774 152.381
49.9941 198.046
50.0171 287.342
50.0400 347.588
50.0859 213.563
50.1130 159.500
50.1401 137.630
50.1942 136.333
50.2484 164.479
50.3025 221.645
50.3567 328.323
50.3837 415.711
50.4108 543.166
50.4379 736.739
50.4650 1044.25
50.4920 1555.51
50.5191 2419.25
50.5496 3910.71
50.5800 4944.47
50.6105 4003.52
50.6409 2535.09
50.6678 1667.44
50.6947 1144.04
50.7216 823.471
50.7485 618.528
50.8023 385.543
50.8561 264.854
50.9100 194.810
50.9638 150.652
51.0714 100.198
51.1790 73.5262
51.2866 57.7515
51.5019 41.1255
51.7171 34.1901
51.9323 34.5555
52.0400 39.7982
52.0938 45.4383
52.1476 55.2546
52.2014 73.5896
52.2552 112.411
52.2821 149.713
52.3090 213.477
52.3225 262.926
52.3359 331.348
52.3494 427.189
52.3628 560.696
52.3746 713.906
52.3864 890.834
52.4100 1123.78
52.4218 1070.53
52.4336 926.356
52.4572 612.218
52.4822 403.259
52.5072 296.485
52.5322 247.314
52.5572 234.772
52.5821 254.502
52.6071 316.754
52.6321 454.868
52.6446 574.093
52.6571 744.423
52.6786 1162.47
52.7000 1452.66
52.7215 1182.80
52.7429 762.662
52.7573 562.543
52.7717 425.583
52.8006 266.652
52.8294 185.321
52.8582 139.226
52.8870 110.832
52.9159 92.2671
52.9735 70.8747
53.0312 61.1791
53.0888 60.4308
53.1176 64.8432
53.1465 75.5077
53.1753 99.0534
53.2041 150.756
53.2271 221.756
53.2500 271.356
53.2730 225.899
53.2959 154.613
53.3146 114.903
53.3332 89.8154
53.3706 63.3562
53.4079 51.1854
53.4452 45.0142
53.5199 40.6572
53.5946 42.5865
53.6692 51.8229
53.7066 61.4223
53.7439 77.5694
53.7812 106.306
53.8185 162.360
53.8372 211.369
53.8559 286.827
53.8745 407.159
53.8932 600.408
53.9049 769.599
53.9166 965.435
53.9400 1222.65
53.9517 1161.33
53.9634 997.905
53.9868 640.639
54.0059 440.985
54.0250 315.352
54.0442 235.692
54.0633 183.366
54.1015 122.172
54.1397 89.5673
54.1780 70.2563
54.2162 57.8999
54.2927 43.5686
54.3692 35.9270
54.4456 31.4781
54.5986 27.4014
54.7515 27.5921
54.8280 29.6534
54.9044 34.1587
54.9809 43.7498
55.0191 52.5114
55.0574 66.5991
55.0956 90.8977
55.1338 137.009
55.1530 176.517
55.1721 236.340
55.1912 329.878
55.2103 476.773
55.2352 760.030
55.2600 954.995
55.2849 774.446
55.3097 494.781
55.3353 309.663
55.3609 207.139
55.3866 148.547
55.4122 112.945
55.4634 74.5370
55.5147 55.7891
55.5659 45.5654
55.6171 39.7034
55.7196 34.9658
55.8221 36.8086
55.8733 40.8341
55.9246 48.5795
55.9758 63.5494
56.0270 95.1997
56.0527 124.987
56.0783 174.395
56.1039 261.350
56.1295 419.062
56.1548 664.988
56.1800 833.845
56.2053 676.714
56.2305 433.704
56.2474 319.082
56.2643 240.842
56.2980 150.567
56.3318 104.961
56.3655 79.5470
56.4330 54.4301
56.5005 43.5584
56.6355 37.0564
56.7705 40.7002
56.9054 55.8817
56.9729 72.0142
57.0404 100.523
57.0742 123.236
57.1079 155.731
57.1417 204.133
57.1754 280.013
57.2092 407.239
57.2260 504.752
57.2429 639.583
57.2598 831.352
57.2767 1111.44
57.2935 1529.75
57.3104 2154.00
57.3352 3487.17
57.3600 4417.71
57.3848 3589.32
57.4096 2281.80
57.4312 1513.80
57.4529 1046.25
57.4745 757.845
57.4961 572.326
57.5393 360.218
57.5826 249.679
57.6258 185.254
57.6691 144.511
57.7555 97.8282
57.8420 73.1236
57.9285 58.5772
58.1015 43.7018
58.2744 38.8872
58.3609 39.7870
58.4474 44.1438
58.5339 55.3357
58.5771 66.1971
58.6203 84.1323
58.6636 115.643
58.7068 176.256
58.7284 228.527
58.7501 307.993
58.7717 432.496
58.7825 519.763
58.7933 628.560
58.8075 806.582
58.8217 1012.71
58.8500 1285.38
58.8642 1222.76
58.8784 1052.58
58.9067 678.000
58.9363 424.711
58.9658 283.990
58.9954 203.256
59.0249 153.911
59.0545 121.884
59.0841 100.008
59.1432 72.9224
59.2023 57.3831
59.2614 47.5953
59.3797 36.3070
59.4979 30.2060
59.6161 26.5216
59.8526 22.6957
60.0891 21.8117
60.2073 22.6491
60.3256 25.0990
60.4438 31.0931
60.5029 37.0437
60.5620 47.2851
60.6212 66.5491
60.6507 82.9809
60.6803 108.059
60.7098 148.544
60.7394 218.577
60.7690 349.537
60.7837 456.868
60.7985 607.019
60.8243 977.007
60.8500 1235.87
60.8758 1005.98
60.9015 643.141
60.9184 473.644
60.9353 356.721
60.9691 220.028
61.0029 149.795
61.0366 109.979
61.0704 85.4696
61.1042 69.3712
61.1718 50.2311
61.2393 39.7098
61.3069 33.3062
61.4420 26.2734
61.4420 26.2727
61.4421 26.2706
61.4421 26.2685
61.4422 26.2647
61.4425 26.2566
61.4429 26.2409
61.4438 26.2095
61.4456 26.1472
61.4492 26.0240
61.4564 25.7848
61.4709 25.3321
61.4997 24.5223
61.5574 23.2267
61.6728 21.6465
61.7883 21.2032
61.9037 22.1065
62.0191 25.4934
62.0768 29.1683
62.1345 35.7163
62.1922 48.4009
62.2210 59.4658
62.2499 76.6978
62.2788 105.285
62.3076 156.639
62.3365 258.242
62.3509 346.130
62.3653 474.489
62.3765 607.502
62.3877 760.923
62.4100 961.001
62.4324 782.969
62.4547 502.072
62.4761 325.062
62.4975 222.455
62.5189 161.644
62.5402 123.688
62.5830 81.6152
62.6258 60.4532
62.6685 48.5760
62.7113 41.4876
62.7968 34.8278
62.8823 34.6186
62.9251 37.1625
62.9679 42.6202
63.0106 53.4230
63.0534 75.7386
63.0748 95.8414
63.0961 127.468
63.1175 179.064
63.1389 264.103
63.1517 335.899
63.1645 418.956
63.1900 528.059
63.2156 432.503
63.2411 280.575
63.2591 205.072
63.2771 154.355
63.2951 120.294
63.3132 96.8714
63.3492 68.1628
63.3852 52.1249
63.4212 42.3019
63.4573 35.8466
63.5293 28.1016
63.6014 23.7456
63.6734 21.0044
63.8175 17.7830
63.9616 15.9531
64.1057 14.7623
64.3939 13.2741
64.9703 11.7222
65.5467 10.9730
66.1231 10.9202
66.4113 11.3966
66.6995 12.6870
66.9877 16.0424
67.1318 19.6385
67.2759 26.3356
67.4200 40.4173
67.4921 53.8246
67.5641 76.6772
67.6001 94.5409
67.6362 119.777
67.6722 156.889
67.7082 214.186
67.7442 308.363
67.7622 379.225
67.7803 475.603
67.7983 609.912
67.8163 801.207
67.8343 1078.34
67.8523 1478.32
67.8812 2396.11
67.9100 3038.39
67.9389 2469.58
67.9677 1570.27
68.0013 915.248
68.0350 576.936
68.0686 393.221
68.1022 285.257
68.1359 217.189
68.1695 171.742
68.2368 116.893
68.3040 86.3542
68.3713 67.6339
68.5058 46.8954
68.6403 36.6316
68.7749 32.0802
68.8421 32.1675
68.9094 35.7223
68.9430 40.5579
68.9766 50.3428
69.0103 71.7465
69.0271 91.6807
69.0439 122.456
69.0670 184.676
69.0900 227.667
69.1131 187.832
69.1361 125.844
69.1607 83.5623
69.1852 60.4085
69.2098 47.2188
69.2344 39.1626
69.2835 30.2756
69.3326 25.6849
69.4309 21.1329
69.5292 18.8914
69.7257 16.7432
69.9222 16.0549
70.1187 16.7348
70.2170 17.9831
70.3153 20.5338
70.4135 26.0126
70.4627 31.1908
70.5118 39.8987
70.5609 56.0112
70.5855 69.6507
70.6100 90.3927
70.6346 123.863
70.6592 181.866
70.6837 291.094
70.6960 381.255
70.7083 508.243
70.7292 812.553
70.7500 1021.86
70.7709 828.250
70.7917 528.226
70.8096 355.305
70.8275 249.751
70.8454 184.541
70.8633 142.695
70.8991 95.2550
70.9349 71.2297
70.9706 58.0637
71.0064 50.7663
71.0780 46.3488
71.1496 52.9681
71.1854 62.0921
71.2212 78.2736
71.2569 107.694
71.2927 165.419
71.3106 215.817
71.3285 293.120
71.3464 415.591
71.3643 610.915
71.3872 985.867
71.4100 1251.30
71.4214 1189.13
71.4329 1022.02
71.4557 655.608
71.4699 491.729
71.4841 376.086
71.5124 237.024
71.5407 163.416
71.5691 120.829
71.5974 94.2297
71.6258 76.5690
71.6824 55.3503
71.7391 43.6005
71.7958 36.4777
71.9092 29.0268
72.0225 26.6153
72.0792 27.0995
72.1359 29.2969
72.1926 34.7084
72.2492 47.7533
72.2776 61.0429
72.3059 84.6018
72.3343 129.787
72.3626 221.270
72.3863 348.937
72.4100 437.953
72.4337 358.243
72.4574 232.616
72.4832 145.361
72.5091 98.3283
72.5349 71.9419
72.5607 56.0678
72.6124 38.9876
72.6641 30.5432
72.7157 25.7827
72.7674 22.8734
72.8707 19.8788
72.9740 19.1816
73.0774 21.2462
73.1290 24.6485
73.1807 32.4869
73.2065 40.2632
73.2323 53.7329
73.2582 78.7726
73.2840 127.423
73.3070 198.391
73.3300 247.939
73.3530 203.680
73.3760 133.907
73.3991 88.3631
73.4221 62.6006
73.4452 47.6219
73.4682 38.3975
73.5143 28.2864
73.5605 23.2576
73.6527 18.8699
73.7449 17.6345
73.8371 18.4754
73.8832 19.9881
73.9294 22.8709
73.9755 28.4559
74.0216 40.3123
74.0446 51.4916
74.0677 70.0142
74.0908 102.537
74.1138 161.260
74.1369 254.535
74.1600 319.695
74.1831 261.528
74.2062 169.875
74.2297 109.360
74.2533 75.4520
74.2768 55.8724
74.3004 43.8628
74.3474 30.7079
74.3945 24.0976
74.4416 20.3156
74.4886 17.9471
74.5828 15.2530
74.7711 13.0802
74.9594 12.5941
75.1476 13.4127
75.2418 14.6647
75.3359 17.1379
75.4301 22.3681
75.4772 27.2650
75.5242 35.4119
75.5713 50.1992
75.6184 80.6037
75.6419 108.907
75.6654 155.501
75.6772 190.307
75.6890 236.848
75.7007 299.464
75.7125 382.926
75.7244 491.148
75.7363 616.032
75.7600 779.172
75.7719 739.421
75.7838 634.755
75.8075 406.334
75.8323 252.434
75.8572 167.498
75.8820 119.037
75.9068 89.5777
75.9317 70.5640
75.9565 57.6558
76.0062 41.8291
76.0558 32.8977
76.1055 27.3900
76.2048 21.2901
76.3041 18.2775
76.4035 16.7430
76.6021 16.1284
76.8008 18.4594
76.9001 21.4775
76.9994 27.1200
77.0987 38.5588
77.1484 48.9821
77.1981 65.9793
77.2477 96.1507
77.2726 120.649
77.2974 156.445
77.3222 211.117
77.3470 298.952
77.3719 447.362
77.3967 703.576
77.4234 1128.45
77.4500 1418.90
77.4767 1145.50
77.5033 725.072
77.5346 420.144
77.5659 264.653
77.5972 181.142
77.6286 132.592
77.6599 102.351
77.6912 82.4866
77.7538 59.3889
77.8164 47.9902
77.8791 43.6587
77.9417 47.8103
77.9730 57.3039
78.0043 80.1126
78.0500 129.753
78.0729 110.821
78.0957 81.8435
78.1282 58.5831
78.1608 49.3224
78.2258 46.4226
78.2909 53.2756
78.3560 69.8844
78.3885 84.0525
78.4210 104.844
78.4536 136.433
78.4861 186.906
78.5186 273.347
78.5349 340.930
78.5511 435.942
78.5674 573.991
78.5837 781.104
78.5999 1101.17
78.6162 1597.00
78.6381 2584.06
78.6600 3272.38
78.6819 2656.12
78.7038 1686.99
78.7275 1020.12
78.7511 659.386
78.7748 456.757
78.7984 334.930
78.8221 256.926
78.8457 204.291
78.8930 140.205
78.8930 140.185
78.8931 140.107
78.8932 140.038
78.8933 139.901
78.8936 139.628
78.8942 139.073
78.8953 137.977
78.8976 135.828
78.9021 131.709
78.9112 124.099
78.9294 111.020
78.9658 91.3205
79.0387 67.5904
79.1115 55.3336
79.1843 50.1622
79.2571 52.0863
79.2936 57.2562
79.3300 67.8311
79.3664 89.2105
79.3846 107.817
79.4028 136.241
79.4210 181.805
79.4301 215.109
79.4392 259.175
79.4483 318.531
79.4574 399.495
79.4665 510.985
79.4756 663.389
79.4842 850.753
79.4928 1068.29
79.5100 1357.23
79.5186 1291.84
79.5272 1112.71
79.5444 718.488
79.5554 538.012
79.5663 411.758
79.5882 261.548
79.6101 182.941
79.6319 137.844
79.6757 91.5028
79.7195 69.8264
79.7632 58.4239
79.8070 52.2682
79.8945 48.8498
79.9820 55.3187
80.0258 64.0067
80.0696 79.5920
80.1133 108.702
80.1352 132.913
80.1571 168.796
80.1790 224.387
80.2008 315.132
80.2227 471.456
80.2446 747.673
80.2673 1197.03
80.2900 1510.82
80.3127 1231.92
80.3354 791.983
80.3568 518.471
80.3781 358.804
80.3995 263.908
80.4209 204.787
80.4636 140.132
80.5064 109.190
80.5918 87.2675
80.6773 91.5833
80.7628 120.580
80.8055 150.574
80.8483 200.159
80.8910 286.228
80.9124 353.548
80.9337 447.881
80.9551 583.830
80.9765 785.544
80.9978 1092.08
81.0192 1558.08
81.0496 2535.64
81.0800 3234.28
81.1104 2647.21
81.1408 1696.75
81.1702 1088.78
81.1996 736.141
81.2289 526.943
81.2583 396.031
81.3171 249.937
81.3758 175.201
81.4346 131.951
81.4934 104.612
81.6109 73.0787
81.7284 56.0747
81.8459 45.7566
82.0810 34.3243
82.3160 28.7571
82.5510 26.9891
82.6686 28.3125
82.7861 33.9507
82.8448 41.3769
82.9036 58.0686
82.9330 74.7886
82.9624 104.367
82.9917 161.308
83.0064 209.198
83.0211 277.586
83.0333 353.221
83.0456 441.077
83.0700 558.866
83.0945 462.403
83.1189 304.467
83.1446 196.672
83.1703 137.091
83.1960 103.162
83.2217 82.6610
83.2731 60.8862
83.3246 50.8412
83.4274 44.5466
83.5302 47.9405
83.6330 61.9899
83.6844 76.3613
83.7359 100.601
83.7873 144.303
83.8387 231.759
83.8644 310.463
83.8901 435.334
83.9158 642.467
83.9415 991.321
83.9708 1601.78
84.0000 2031.07
84.0293 1655.11
84.0585 1057.72
84.0830 717.195
84.1075 505.489
84.1320 372.571
84.1565 285.892
84.2055 185.371
84.2544 132.207
84.3034 100.875
84.3524 80.8724
84.4504 57.6623
84.5483 45.1371
84.6463 37.5782
84.8422 29.3728
85.0381 25.8215
85.1361 25.3957
85.2341 26.2730
85.3320 29.7487
85.3810 33.5852
85.4300 40.4391
85.4790 53.6050
85.5035 64.9234
85.5279 82.2313
85.5524 110.141
85.5769 158.178
85.6014 247.100
85.6137 319.250
85.6259 419.359
85.6369 537.514
85.6480 674.516
85.6700 856.439
85.6921 702.313
85.7141 453.891
85.7293 332.656
85.7444 250.293
85.7596 194.402
85.7747 155.703
85.8050 107.914
85.8353 81.0573
85.8656 64.5710
85.8959 53.7419
85.9566 40.7983
86.0172 33.5836
86.0778 29.0979
86.1990 23.9257
86.3202 21.0697
86.4415 19.2651
86.6839 17.1255
86.9264 16.0055
87.1688 15.7697
87.2900 16.3369
87.4113 18.4030
87.4719 21.0942
87.5325 27.2148
87.5628 33.4619
87.5931 44.7705
87.6234 67.3663
87.6386 87.0635
87.6537 116.049
87.6769 180.126
87.7000 225.150
87.7232 185.605
87.7463 122.889
87.7725 78.1739
87.7987 54.6253
87.8248 41.6648
87.8510 33.9875
87.9034 25.8910
87.9557 22.0243
88.0604 18.8101
88.1652 18.0020
88.2699 18.6204
88.3746 21.3350
88.4269 24.5549
88.4793 31.2156
88.5055 37.5160
88.5317 48.1929
88.5578 67.7926
88.5840 105.714
88.6070 160.196
88.6300 198.255
88.6530 164.912
88.6760 112.460
88.6949 83.3563
88.7139 65.4681
88.7517 47.7044
88.7896 40.8138
88.8274 38.6350
88.9031 41.4854
88.9788 52.2925
89.0545 75.8814
89.0924 97.0579
89.1302 130.409
89.1491 154.513
89.1681 186.193
89.1870 228.754
89.2059 287.220
89.2248 369.671
89.2438 488.753
89.2627 664.205
89.2816 921.857
89.3108 1498.51
89.3400 1910.06
89.3546 1817.95
89.3692 1564.07
89.3984 1003.91
89.4214 698.062
89.4444 501.802
89.4674 375.346
89.4904 291.281
89.5364 191.927
89.5825 138.615
89.6285 107.141
89.6745 87.3189
89.7665 65.8619
89.8585 58.2208
89.9506 63.6341
89.9966 75.8382
90.0426 104.459
90.0656 132.356
90.0886 179.252
90.1116 262.533
90.1346 414.357
90.1573 652.223
90.1800 816.744
90.2027 666.038
90.2254 430.730
90.2521 258.590
90.2788 170.166
90.3055 122.282
90.3322 94.1463
90.3857 64.4927
90.4391 50.1140
90.4925 42.1555
90.5459 37.4358
90.6528 33.1740
90.7596 33.8440
90.8130 36.5495
90.8664 42.1477
90.9199 53.4616
90.9733 78.2983
91.0000 102.332
91.0267 143.176
91.0534 217.310
91.0801 357.024
91.1051 568.178
91.1300 716.043
91.1550 584.808
91.1799 377.501
91.1964 280.138
91.2128 213.090
91.2458 134.821
91.2787 94.6468
91.3116 71.8619
91.3445 57.8046
91.3775 48.5458
91.4433 37.4829
91.5092 31.3504
91.5750 27.5884
91.7067 23.4238
91.9701 20.4934
92.2336 20.9790
92.4970 25.4407
92.6287 30.7572
92.7604 40.7728
92.8921 61.5078
92.9579 80.7251
93.0238 112.430
93.0897 169.278
93.1226 215.704
93.1555 283.685
93.1884 387.627
93.2214 554.309
93.2543 834.764
93.2872 1315.61
93.3236 2142.15
93.3600 2730.91
93.3964 2232.76
93.4328 1428.93
93.4546 1078.66
93.4765 828.099
93.5201 521.858
93.5637 357.044
93.6074 260.660
93.6510 200.018
93.6947 159.560
93.7819 110.667
93.8692 83.3229
93.9565 66.4374
94.1311 47.3967
94.3057 37.3754
94.4802 31.4342
94.8294 25.2331
95.1785 23.2128
95.3531 23.7697
95.5276 26.2197
95.7022 32.8971
95.7895 39.8628
95.8768 52.2757
95.9641 76.6026
96.0077 98.1156
96.0513 132.062
96.0950 189.312
96.1168 233.397
96.1386 294.546
96.1604 381.737
96.1823 509.580
96.2041 701.216
96.2259 988.393
96.2580 1605.33
96.2900 2045.07
96.3221 1674.21
96.3541 1074.46
96.3744 800.459
96.3947 608.212
96.4353 378.824
96.4759 258.443
96.5165 189.192
96.5572 146.104
96.5978 117.570
96.6790 83.3408
96.7602 64.3424
96.8414 52.6923
97.0039 39.7998
97.1663 33.6040
97.3287 31.5974
97.4100 32.8283
97.4912 38.0252
97.5318 44.4939
97.5724 57.8687
97.5927 70.0779
97.6130 89.5849
97.6333 122.110
97.6536 177.193
97.6652 222.328
97.6768 274.896
97.7000 345.863
97.7232 289.060
97.7464 194.981
97.7748 123.221
97.8031 87.0152
97.8315 67.7915
97.8598 56.7782
97.9165 45.8864
97.9732 41.6517
98.0866 41.8771
98.2000 51.4731
98.2000 51.4759
98.2000 51.4773
98.2000 51.4815
98.2001 51.4843
98.2001 51.4900
98.2002 51.5012
98.2004 51.5252
98.2007 51.5733
98.2014 51.6699
98.2027 51.8634
98.2054 52.2592
98.2108 53.0793
98.2217 54.8458
98.2433 58.9508
98.2866 70.1247
98.3299 87.2565
98.3732 114.674
98.4165 161.335
98.4598 247.639
98.4815 319.392
98.5031 424.823
98.5248 583.193
98.5464 820.912
98.5782 1333.61
98.6100 1702.52
98.6418 1398.46
98.6736 901.741
98.6943 668.849
98.7151 506.955
98.7565 315.949
98.7980 216.786
98.8394 160.086
98.8808 124.897
98.9223 101.611
99.0052 73.6369
99.0881 58.0155
99.1710 48.3329
99.3368 37.2885
99.5025 31.3255
99.6683 27.6525
99.9999 23.4001
100.000 159.233
125.000 143.032
150.000 131.073
170.000 123.472
200.000 114.286
250.000 102.825
300.000 94.3620
350.000 87.7848
400.000 82.4820
500.000 74.3711
600.000 68.3808
720.000 62.9089
800.000 59.9656
1000.00 54.2177
1250.00 49.0724
1500.00 45.2700
1700.00 42.8503
2000.00 39.9227
2500.00 36.2663
3000.00 33.5597
3500.00 31.4520
4000.00 29.7490
5000.00 27.1369
6000.00 25.1989
7200.00 23.4215
8000.00 22.4613
10000.0 20.5763
12500.0 18.8724
15000.0 17.6004
17000.0 16.7838
20000.0 15.7863
21644.0 15.2099
22000.0 15.1002
25000.0 14.1622
30000.0 13.1943
35000.0 12.5137
40000.0 11.9701
50000.0 11.1859
60000.0 10.4597
70000.0 9.88770
80000.0 9.41063
90000.0 9.00638
99999.9 8.65996
100000 8.64120
150000 7.77981
197510 7.25927
197511 7.25926
197810 7.25773
197813 7.25770
244830 7.06235
262140 7.01555
262141 7.01554
300000 6.94693
309050 6.93611
309560 6.93562
352140 6.90782
355960 6.90687
355963 6.90687
418780 6.91847
418781 6.91847
500000 6.98432
800000 7.33823
1.00000E+06 7.49467
1.20000E+06 7.54996
1.30000E+06 7.54447
1.35000E+06 7.53471
1.40000E+06 7.52101
1.45000E+06 7.50345
1.50000E+06 7.48279
1.55000E+06 7.45921
1.60000E+06 7.43303
1.65000E+06 7.40458
1.70000E+06 7.37426
1.90000E+06 7.23903
2.10000E+06 7.09104
2.35000E+06 6.90085
2.68450E+06 6.64727
3.00000E+06 6.40747
3.50000E+06 6.03141
4.42440E+06 5.42860
4.92390E+06 5.17953
5.48590E+06 4.97917
6.00000E+06 4.86975
6.50000E+06 4.82090
7.00000E+06 4.81209
7.61340E+06 4.83298
7.98730E+06 4.85438
8.00000E+06 4.85512
8.75000E+06 4.90562
9.00000E+06 4.92307
9.50000E+06 4.95717
1.05000E+07 5.01427
1.15000E+07 5.05481
1.25000E+07 5.08996
1.35000E+07 5.12971
1.41000E+07 5.15718
1.44460E+07 5.17390
1.60000E+07 5.23548
1.65000E+07 5.25081
1.70000E+07 5.24940
1.75000E+07 5.23330
1.80000E+07 5.20090
1.90000E+07 5.09220
2.00000E+07 4.94610