Eu-153(n,tot) ENDF/B-VII.1
Energy(eV) XS(b)
1.00000E-05 18625.8
1.30871E-05 16282.5
1.61743E-05 14647.3
2.00000E-05 13172.9
2.23486E-05 12462.0
2.85229E-05 11032.0
3.46972E-05 10003.2
4.70459E-05 8591.79
5.00000E-05 8334.36
5.93945E-05 7647.55
7.17431E-05 6959.05
8.40917E-05 6428.42
0.000100000 5895.60
0.000108789 5652.75
0.000133486 5103.83
0.000158183 4689.10
0.000200000 4170.97
0.000207578 4094.25
0.000232276 3870.85
0.000256973 3680.47
0.000306367 3371.30
0.000405156 2932.44
0.000500000 2640.29
0.000503945 2629.96
0.000516294 2598.38
0.000528642 2567.92
0.000553340 2510.09
0.000602734 2405.27
0.000800313 2088.03
0.000997891 1870.40
0.00100000 1868.43
0.00100611 1862.76
0.00101222 1857.14
0.00102443 1846.06
0.00104887 1824.48
0.00109774 1783.50
0.00119547 1709.21
0.00159062 1482.22
0.00198578 1326.84
0.00200000 1322.12
0.00204762 1306.69
0.00209524 1291.77
0.00219047 1263.42
0.00238094 1211.91
0.00277610 1122.44
0.00317125 1050.22
0.00396156 939.631
0.00475187 857.847
0.00500000 836.248
0.00566625 785.414
0.00633250 742.794
0.00791312 664.069
0.00949375 605.816
0.0100000 590.126
0.0113275 554.063
0.0126550 523.785
0.0158162 467.570
0.0189775 425.908
0.0200000 414.569
0.0226500 388.790
0.0253000 367.112
0.0253000 367.112
0.0253000 367.112
0.0253000 367.112
0.0253001 367.112
0.0253001 367.111
0.0253002 367.111
0.0253004 367.109
0.0253008 367.106
0.0253016 367.100
0.0253032 367.088
0.0253064 367.064
0.0253128 367.016
0.0253256 366.919
0.0253512 366.726
0.0254025 366.342
0.0255049 365.576
0.0257099 364.057
0.0261197 361.073
0.0269394 355.306
0.0285787 344.513
0.0318574 325.433
0.0384149 294.738
0.0500000 255.781
0.0515297 251.620
0.0548084 243.279
0.0580872 235.633
0.0646446 222.075
0.0777595 200.148
0.100000 173.074
0.103989 169.133
0.117104 157.582
0.130219 147.771
0.156449 131.900
0.182678 119.517
0.200000 112.696
0.235138 101.252
0.287598 88.3067
0.322420 81.5883
0.322420 81.5883
0.322420 81.5883
0.322421 81.5881
0.322422 81.5880
0.322423 81.5878
0.322426 81.5873
0.322431 81.5863
0.322443 81.5843
0.322465 81.5804
0.322510 81.5725
0.322599 81.5568
0.322778 81.5253
0.323136 81.4624
0.323851 81.3371
0.325282 81.0877
0.328143 80.5941
0.333867 79.6276
0.345313 77.7730
0.368205 74.3502
0.413990 68.4694
0.413990 68.4694
0.413991 68.4693
0.413992 68.4692
0.413993 68.4691
0.413995 68.4688
0.414001 68.4682
0.414011 68.4670
0.414032 68.4645
0.414074 68.4596
0.414158 68.4499
0.414326 68.4304
0.414662 68.3914
0.415334 68.3136
0.416678 68.1586
0.419366 67.8513
0.424741 67.2468
0.435493 66.0771
0.456995 63.8839
0.500000 60.0125
0.531580 57.5433
0.531580 57.5433
0.531581 57.5433
0.531581 57.5432
0.531583 57.5432
0.531585 57.5430
0.531589 57.5426
0.531599 57.5420
0.531617 57.5406
0.531654 57.5379
0.531728 57.5325
0.531875 57.5216
0.532170 57.4999
0.532760 57.4565
0.533939 57.3701
0.536298 57.1984
0.541016 56.8594
0.550453 56.1985
0.569325 54.9421
0.607070 52.6691
0.682560 48.9382
0.682560 48.9382
0.682561 48.9381
0.682562 48.9381
0.682563 48.9380
0.682566 48.9379
0.682572 48.9376
0.682584 48.9371
0.682608 48.9361
0.682655 48.9341
0.682750 48.9300
0.682939 48.9218
0.683317 48.9056
0.684075 48.8730
0.685589 48.8083
0.688618 48.6798
0.694676 48.4269
0.706793 47.9374
0.731025 47.0208
0.779490 45.4189
0.876420 43.0299
0.876420 43.0299
0.876421 43.0299
0.876421 43.0299
0.876422 43.0299
0.876424 43.0298
0.876428 43.0298
0.876435 43.0296
0.876450 43.0293
0.876481 43.0287
0.876541 43.0276
0.876662 43.0252
0.876903 43.0205
0.877386 43.0111
0.878351 42.9924
0.880282 42.9552
0.884144 42.8821
0.891868 42.7402
0.907315 42.4740
0.938210 42.0111
1.00000 41.3584
1.12540 41.1822
1.12540 41.1822
1.12541 41.1822
1.12541 41.1823
1.12542 41.1823
1.12544 41.1824
1.12548 41.1826
1.12556 41.1830
1.12571 41.1839
1.12603 41.1855
1.12665 41.1888
1.12790 41.1956
1.13040 41.2097
1.13539 41.2401
1.14538 41.3099
1.16535 41.4861
1.20530 41.9980
1.28520 43.8035
1.44500 53.3702
1.44500 53.3704
1.44501 53.3713
1.44502 53.3721
1.44503 53.3736
1.44506 53.3767
1.44512 53.3829
1.44523 53.3954
1.44546 53.4203
1.44593 53.4704
1.44685 53.5712
1.44871 53.7754
1.45241 54.1943
1.45981 55.0771
1.47463 57.0446
1.50425 62.0131
1.56350 79.3722
1.59313 95.8277
1.62275 124.342
1.65238 179.255
1.68200 294.084
1.70450 440.072
1.72700 536.515
1.74950 440.034
1.77200 296.679
1.79285 211.063
1.81370 162.262
1.85540 118.227
1.85540 118.226
1.85541 118.223
1.85541 118.221
1.85542 118.215
1.85544 118.205
1.85547 118.184
1.85554 118.143
1.85568 118.061
1.85597 117.898
1.85653 117.574
1.85766 116.941
1.85992 115.731
1.86444 113.516
1.87348 109.822
1.89155 104.794
1.92770 101.224
2.00000 109.674
2.09560 147.340
2.14340 183.097
2.19120 240.124
2.23900 337.170
2.28680 519.899
2.31070 677.260
2.33460 920.321
2.35850 1318.37
2.37045 1615.30
2.38240 2013.19
2.38240 2013.27
2.38241 2013.54
2.38242 2013.81
2.38243 2014.31
2.38246 2015.35
2.38251 2017.44
2.38262 2021.62
2.38283 2030.02
2.38326 2046.91
2.38413 2081.26
2.38585 2152.31
2.38930 2304.15
2.39620 2651.04
2.41000 3550.11
2.43300 5648.06
2.45600 7035.42
2.46750 6616.28
2.47900 5623.10
2.50200 3520.33
2.51941 2435.10
2.53681 1736.10
2.55422 1284.20
2.57163 983.404
2.60644 628.982
2.64125 440.469
2.67606 330.510
2.71088 262.077
2.78050 188.287
2.85013 157.246
2.91975 150.969
2.98938 167.617
3.05900 220.332
3.05900 220.334
3.05901 220.341
3.05901 220.348
3.05902 220.361
3.05905 220.388
3.05909 220.441
3.05918 220.548
3.05936 220.762
3.05973 221.192
3.06045 222.058
3.06190 223.815
3.06480 227.437
3.07060 235.134
3.08219 252.538
3.10538 297.451
3.15175 455.795
3.17494 600.249
3.19813 832.418
3.22131 1224.16
3.24450 1898.30
3.26925 2999.98
3.29400 3729.79
3.31875 2990.66
3.34350 1887.30
3.36079 1353.05
3.37808 996.813
3.39537 759.604
3.41266 598.152
3.44724 404.153
3.48183 300.191
3.51641 240.932
3.55099 206.753
3.62015 182.361
3.68931 203.411
3.72389 236.033
3.75848 294.093
3.79306 398.061
3.82764 596.214
3.84493 764.127
3.86222 1014.76
3.87951 1398.49
3.89680 1986.45
3.91235 2726.38
3.92790 3530.77
3.92790 3530.86
3.92791 3531.23
3.92792 3531.59
3.92793 3532.32
3.92796 3533.72
3.92803 3536.57
3.92815 3542.24
3.92841 3553.51
3.92891 3575.68
3.92991 3618.62
3.93193 3698.30
3.93595 3828.18
3.94400 3939.36
3.95580 3710.54
3.96760 3159.59
3.99120 1987.93
4.01349 1267.58
4.03578 850.591
4.05807 603.672
4.08036 449.638
4.12494 278.772
4.16953 192.262
4.21411 142.760
4.25869 111.853
4.34785 76.9529
4.43701 59.1038
4.52618 50.0234
4.61534 49.8208
4.65992 58.4706
4.68221 69.3903
4.70450 89.6807
4.75000 144.268
4.79550 86.3135
4.82106 61.8636
4.84663 48.7635
4.89775 36.7194
4.94888 31.4507
5.00000 28.5426
5.04350 26.9292
5.04350 26.9291
5.04351 26.9289
5.04351 26.9288
5.04352 26.9286
5.04353 26.9281
5.04357 26.9271
5.04363 26.9251
5.04376 26.9210
5.04402 26.9130
5.04454 26.8969
5.04558 26.8649
5.04766 26.8017
5.05182 26.6782
5.06013 26.4423
5.07676 26.0104
5.11001 25.2829
5.17653 24.2447
5.30955 23.3545
5.44258 23.8490
5.57560 26.2155
5.70863 32.3083
5.77514 38.3681
5.84165 48.7742
5.90816 68.3575
5.94142 85.1388
5.97468 110.951
6.00793 153.203
6.04119 228.039
6.07444 373.573
6.09107 497.580
6.10770 676.662
6.12078 863.129
6.13385 1076.56
6.16000 1344.84
6.18615 1080.26
6.21230 681.211
6.22878 503.196
6.24526 379.272
6.27823 232.851
6.31119 156.948
6.34415 113.795
6.37711 87.2520
6.41008 69.8731
6.47600 49.3529
6.47600 49.3524
6.47601 49.3507
6.47602 49.3491
6.47603 49.3460
6.47606 49.3398
6.47611 49.3274
6.47623 49.3027
6.47645 49.2530
6.47690 49.1541
6.47780 48.9577
6.47959 48.5696
6.48319 47.8119
6.49037 46.3670
6.50474 43.7345
6.53348 39.3257
6.59096 32.9502
6.70591 25.6469
6.82087 21.8464
6.93583 19.7081
7.16574 17.8692
7.39565 17.8720
7.62556 19.4384
7.85548 23.3131
8.08539 32.1446
8.20034 40.7700
8.31530 55.7292
8.31530 55.7296
8.31531 55.7310
8.31532 55.7322
8.31533 55.7348
8.31536 55.7398
8.31542 55.7501
8.31554 55.7707
8.31577 55.8116
8.31624 55.8939
8.31718 56.0590
8.31907 56.3920
8.32283 57.0688
8.33036 58.4669
8.34543 61.4542
8.37555 68.3076
8.43580 86.7583
8.49605 115.292
8.55630 162.632
8.61655 249.184
8.64668 321.781
8.67680 431.396
8.70693 606.538
8.73705 906.393
8.75211 1139.08
8.76718 1461.01
8.78224 1911.68
8.79730 2538.35
8.82365 4071.09
8.85000 5104.83
8.87635 4098.10
8.90270 2572.46
8.91985 1872.85
8.93699 1391.44
8.97128 830.633
9.00557 544.109
9.03986 382.719
9.07415 284.065
9.10844 219.748
9.17703 144.108
9.24561 103.168
9.31419 78.5941
9.45135 51.8840
9.58851 38.5147
9.72568 30.9731
10.0000 23.6082
10.3385 21.0420
10.5078 21.6270
10.6770 23.8029
10.6770 23.8032
10.6771 23.8044
10.6771 23.8054
10.6772 23.8075
10.6775 23.8117
10.6779 23.8200
10.6787 23.8366
10.6805 23.8701
10.6839 23.9379
10.6908 24.0770
10.7046 24.3686
10.7323 25.0098
10.7875 26.5588
10.8980 31.0974
11.0085 38.7698
11.1190 52.6170
11.2295 80.6220
11.2848 106.466
11.3400 149.390
11.3953 227.871
11.4229 293.663
11.4505 392.854
11.4781 551.116
11.5058 821.238
11.5196 1030.28
11.5334 1318.84
11.5472 1721.80
11.5610 2280.98
11.5855 3672.61
11.6100 4619.20
11.6345 3703.80
11.6590 2320.00
11.6824 1463.08
11.7059 971.456
11.7293 682.373
11.7528 503.065
11.7762 385.695
11.7996 305.299
11.8465 205.995
11.8934 149.631
11.9403 114.762
12.0340 75.9511
12.1278 56.6088
12.2215 47.3084
12.2684 46.1436
12.3153 49.1296
12.3387 53.8197
12.3621 63.0563
12.3856 81.4861
12.4090 118.847
12.4295 173.455
12.4500 210.869
12.4705 173.901
12.4910 118.233
12.5124 81.3579
12.5338 61.0038
12.5551 49.2715
12.5765 42.0219
12.6193 33.9047
12.6620 29.6646
12.7475 25.6574
12.8330 24.4561
12.9185 25.5803
13.0040 31.1508
13.0468 38.1619
13.0895 52.7950
13.1109 66.3233
13.1323 88.2754
13.1536 125.737
13.1750 190.921
13.1975 296.783
13.2200 368.102
13.2425 299.073
13.2650 193.531
13.2789 146.866
13.2928 114.005
13.3206 74.6406
13.3484 53.8957
13.3763 41.9353
13.4319 29.5309
13.4875 23.5631
13.5988 18.1063
13.7100 15.6673
13.7100 15.6670
13.7101 15.6662
13.7101 15.6654
13.7102 15.6640
13.7104 15.6612
13.7107 15.6555
13.7115 15.6442
13.7129 15.6215
13.7159 15.5768
13.7217 15.4892
13.7334 15.3216
13.7567 15.0137
13.8035 14.4889
13.8969 13.7029
14.0838 12.7547
14.4575 12.1931
14.6444 12.5877
14.8313 14.1405
14.9247 16.1785
15.0181 20.9499
15.0649 26.0600
15.1116 35.9607
15.1349 44.6591
15.1583 58.1990
15.1817 80.1376
15.2050 116.097
15.2325 179.798
15.2600 222.932
15.2875 181.659
15.3150 118.488
15.3453 74.6965
15.3756 51.4664
15.4059 38.6356
15.4363 31.0410
15.4969 23.0860
15.5575 19.3559
15.6788 16.3815
15.8000 15.7101
16.0425 17.7494
16.1638 21.3462
16.2244 25.3370
16.2547 29.0951
16.2850 35.8998
16.3300 50.0650
16.3750 43.9826
16.4128 43.4822
16.4507 48.7782
16.4885 58.9418
16.5264 75.8553
16.5642 104.778
16.6020 158.352
16.6210 203.128
16.6399 269.444
16.6588 370.238
16.6777 523.560
16.7039 831.932
16.7300 1039.89
16.7562 838.027
16.7823 531.523
16.8064 345.838
16.8306 237.009
16.8547 172.047
16.8789 131.404
16.9271 86.4636
16.9754 64.1958
17.0237 52.0541
17.0720 45.1552
17.1685 39.6011
17.2651 40.9482
17.3616 50.1472
17.4099 60.7058
17.4582 81.2927
17.4823 99.7656
17.5064 129.694
17.5306 181.805
17.5426 222.249
17.5547 276.681
17.5660 342.251
17.5774 417.177
17.6000 513.802
17.6030 512.688
17.6030 512.667
17.6031 512.615
17.6031 512.572
17.6032 512.485
17.6034 512.291
17.6037 511.879
17.6043 510.916
17.6057 508.447
17.6083 501.440
17.6136 480.217
17.6242 420.132
17.6453 299.595
17.6652 226.766
17.6850 186.683
17.7247 159.357
17.7644 169.284
17.8042 208.163
17.8240 241.438
17.8439 288.259
17.8637 354.791
17.8836 451.484
17.9034 596.853
17.9233 823.922
17.9432 1192.70
17.9630 1797.68
17.9865 2878.34
18.0100 3614.57
18.0218 3414.18
18.0335 2915.07
18.0570 1843.71
18.0763 1250.21
18.0955 880.085
18.1148 647.396
18.1340 495.829
18.1726 321.226
18.2111 230.738
18.2496 179.503
18.2881 149.169
18.3652 122.332
18.4422 125.258
18.5192 165.068
18.5578 213.177
18.5963 304.340
18.6348 491.418
18.6541 657.173
18.6733 903.434
18.7017 1425.56
18.7300 1776.62
18.7584 1431.03
18.7867 908.840
18.8050 670.657
18.8234 506.318
18.8600 314.311
18.8967 215.907
18.9333 160.502
18.9700 126.776
19.0066 105.038
19.0799 80.3907
19.1532 68.6228
19.2265 63.6791
19.3732 66.9945
19.5198 89.6176
19.5931 114.072
19.6664 156.810
19.7397 237.758
19.7763 307.113
19.8130 413.498
19.8497 586.697
19.8863 890.230
19.9046 1130.95
19.9230 1470.13
19.9413 1955.65
19.9596 2646.37
20.0000 4809.74
20.0200 5363.65
20.0502 4327.05
20.0804 2730.63
20.0993 2019.47
20.1181 1521.41
20.1559 928.215
20.1936 617.881
20.2313 440.139
20.2690 330.127
20.3067 257.681
20.3822 171.481
20.4576 124.154
20.5331 95.3756
20.6839 63.5243
20.8348 47.1299
20.9857 37.5663
21.2875 27.5634
21.5892 23.4058
21.7401 22.8976
21.8910 23.8183
22.0419 27.5512
22.1173 31.7291
22.1927 39.3561
22.2682 54.6201
22.3059 68.3874
22.3436 90.5813
22.3813 129.255
22.4191 204.208
22.4379 269.906
22.4568 371.783
22.4756 535.880
22.4851 653.696
22.4945 803.072
22.5059 1028.98
22.5173 1288.84
22.5400 1623.81
22.5514 1537.01
22.5628 1315.58
22.5855 836.527
22.6030 583.029
22.6030 582.797
22.6031 581.987
22.6031 581.295
22.6033 579.912
22.6035 577.046
22.6040 571.480
22.6050 560.447
22.6070 539.200
22.6109 499.805
22.6188 432.070
22.6347 330.701
22.6663 211.264
22.6980 148.080
22.7296 111.234
22.7613 88.0638
22.7929 72.6309
22.8562 54.1646
22.9195 44.2043
22.9828 38.5626
23.1094 34.3103
23.2360 37.2217
23.2993 42.4787
23.3626 52.7162
23.4259 73.4091
23.4576 91.8571
23.4892 121.055
23.5209 170.480
23.5525 261.986
23.5683 338.518
23.5842 451.757
23.6000 623.665
23.6158 884.932
23.6379 1417.22
23.6600 1781.03
23.6821 1438.53
23.7042 911.343
23.7233 606.623
23.7423 420.938
23.7614 306.348
23.7805 232.640
23.8186 148.427
23.8568 104.612
23.8949 79.0995
23.9330 62.9786
24.0093 44.4770
24.0856 34.6030
24.1618 28.6670
24.3144 22.0847
24.4669 18.6189
24.6195 16.5158
24.9246 14.1221
25.2296 12.8509
25.5347 12.2643
25.6873 12.3455
25.8398 13.1705
25.9161 14.4219
25.9542 15.5946
25.9924 17.5184
26.0305 20.9163
26.0686 27.5731
26.0877 33.4558
26.1068 42.6386
26.1258 57.5479
26.1449 82.0253
26.1675 125.768
26.1900 155.704
26.2126 127.608
26.2351 84.2812
26.2535 60.2647
26.2719 45.2222
26.2904 35.7214
26.3088 29.4998
26.3456 22.2589
26.3825 18.4182
26.4193 16.1501
26.4561 14.6984
26.5298 13.0042
26.6772 11.5038
26.8245 10.8434
27.1192 10.2682
27.4140 10.1221
27.7087 10.4121
27.8560 10.8844
28.0034 11.8669
28.1507 14.0812
28.2244 16.2843
28.2981 20.1879
28.3718 27.9757
28.4086 35.0819
28.4455 46.7452
28.4823 67.6776
28.5007 84.8768
28.5191 110.293
28.5376 149.695
28.5560 214.282
28.5744 326.429
28.5836 412.401
28.5928 526.586
28.6021 674.173
28.6114 843.763
28.6300 1060.87
28.6486 857.722
28.6672 544.048
28.6894 313.193
28.7117 196.484
28.7339 134.145
28.7562 97.9694
28.7784 75.3660
28.8006 60.3923
28.8451 42.4877
28.8896 32.6212
28.9341 26.6220
29.0230 20.0105
29.0230 20.0095
29.0231 20.0065
29.0231 20.0039
29.0232 19.9989
29.0234 19.9888
29.0238 19.9680
29.0246 19.9273
29.0263 19.8466
29.0295 19.6876
29.0360 19.3807
29.0490 18.8085
29.0750 17.8094
29.1270 16.2614
29.2310 14.3207
29.3350 13.2909
29.4390 12.8736
29.5430 13.1095
29.6469 14.6456
29.6989 16.6923
29.7509 21.2033
29.7769 25.6239
29.8029 33.2670
29.8289 47.5449
29.8549 75.5479
29.8775 115.363
29.9000 142.651
29.9226 117.164
29.9451 77.7950
29.9641 55.4361
29.9831 41.6544
30.0021 33.0689
30.0211 27.5128
30.0591 21.1454
30.0970 17.8500
30.1730 14.8298
30.2490 13.6759
30.4009 13.3789
30.5528 14.6758
30.7047 18.2435
30.7807 21.7977
30.8567 27.9152
30.9326 39.4881
30.9706 49.4551
31.0086 64.8545
31.0466 90.1915
31.0845 135.337
31.1225 223.764
31.1415 299.567
31.1605 409.589
31.1754 524.273
31.1903 656.111
31.2200 825.394
31.2498 667.845
31.2795 424.237
31.3147 246.441
31.3498 155.891
31.3850 107.230
31.4201 78.8751
31.4553 61.1104
31.4904 49.3191
31.5607 35.1861
31.6310 27.3883
31.7013 22.6536
31.8420 17.5071
31.9826 15.1236
32.1232 14.4570
32.1935 15.0311
32.2638 17.1579
32.2990 19.6642
32.3341 24.5803
32.3693 35.3451
32.3868 45.5368
32.4044 61.5621
32.4272 92.3406
32.4500 113.306
32.4728 93.3548
32.4956 62.7160
32.5111 48.0496
32.5266 38.0958
32.5577 26.6836
32.5887 20.9275
32.6198 17.6974
32.6818 14.4178
32.7439 12.8707
32.8680 11.5082
32.9922 10.9873
33.2405 10.8964
33.4888 11.7414
33.7370 14.2088
33.8612 16.8239
33.9853 21.6014
34.1095 31.4444
34.1716 40.6910
34.2336 56.3216
34.2957 85.6103
34.3267 110.758
34.3578 149.567
34.3888 213.457
34.4198 327.449
34.4354 419.531
34.4509 551.596
34.4664 744.492
34.4819 1025.12
34.5060 1647.39
34.5300 2072.46
34.5541 1672.39
34.5781 1056.45
34.5936 774.513
34.6091 579.352
34.6402 350.445
34.6712 232.608
34.7023 165.871
34.7333 124.874
34.7643 98.0432
34.8264 66.3478
34.8885 49.0968
34.9506 38.7023
35.0747 27.3743
35.1989 21.7363
35.3230 18.6450
35.5713 16.1061
35.8196 16.7038
35.9438 18.4925
36.0679 22.2318
36.1921 30.2620
36.2541 37.8240
36.3162 50.4828
36.3783 73.7479
36.4093 93.2905
36.4404 122.777
36.4714 169.818
36.5024 250.047
36.5180 312.025
36.5335 397.410
36.5490 516.313
36.5645 680.628
36.5923 1091.89
36.6200 1374.00
36.6478 1111.28
36.6755 705.037
36.6940 513.910
36.7125 383.249
36.7494 232.200
36.7864 155.672
36.8234 112.840
36.8604 86.8317
36.8973 70.0276
36.9713 50.7090
37.0452 40.9463
37.1191 36.0229
37.2670 34.8300
37.2670 34.8306
37.2671 34.8322
37.2671 34.8335
37.2672 34.8365
37.2675 34.8425
37.2679 34.8542
37.2688 34.8782
37.2705 34.9271
37.2740 35.0300
37.2809 35.2551
37.2948 35.7852
37.3225 37.1938
37.3780 41.7383
37.4336 49.6794
37.4891 63.6469
37.5446 89.8811
37.5723 112.089
37.6001 145.712
37.6278 199.532
37.6417 239.063
37.6556 291.669
37.6695 363.163
37.6834 462.046
37.6972 600.399
37.7111 792.582
37.7233 1013.73
37.7356 1268.00
37.7600 1595.38
37.7722 1510.34
37.7845 1293.89
37.8089 826.537
37.8369 494.056
37.8648 322.329
37.8927 230.124
37.9207 177.656
37.9766 128.815
38.0325 117.625
38.0883 134.429
38.1163 157.161
38.1442 196.309
38.1722 264.358
38.2001 388.906
38.2141 490.269
38.2281 635.835
38.2420 848.211
38.2560 1156.61
38.2780 1852.31
38.3000 2332.87
38.3220 1891.98
38.3440 1204.44
38.3657 762.954
38.3873 510.938
38.4090 363.301
38.4306 271.823
38.4739 170.683
38.5172 119.431
38.5605 89.9427
38.6038 71.3787
38.6903 50.0227
38.7769 38.5079
38.8635 31.4939
39.0367 23.5776
39.2099 19.3317
39.3830 16.7346
39.7294 13.8119
40.0757 12.3900
40.4220 12.0885
40.5952 12.7169
40.6818 13.5261
40.7684 15.0819
40.8550 18.3481
40.8983 21.4217
40.9415 26.5991
40.9848 36.2316
41.0065 44.4392
41.0281 57.0038
41.0498 77.4674
41.0714 113.397
41.0931 182.370
41.1039 240.332
41.1147 323.129
41.1235 412.349
41.1324 514.803
41.1500 646.416
41.1677 524.414
41.1853 335.243
41.1997 230.154
41.2142 164.343
41.2286 122.816
41.2430 95.6840
41.2719 64.2125
41.3007 47.6891
41.3296 38.0878
41.3584 32.1015
41.4161 25.5360
41.4738 22.5115
41.5315 21.2895
41.6470 22.2418
41.7624 28.1957
41.8201 34.6725
41.8778 46.1537
41.9355 68.4092
41.9643 87.9366
41.9932 118.611
42.0221 170.212
42.0365 209.923
42.0509 264.998
42.0653 343.718
42.0798 459.414
42.0942 633.759
42.1086 896.210
42.1293 1445.42
42.1500 1826.63
42.1707 1481.20
42.1914 940.983
42.2058 677.397
42.2201 499.870
42.2345 380.403
42.2489 298.197
42.2776 197.606
42.3063 141.773
42.3350 107.935
42.3638 86.0256
42.4212 60.4892
42.4787 46.9594
42.5361 39.2158
42.6510 32.4038
42.7659 32.9901
42.8234 36.5036
42.8808 43.8382
42.9383 58.7423
42.9670 71.7885
42.9957 91.8909
43.0244 124.567
43.0532 181.346
43.0819 288.073
43.0962 375.853
43.1106 499.067
43.1230 638.008
43.1353 797.985
43.1600 1003.80
43.1847 813.130
43.2094 517.682
43.2339 327.789
43.2583 220.030
43.2828 157.211
43.3072 118.433
43.3561 75.7884
43.4050 54.3219
43.4539 42.0438
43.5028 34.3562
43.6006 25.5808
43.6984 20.9017
43.7962 18.0912
43.9918 15.0435
44.1873 13.7085
44.3829 13.7456
44.4807 14.7684
44.5785 17.8790
44.6274 21.6220
44.6763 29.5609
44.7008 37.1333
44.7252 49.9001
44.7497 72.9024
44.7741 115.923
44.7971 180.835
44.8200 225.740
44.8430 184.737
44.8659 120.787
44.8932 73.7437
44.9205 49.8577
44.9478 37.0601
44.9752 29.6246
45.0298 21.9389
45.0844 18.3663
45.1937 15.5960
45.3029 15.3221
45.4122 17.0199
45.4668 19.0688
45.5214 22.7136
45.5760 29.6004
45.6307 44.2473
45.6580 58.2856
45.6853 82.0887
45.7126 125.376
45.7399 207.419
45.7524 263.935
45.7650 328.923
45.7900 412.536
45.8151 335.156
45.8401 215.177
45.8592 152.143
45.8783 111.395
45.8974 84.9371
45.9165 67.2610
45.9547 46.2776
45.9929 34.9758
46.0310 28.2689
46.0692 23.9956
46.1456 19.1220
46.2220 16.6391
46.2984 15.3221
46.4511 14.5691
46.6039 15.8193
46.6802 17.5613
46.7566 20.7934
46.8330 27.1942
46.8712 32.8875
46.9094 41.9527
46.9475 57.5350
46.9857 87.2256
47.0048 112.867
47.0239 152.063
47.0430 214.118
47.0526 258.067
47.0621 313.177
47.0741 399.504
47.0861 498.795
47.1100 626.871
47.1220 593.861
47.1340 509.473
47.1579 326.927
47.1796 217.365
47.2012 152.241
47.2229 112.963
47.2445 88.2277
47.2879 60.8709
47.3312 47.5616
47.3745 40.7527
47.4178 37.5289
47.5045 37.7910
47.5911 46.4741
47.6344 55.6448
47.6777 70.6547
47.7210 96.2560
47.7644 143.418
47.7860 182.721
47.8077 241.228
47.8293 332.209
47.8510 480.222
47.8510 480.397
47.8511 480.922
47.8511 481.448
47.8513 482.502
47.8515 484.530
47.8520 488.710
47.8529 497.123
47.8547 514.528
47.8585 551.786
47.8659 637.322
47.8808 860.585
47.9054 1383.91
47.9300 1744.57
47.9546 1412.34
47.9792 895.938
47.9991 610.928
48.0191 431.597
48.0390 317.819
48.0589 243.137
48.0988 156.000
48.1386 109.755
48.1785 82.5080
48.2183 65.1553
48.2980 45.1399
48.3777 34.4625
48.4574 28.1019
48.6168 21.2839
48.7762 18.1043
48.9356 16.8627
49.0950 17.8651
49.1747 21.1663
49.2146 25.9250
49.2345 30.5511
49.2544 38.1224
49.3000 60.5781
49.3456 43.1683
49.3728 37.1543
49.4000 37.6345
49.4271 44.4764
49.4543 61.2940
49.4772 85.7430
49.5000 102.833
49.5229 87.4246
49.5457 63.5609
49.5711 47.3005
49.5966 39.3413
49.6475 34.5148
49.6983 36.4106
49.7492 43.3124
49.8001 57.7671
49.8510 88.9172
49.8764 118.625
49.9018 168.685
49.9146 206.891
49.9273 258.966
49.9400 330.595
49.9527 428.302
49.9645 546.027
49.9764 681.359
50.0000 855.500
50.0118 810.115
50.0237 694.775
50.0473 445.792
50.0671 305.542
50.0868 218.945
50.1065 165.029
50.1263 130.325
50.1658 91.1999
50.2053 72.0014
50.2842 58.1384
50.3632 60.4788
50.4422 77.3613
50.4817 94.5168
50.5212 122.323
50.5606 169.369
50.6001 254.732
50.6199 324.271
50.6396 424.452
50.6594 571.466
50.6791 786.509
50.7096 1263.34
50.7400 1593.46
50.7705 1292.86
50.8009 823.065
50.8236 580.343
50.8462 421.408
50.8689 317.161
50.8915 246.906
50.9368 162.733
50.9822 116.946
51.0275 89.5831
51.0728 72.0512
51.1634 51.9087
51.2540 41.5348
51.3447 35.9441
51.5259 32.4921
51.7072 37.3369
51.7978 44.4762
51.8884 58.0076
51.9790 85.2305
52.0243 109.620
52.0697 148.548
52.1150 215.369
52.1376 267.780
52.1603 341.769
52.1829 449.860
52.2056 613.313
52.2283 868.446
52.2509 1268.39
52.2805 2041.20
52.3100 2573.78
52.3396 2083.96
52.3691 1322.09
52.3891 958.182
52.4091 710.634
52.4491 426.541
52.4891 283.607
52.5292 204.050
52.5692 156.054
52.6092 125.414
52.6892 91.7204
52.7692 78.7423
52.8493 83.0613
52.8893 95.5740
52.9293 122.605
52.9693 180.987
52.9893 233.405
53.0093 311.490
53.0245 391.547
53.0397 484.346
53.0700 606.255
53.1004 498.584
53.1307 327.338
53.1653 203.952
53.1999 138.834
53.2345 102.793
53.2690 81.2732
53.3382 58.2946
53.4074 47.1942
53.5457 38.4679
53.6840 38.5223
53.8223 47.2450
53.8915 57.5284
53.9607 76.1439
54.0298 112.464
54.0644 144.260
54.0990 193.910
54.1336 276.521
54.1681 425.682
54.1854 547.271
54.2027 723.001
54.2200 981.957
54.2373 1362.70
54.2637 2199.66
54.2900 2781.58
54.3164 2256.98
54.3427 1434.21
54.3677 920.154
54.3927 620.842
54.4177 442.824
54.4427 331.389
54.4926 207.178
54.5426 143.987
54.5926 107.696
54.6426 84.9900
54.7425 59.3175
54.8425 46.1980
54.9424 39.5026
55.0424 39.0046
55.0923 44.6923
55.1173 52.1877
55.1423 66.7219
55.1900 105.798
55.2377 70.3287
55.2735 52.2768
55.3092 46.1326
55.3450 45.9269
55.3807 50.3346
55.4165 60.9044
55.4522 83.2264
55.4701 103.023
55.4880 133.428
55.5058 181.454
55.5237 257.449
55.5469 404.315
55.5700 506.506
55.5932 414.086
55.6163 269.006
55.6422 166.524
55.6680 112.082
55.6939 81.8217
55.7198 63.7138
55.7715 44.2335
55.8232 34.5109
55.8749 28.8972
55.9267 25.3079
56.0301 21.0288
56.2370 16.9370
56.4439 14.8766
56.8577 12.6662
57.2716 11.4628
57.6854 10.8058
58.0992 10.7684
58.3061 11.2450
58.5130 12.7551
58.6165 14.6703
58.7199 19.2309
58.7716 24.3599
58.8234 35.1359
58.8492 45.5619
58.8751 63.6078
58.9009 97.6425
58.9268 165.689
58.9484 259.453
58.9700 323.123
58.9916 262.519
59.0132 169.809
59.0337 112.491
59.0541 79.3866
59.0745 59.8907
59.0950 47.8524
59.1359 34.8594
59.1767 28.7794
59.2585 24.6960
59.3403 25.7480
59.4220 31.3624
59.4629 36.9508
59.5038 46.0403
59.5447 61.6939
59.5855 91.2425
59.6060 116.449
59.6264 154.547
59.6469 213.982
59.6673 307.227
59.6937 484.375
59.7200 603.490
59.7464 487.014
59.7727 310.966
59.7897 230.877
59.8067 175.725
59.8408 111.591
59.8748 79.0990
59.9088 61.1680
59.9769 44.1588
60.0450 37.8680
60.1811 37.9408
60.2492 42.0843
60.3173 49.1878
60.3853 60.3489
60.4534 77.7911
60.5215 105.940
60.5895 154.201
60.6236 191.905
60.6576 245.015
60.6916 322.719
60.7257 441.723
60.7597 634.947
60.7937 971.678
60.8278 1608.24
60.8448 2135.36
60.8618 2878.82
60.8909 4686.81
60.9200 5964.73
60.9491 4861.41
60.9782 3097.58
61.0072 1947.74
61.0362 1293.68
61.0652 911.737
61.0942 675.670
61.1231 521.314
61.1521 415.492
61.2101 284.327
61.2681 209.326
61.3261 162.475
61.4420 109.356
61.4420 109.349
61.4421 109.327
61.4421 109.308
61.4423 109.267
61.4425 109.184
61.4430 109.022
61.4441 108.697
61.4461 108.051
61.4502 106.785
61.4585 104.331
61.4749 99.7335
61.5079 91.6260
61.5737 78.8308
61.7054 62.2109
61.8370 52.7885
61.9687 48.1654
62.1004 48.4154
62.1662 51.3687
62.2321 57.9085
62.2979 71.6484
62.3637 102.868
62.3967 134.050
62.4296 188.881
62.4625 293.550
62.4954 504.848
62.5227 795.479
62.5500 993.436
62.5773 805.662
62.6046 517.290
62.6373 305.158
62.6700 198.148
62.7027 141.084
62.7353 108.035
62.8007 73.9563
62.8661 58.1100
62.9314 49.9218
62.9968 45.6701
63.1275 43.9482
63.2582 49.9953
63.3236 57.3820
63.3890 70.3392
63.4543 94.4655
63.5197 145.740
63.5524 195.848
63.5850 284.104
63.6177 456.197
63.6341 604.076
63.6504 819.588
63.6752 1285.02
63.7000 1598.53
63.7248 1299.61
63.7496 847.841
63.7669 631.986
63.7842 491.251
63.8187 345.084
63.8533 293.936
63.8878 296.471
63.9224 346.028
63.9569 459.498
63.9742 553.918
63.9915 686.866
64.0087 874.034
64.0260 1133.69
64.0580 1815.75
64.0900 2302.47
64.1060 2190.59
64.1220 1885.83
64.1540 1214.44
64.1754 893.224
64.1968 672.104
64.2397 414.294
64.2825 281.717
64.3253 206.235
64.3682 159.436
64.4110 128.445
64.4967 91.0917
64.5824 70.1205
64.6680 57.0491
64.8394 42.0489
65.0107 33.9116
65.1820 28.9042
65.5247 23.2026
65.8674 20.2924
66.2101 19.3657
66.3814 20.2840
66.4671 21.6423
66.5527 24.3687
66.6384 30.2087
66.6812 35.7065
66.7241 44.8606
66.7669 61.4519
66.8097 95.3591
66.8312 126.677
66.8526 177.768
66.8740 265.824
66.8847 332.816
66.8954 421.325
66.9066 539.300
66.9177 675.695
66.9400 854.567
66.9623 698.228
66.9846 449.462
67.0021 314.758
67.0196 228.388
67.0371 172.727
67.0545 135.705
67.0895 91.9376
67.1245 68.3929
67.1594 54.3925
67.1944 45.4303
67.2643 35.0779
67.3342 29.6311
67.4042 26.5475
67.5440 24.0551
67.6839 25.1939
67.7538 27.7024
67.8237 32.8085
67.8936 43.4961
67.9286 53.2507
67.9636 68.9715
67.9985 96.1488
68.0335 147.759
68.0510 191.901
68.0684 258.588
68.0859 362.338
68.1034 524.512
68.1151 673.704
68.1267 846.683
68.1500 1075.49
68.1733 879.787
68.1966 565.748
68.2106 428.857
68.2246 331.130
68.2526 211.913
68.2806 147.868
68.3086 110.453
68.3366 86.9213
68.3646 71.2248
68.4206 52.2440
68.4766 41.6081
68.5326 35.0221
68.6446 27.5556
68.7566 23.5901
68.8686 21.2193
69.0927 18.7364
69.3167 17.9884
69.4287 18.2920
69.5407 19.4040
69.6527 22.2556
69.7087 25.1143
69.7647 30.0360
69.8207 39.2539
69.8487 47.0635
69.8767 58.8937
69.9047 77.7872
69.9327 109.960
69.9607 168.744
69.9887 280.798
70.0015 358.255
70.0144 447.706
70.0400 564.724
70.0657 461.357
70.0913 297.785
70.1103 213.529
70.1292 158.090
70.1482 121.570
70.1671 96.8639
70.2050 67.1173
70.2429 50.8250
70.2808 41.0138
70.3187 34.6625
70.3944 27.2065
70.4702 23.1529
70.5460 20.7086
70.6976 18.1143
70.8491 17.1720
70.9249 17.2527
71.0007 17.9169
71.0765 19.7496
71.1144 21.5783
71.1522 24.6517
71.1901 30.1581
71.2280 41.0242
71.2470 50.6312
71.2659 65.5766
71.2849 89.7175
71.3038 129.065
71.3269 201.917
71.3500 253.634
71.3731 209.447
71.3962 138.384
71.4137 100.855
71.4312 76.3440
71.4487 60.3000
71.4662 49.4953
71.5011 36.5282
71.5361 29.4304
71.5711 25.1421
71.6060 22.3505
71.6760 19.0307
71.7459 17.1762
71.8159 16.0117
71.9558 14.6384
72.2355 13.3233
72.5153 12.6513
72.7951 12.2426
73.0749 12.0556
73.2147 12.1297
73.3546 12.5779
73.4246 13.2296
73.4945 14.8088
73.5295 16.5059
73.5645 19.7470
73.5820 22.5332
73.5994 26.7591
73.6169 33.3745
73.6344 43.7713
73.6572 63.9274
73.6800 77.9589
73.7028 65.3676
73.7256 45.5499
73.7522 31.1341
73.7787 23.6799
73.8052 19.6252
73.8318 17.2370
73.8849 14.7136
73.9379 13.4821
74.0441 12.3511
74.1503 11.8509
74.3626 11.4227
74.5750 11.2875
74.7873 11.3541
74.9996 11.7879
75.1058 12.3865
75.2120 13.8447
75.2651 15.4973
75.3181 18.9732
75.3447 22.3258
75.3712 28.0994
75.3978 38.8817
75.4243 60.1230
75.4472 90.2079
75.4700 111.013
75.4929 92.0881
75.5157 62.5529
75.5369 44.4612
75.5581 33.8442
75.5793 27.5014
75.6004 23.5370
75.6428 19.1736
75.6852 17.0432
75.7699 15.3184
75.8547 14.9430
76.0241 15.9248
76.1936 18.9833
76.3631 26.0873
76.4478 33.0814
76.5326 45.2579
76.6173 68.8259
76.6597 89.6147
76.7020 122.492
76.7444 178.315
76.7656 221.681
76.7868 282.339
76.8080 369.915
76.8291 500.313
76.8503 699.762
76.8715 1005.55
76.9008 1626.96
76.9300 2061.39
76.9593 1675.35
76.9885 1066.06
77.0183 664.154
77.0480 438.843
77.0778 308.770
77.1075 229.037
77.1373 177.259
77.1671 141.940
77.2266 98.4009
77.2861 73.6431
77.3456 58.2315
77.4646 40.7828
77.5837 31.5907
77.7027 26.1173
77.9408 20.1270
78.1788 17.0431
78.4169 15.2326
78.6549 14.0967
78.8930 13.3946
78.8930 13.3945
78.8931 13.3944
78.8931 13.3943
78.8932 13.3942
78.8933 13.3938
78.8937 13.3931
78.8943 13.3917
78.8956 13.3888
78.8983 13.3832
78.9035 13.3720
78.9140 13.3502
78.9350 13.3087
78.9770 13.2341
79.0609 13.1201
79.2289 13.0529
79.3968 13.2856
79.5647 14.0654
79.7326 16.1005
79.8166 18.2058
79.9006 21.9625
79.9845 29.3880
80.0265 36.0406
80.0685 46.7051
80.1105 65.1383
80.1524 100.388
80.1734 130.835
80.1944 177.336
80.2154 250.749
80.2364 367.503
80.2498 471.060
80.2632 590.808
80.2900 747.643
80.3168 609.676
80.3436 391.143
80.3700 250.214
80.3965 169.832
80.4229 122.818
80.4494 93.7587
80.5022 61.8272
80.5551 45.9154
80.6080 37.0541
80.6609 31.8183
80.7666 27.0799
80.8724 27.4841
80.9252 29.9891
80.9781 35.2264
81.0310 45.8182
81.0839 68.9948
81.1103 91.3344
81.1367 129.116
81.1632 197.192
81.1764 251.020
81.1896 324.230
81.2022 414.790
81.2148 519.694
81.2400 658.059
81.2652 538.812
81.2904 347.877
81.3163 220.487
81.3421 149.187
81.3680 108.030
81.3939 82.7693
81.4197 66.3286
81.4456 55.0791
81.4973 41.1314
81.5490 33.1250
81.6007 28.0876
81.7042 22.2944
81.8076 19.1836
81.9111 17.3214
82.1180 15.4201
82.3248 15.0238
82.4283 15.4795
82.5317 16.7628
82.6352 19.8722
82.6869 22.9527
82.7386 28.2555
82.7903 38.2438
82.8162 46.7790
82.8421 59.8306
82.8679 80.9571
82.8938 117.642
82.9196 186.624
82.9326 243.447
82.9455 323.312
82.9566 413.614
82.9678 517.774
82.9900 653.757
83.0123 533.259
83.0345 342.633
83.0489 254.591
83.0633 193.462
83.0920 121.432
83.1207 84.1307
83.1495 62.8796
83.1782 49.7564
83.2070 41.1193
83.2644 30.8353
83.3219 25.1833
83.3794 21.7560
83.4944 18.0690
83.6093 16.5322
83.7243 16.7229
83.7818 18.0139
83.8392 21.4886
83.8680 25.1812
83.8967 31.9026
83.9255 45.1878
83.9398 56.5860
83.9542 73.1082
83.9771 110.931
84.0000 137.430
84.0229 113.908
84.0458 76.6858
84.0685 52.5430
84.0912 38.7630
84.1139 30.6810
84.1366 25.6594
84.1820 20.0703
84.2274 17.1973
84.2728 15.5114
84.3182 14.4236
84.4089 13.1172
84.5905 11.8620
84.7721 11.2328
85.1352 10.5980
85.4984 10.4075
85.8615 10.7976
86.0431 11.4751
86.2246 12.9389
86.4062 16.3545
86.4970 19.8361
86.5878 26.1277
86.6786 38.9903
86.7240 50.9933
86.7693 71.1318
86.8147 108.407
86.8374 139.982
86.8601 188.003
86.8828 265.440
86.9055 399.344
86.9169 504.210
86.9282 650.368
86.9396 856.649
86.9509 1145.75
86.9705 1848.91
86.9900 2336.64
87.0096 1895.86
87.0291 1204.74
87.0484 760.291
87.0676 506.911
87.0869 358.811
87.1061 267.317
87.1447 166.916
87.1832 116.869
87.2217 88.8795
87.2602 72.0980
87.3373 55.6291
87.4143 52.6156
87.4528 55.8995
87.4913 63.9337
87.5299 80.0937
87.5684 112.496
87.5876 140.408
87.6069 182.249
87.6262 246.282
87.6454 344.096
87.6591 438.921
87.6727 549.069
87.7000 695.421
87.7273 571.442
87.7546 371.029
87.7787 251.468
87.8027 178.564
87.8268 133.494
87.8508 104.388
87.8989 70.8340
87.9470 53.0734
87.9951 42.5165
88.0432 35.6905
88.1394 27.5891
88.2356 23.0559
88.3318 20.2142
88.5242 16.9508
88.7165 15.3492
88.9089 15.0820
89.0051 15.9150
89.0532 16.9242
89.1013 18.7642
89.1494 22.3074
89.1975 29.9075
89.2216 37.1753
89.2456 49.4054
89.2697 71.3169
89.2937 111.930
89.3169 174.817
89.3400 219.203
89.3632 180.606
89.3863 119.076
89.4070 82.1971
89.4276 59.9581
89.4483 46.3370
89.4689 37.6127
89.5102 27.6578
89.5515 22.4632
89.5928 19.4191
89.6341 17.4812
89.7167 15.2405
89.8819 13.3915
90.0472 12.9621
90.2124 13.6781
90.2950 14.7974
90.3776 17.0366
90.4602 21.8281
90.5015 26.3483
90.5428 33.9064
90.5841 47.6914
90.6254 76.1345
90.6461 102.651
90.6667 146.344
90.6770 178.986
90.6874 222.572
90.6977 281.239
90.7080 359.407
90.7185 461.630
90.7290 580.091
90.7500 736.849
90.7605 701.023
90.7710 603.378
90.7920 388.513
90.8073 278.356
90.8227 205.346
90.8380 156.893
90.8533 123.947
90.8840 84.0537
90.9146 62.0839
90.9453 48.8087
90.9759 40.1984
91.0372 30.0849
91.0985 24.5919
91.1598 21.2828
91.2824 17.7027
91.5276 15.2089
91.7728 15.2092
92.0179 17.1664
92.2631 22.6620
92.3857 28.4771
92.5083 39.5874
92.5696 49.7772
92.6309 67.8418
92.6616 83.4139
92.6922 108.629
92.7229 154.269
92.7535 245.002
92.7768 356.761
92.8000 429.665
92.8233 360.582
92.8465 261.206
92.8685 206.132
92.8904 181.138
92.9344 178.548
92.9783 212.841
93.0223 282.985
93.0662 410.196
93.0882 510.564
93.1101 651.532
93.1321 854.985
93.1541 1157.27
93.1760 1617.40
93.1980 2318.18
93.2290 3774.52
93.2600 4807.04
93.2910 3921.99
93.3220 2502.11
93.3438 1797.84
93.3655 1323.57
93.3873 1004.44
93.4090 784.951
93.4525 516.082
93.4960 366.330
93.5395 275.124
93.5830 215.650
93.6701 145.341
93.7571 106.835
93.8441 83.3873
94.0181 57.3321
94.1921 43.9506
94.3662 36.6203
94.4532 34.7134
94.5402 34.6417
94.5837 36.1077
94.6272 40.1362
94.6490 44.2182
94.6707 51.1108
94.6925 63.2177
94.7142 84.8345
94.7371 121.039
94.7600 147.464
94.7829 126.591
94.8058 91.9553
94.8244 72.6355
94.8430 60.6049
94.8801 48.7624
94.9173 45.0057
94.9545 45.9582
94.9916 51.8046
95.0288 66.0553
95.0474 79.2479
95.0659 99.9625
95.0845 133.316
95.1031 187.170
95.1266 290.047
95.1500 363.227
95.1735 300.398
95.1969 199.421
95.2222 129.442
95.2474 91.2070
95.2727 69.4787
95.2979 56.2543
95.3484 41.7665
95.3989 34.3857
95.5000 27.2534
95.6010 23.8761
95.8030 20.7108
96.0051 19.4602
96.2071 19.4892
96.4091 21.6454
96.5102 24.7902
96.6112 32.3311
96.6617 40.6378
96.7122 57.5629
96.7375 73.4114
96.7627 99.9193
96.7880 147.550
96.8132 236.882
96.8366 370.048
96.8600 462.333
96.8834 379.257
96.9068 249.604
96.9251 180.263
96.9435 136.340
96.9801 90.5232
97.0168 70.5953
97.0534 61.7410
97.1267 59.1228
97.2000 68.9095
97.2000 68.9138
97.2001 68.9247
97.2001 68.9333
97.2002 68.9507
97.2004 68.9876
97.2007 69.0595
97.2013 69.2041
97.2027 69.4966
97.2053 70.0951
97.2106 71.3495
97.2212 74.0864
97.2423 80.5809
97.2846 98.7147
97.3269 126.980
97.3692 172.583
97.3904 206.061
97.4115 250.595
97.4327 311.149
97.4538 395.572
97.4750 516.575
97.4961 694.964
97.5173 963.982
97.5384 1369.54
97.5692 2239.29
97.6000 2868.57
97.6308 2358.76
97.6616 1518.71
97.6828 1106.46
97.7039 825.121
97.7251 633.770
97.7462 500.870
97.7885 336.396
97.8308 243.701
97.8731 186.741
97.9154 149.303
98.0000 104.629
98.0000 113.081
100.000 112.029
101.503 111.371
105.711 109.530
109.813 107.734
117.940 104.177
125.000 101.087
125.542 100.912
132.595 98.6334
139.091 96.5347
145.035 94.6141
150.000 93.0100
156.056 91.4555
164.867 89.1935
170.000 87.8758
171.800 87.5034
182.751 85.2384
194.400 82.8290
200.000 81.6707
203.007 81.2052
211.422 79.9027
219.627 78.6326
235.880 76.1168
250.000 73.9311
251.084 73.8072
265.191 72.1952
278.182 70.7105
290.071 69.3519
300.000 68.2172
312.111 67.1413
329.734 65.5759
343.601 64.3440
350.000 63.7756
365.502 62.6654
388.800 60.9969
400.000 60.1948
406.014 59.8654
422.843 58.9438
439.253 58.0450
471.759 56.2649
500.000 54.7182
502.169 54.6305
530.381 53.4896
556.364 52.4389
580.141 51.4774
600.000 50.6743
624.223 49.9289
659.468 48.8442
687.202 47.9907
720.000 46.9814
731.005 46.7205
777.600 45.6155
812.027 44.7991
845.686 44.0010
850.000 43.8987
878.507 43.3700
943.518 42.1644
1000.00 41.1170
1004.34 41.0568
1060.76 40.2732
1112.73 39.5516
1160.28 38.8913
1248.45 37.6671
1250.00 37.6455
1318.94 36.9382
1374.40 36.3692
1462.01 35.4704
1500.00 35.0806
1555.20 34.6303
1624.06 34.0686
1691.37 33.5195
1700.00 33.4491
1757.01 33.0741
1887.04 32.2187
2000.00 31.4756
2008.68 31.4324
2125.00 30.8529
2181.02 30.5738
2225.46 30.3524
2250.00 30.2301
2320.57 29.8786
2352.79 29.7180
2375.00 29.6074
2496.89 29.0001
2500.00 28.9846
2514.16 28.9314
2625.00 28.5148
2637.87 28.4665
2748.81 28.0495
2750.00 28.0450
2823.65 27.7682
2875.00 27.5752
2924.02 27.3910
3000.00 27.1054
3080.51 26.8648
3110.40 26.7755
3248.11 26.3639
3250.00 26.3582
3288.38 26.2435
3382.74 25.9615
3500.00 25.6110
3514.03 25.5762
3626.78 25.2960
3750.00 24.9897
3774.07 24.9299
4000.00 24.3685
4017.35 24.3352
4243.05 23.9022
4250.00 23.8889
4362.03 23.6740
4450.91 23.5035
4500.00 23.4094
4641.13 23.1387
4705.59 23.0150
4750.00 22.9298
4993.78 22.4622
5000.00 22.4503
5028.33 22.4093
5250.00 22.0886
5275.74 22.0514
5497.61 21.7304
5500.00 21.7270
5647.29 21.5139
5750.00 21.3653
5848.04 21.2235
6000.00 21.0036
6161.02 20.8184
6220.80 20.7497
6496.22 20.4329
6500.00 20.4286
6576.76 20.3403
6765.49 20.1232
7000.00 19.8535
7028.06 19.8267
7253.56 19.6111
7500.00 19.3754
7548.15 19.3294
8000.00 18.8973
8034.70 18.8698
8486.10 18.5121
8500.00 18.5011
8901.83 18.1827
8944.27 18.1491
9000.00 18.1049
9282.26 17.9117
9500.00 17.7626
9987.56 17.4289
10000.0 17.4204
10551.5 17.1479
10625.0 17.1116
10905.1 16.9732
10995.2 16.9286
11250.0 16.8028
11696.1 16.5824
11764.0 16.5488
11875.0 16.4940
12441.6 16.2140
12500.0 16.1852
12992.4 15.9952
13125.0 15.9441
13433.0 15.8253
13531.0 15.7875
13750.0 15.7031
14056.1 15.5850
14375.0 15.4620
14838.4 15.2832
15000.0 15.2209
15096.3 15.1913
15988.1 14.9170
16069.4 14.8920
16250.0 14.8365
16972.2 14.6144
17000.0 14.6059
17500.0 14.4775
17803.7 14.3996
17881.9 14.3795
18564.5 14.2043
18750.0 14.1567
19975.1 13.8423
20000.0 13.8359
21103.0 13.6214
21250.0 13.5929
21990.5 13.4489
22133.6 13.4210
22500.0 13.3498
23392.2 13.1763
23750.0 13.1067
23882.0 13.0810
24883.2 12.8863
25000.0 12.8636
25984.9 12.7148
26171.4 12.6866
26250.0 12.6747
26734.0 12.6016
26766.8 12.5967
27062.0 12.5521
27500.0 12.4859
27515.6 12.4835
28112.2 12.3933
28116.7 12.3927
28750.0 12.2970
29043.1 12.2527
30000.0 12.1081
30192.6 12.0912
31098.4 12.0118
32092.5 11.9247
32138.8 11.9206
32500.0 11.8890
32988.4 11.8462
34224.2 11.7379
34616.7 11.7035
35000.0 11.6699
35890.5 11.5922
36876.5 11.5062
37500.0 11.4519
38406.5 11.3728
40000.0 11.2339
42294.9 11.0346
42500.0 11.0168
44102.0 10.8777
45000.0 10.7997
46958.5 10.6296
47500.0 10.5826
49766.4 10.3858
50000.0 10.3655
52500.0 10.2423
54772.3 10.1303
55000.0 10.1190
60000.0 9.87260
62408.9 9.75393
64807.4 9.63578
65000.0 9.62629
70000.0 9.37998
70000.0 9.37998
74833.2 9.20883
75000.0 9.20292
80000.0 9.02587
80000.0 9.02587
80059.7 9.02375
80118.5 9.02166
80176.4 9.01961
80233.4 9.01759
80289.6 9.01559
80344.9 9.01363
80399.5 9.01170
80453.2 9.00979
80506.1 9.00792
80527.6 9.00715
80558.2 9.00607
80609.5 9.00425
80660.1 9.00245
80709.9 9.00069
80758.9 8.99895
80807.2 8.99723
80854.8 8.99555
80901.7 8.99388
80947.9 8.99225
80993.3 8.99063
81038.1 8.98905
81082.2 8.98748
81125.7 8.98594
81168.5 8.98442
81210.6 8.98293
81252.1 8.98146
81293.0 8.98001
81333.2 8.97858
81372.9 8.97717
81411.9 8.97579
81450.4 8.97442
81488.2 8.97308
81525.5 8.97176
81562.3 8.97045
81598.4 8.96917
81634.1 8.96791
81669.2 8.96666
81703.7 8.96544
81737.7 8.96423
81771.2 8.96304
81804.2 8.96187
81836.7 8.96072
81900.7 8.95845
81962.8 8.95625
82022.9 8.95412
82081.3 8.95205
82137.8 8.95004
82192.6 8.94810
82245.7 8.94621
82297.3 8.94439
82347.2 8.94262
82395.6 8.94090
82442.5 8.93924
82488.0 8.93762
82532.0 8.93606
82574.7 8.93454
82616.1 8.93308
82656.3 8.93165
82695.2 8.93027
82732.9 8.92894
82769.4 8.92764
82804.8 8.92638
82839.1 8.92517
82872.4 8.92399
82936.9 8.92170
82997.3 8.91956
83054.1 8.91754
83107.3 8.91565
83157.3 8.91388
83204.1 8.91222
83248.1 8.91066
83289.3 8.90920
83327.9 8.90783
83364.2 8.90654
83398.2 8.90534
83462.0 8.90307
83517.9 8.90109
83566.8 8.89936
83609.6 8.89784
83647.1 8.89651
83679.9 8.89535
83737.4 8.89331
83780.5 8.89178
83845.2 8.88948
83910.0 8.88719
83910.0 8.43462
83919.9 8.43428
91600.2 8.22969
98072.7 8.05727
100000 8.01612
103861 7.92480
104427 7.91209
108756 7.81785
109051 7.81168
117361 7.65184
117640 7.64674
117772 7.64458
124818 7.52921
125448 7.51890
132979 7.40096
134330 7.38057
139917 7.30667
139939 7.30638
146328 7.22476
148384 7.19924
152156 7.15893
152620 7.15417
154009 7.14300
162920 7.07129
171490 7.00604
172270 7.00043
173990 6.99103
185197 6.96629
194334 6.95015
200000 6.94606
201319 6.94722
210379 6.95519
211474 6.95615
220510 6.96612
223464 6.97003
223607 6.97022
234792 6.99541
236832 7.00049
250000 7.04539
271509 6.98611
293926 6.95337
300000 6.94450
323983 6.91278
327204 6.90869
350000 6.88524
385526 6.86198
399015 6.85315
399619 6.85316
400000 6.85317
405950 6.84968
443909 6.84072
445540 6.84033
450000 6.84017
451086 6.83989
476120 6.83940
481072 6.83930
484223 6.83932
500000 6.83946
541549 6.84570
550000 6.84827
555641 6.84840
563422 6.84947
572753 6.85185
588859 6.85789
593892 6.86040
600000 6.86346
621070 6.86748
638900 6.87241
639189 6.87249
641202 6.87322
646235 6.87550
650000 6.87754
659321 6.88019
662340 6.88105
686499 6.88960
700000 6.89532
800000 6.92968
900000 6.95955
1.00000E+06 6.98181
1.50000E+06 6.97253
1.75000E+06 6.90234
2.00000E+06 6.80133
2.25000E+06 6.67967
2.50000E+06 6.54869
3.00000E+06 6.27685
4.00000E+06 5.72135
5.00000E+06 5.28873
5.93288E+06 5.06853
6.00000E+06 5.05269
7.00000E+06 4.93558
7.10944E+06 4.93275
7.21710E+06 4.92997
7.32294E+06 4.92723
7.42696E+06 4.92454
7.52913E+06 4.92190
7.62945E+06 4.91931
7.72791E+06 4.91677
7.82451E+06 4.91428
7.91924E+06 4.91183
8.00000E+06 4.90975
8.01210E+06 4.91010
8.10000E+06 4.91582
8.19513E+06 4.92202
8.20000E+06 4.92233
8.30000E+06 4.92885
8.37052E+06 4.93344
8.40000E+06 4.93536
8.50000E+06 4.94187
8.53835E+06 4.94291
8.60630E+06 4.94476
8.60640E+06 4.94476
8.67130E+06 4.94852
8.69874E+06 4.95012
8.70000E+06 4.95019
8.80000E+06 4.95599
8.85185E+06 4.95900
8.99784E+06 4.97026
9.00000E+06 4.97043
9.00618E+06 4.96946
9.10000E+06 4.97561
9.13688E+06 4.97803
9.20000E+06 4.98217
9.26919E+06 4.98672
9.30000E+06 4.98874
9.39497E+06 4.99497
9.40000E+06 4.99530
9.50000E+06 5.00187
9.51443E+06 5.00298
9.60000E+06 5.00954
9.62781E+06 5.01168
9.67395E+06 5.01522
9.70000E+06 5.01722
9.80000E+06 5.02490
9.83991E+06 5.02796
9.84405E+06 5.02828
9.90000E+06 5.03258
9.99809E+06 5.04012
1.00000E+07 5.04026
1.00372E+07 5.04185
1.01487E+07 5.04659
1.02094E+07 5.04918
1.02500E+07 5.05091
1.02919E+07 5.05269
1.03624E+07 5.05570
1.04281E+07 5.05850
1.04982E+07 5.06149
1.05000E+07 5.06157
1.06882E+07 5.07294
1.07402E+07 5.07608
1.07500E+07 5.07668
1.09211E+07 5.08704
1.10000E+07 5.09182
1.11291E+07 5.09909
1.12500E+07 5.10590
1.13143E+07 5.10952
1.14789E+07 5.11879
1.15000E+07 5.11998
1.17500E+07 5.13729
1.17727E+07 5.13886
1.19980E+07 5.15448
1.20000E+07 5.15462
1.21697E+07 5.16641
1.22500E+07 5.17198
1.24320E+07 5.18466
1.25000E+07 5.18939
1.27000E+07 5.20336
1.27500E+07 5.20453
1.30000E+07 5.21047
1.32500E+07 5.21648
1.35000E+07 5.22260
1.37500E+07 5.22881
1.40000E+07 5.23515
1.42500E+07 5.23441
1.45000E+07 5.23380
1.47500E+07 5.23332
1.49560E+07 5.23303
1.50000E+07 5.23298
1.52500E+07 5.22760
1.55000E+07 5.22234
1.57500E+07 5.21715
1.60000E+07 5.21205
1.60729E+07 5.21069
1.62500E+07 5.20405
1.65000E+07 5.19474
1.67500E+07 5.18547
1.70000E+07 5.17627
1.72500E+07 5.16288
1.75000E+07 5.14956
1.77500E+07 5.13625
1.80000E+07 5.12300
1.82500E+07 5.10546
1.85000E+07 5.08793
1.87500E+07 5.07037
1.90000E+07 5.05281
1.92500E+07 5.03516
1.95000E+07 5.01752
1.97500E+07 4.99984
2.00000E+07 4.98216