Gd-152(n,g) ENDF/B-VII.1
Energy(eV) XS(b)
1.00000E-05 37269.4
1.25893E-05 33216.3
1.58489E-05 29604.1
1.99526E-05 26384.7
2.00000E-05 26353.4
2.01600E-05 26248.6
2.03199E-05 26145.1
2.06399E-05 25941.7
2.12797E-05 25548.7
2.25595E-05 24813.4
2.51189E-05 23515.3
3.16228E-05 20958.0
3.98107E-05 18678.8
5.00000E-05 16667.2
5.01187E-05 16647.4
5.05242E-05 16580.5
5.09298E-05 16514.3
5.17408E-05 16384.4
5.33630E-05 16133.4
5.66072E-05 15664.3
6.30957E-05 14837.0
7.94328E-05 13223.4
0.000100000 11785.3
0.000125893 10503.5
0.000158489 9361.22
0.000199526 8343.08
0.000200000 8333.18
0.000201600 8300.05
0.000203199 8267.31
0.000206399 8202.98
0.000212797 8078.69
0.000225595 7846.18
0.000251189 7435.64
0.000316228 6626.89
0.000398107 5906.07
0.000500000 5269.86
0.000501187 5263.61
0.000505242 5242.44
0.000509298 5221.52
0.000517408 5180.42
0.000533630 5101.05
0.000566072 4952.67
0.000630957 4691.01
0.000794328 4180.64
0.00100000 3725.76
0.00126000 3318.89
0.00158000 2963.50
0.00200000 2633.67
0.00251000 2350.54
0.00316000 2094.45
0.00398000 1865.77
0.00500000 1664.08
0.00501000 1662.41
0.00505063 1655.69
0.00509125 1649.05
0.00517250 1636.01
0.00533500 1610.81
0.00566000 1563.72
0.00631000 1480.69
0.00794000 1319.29
0.0100000 1174.81
0.0125900 1046.15
0.0158500 931.412
0.0199500 829.122
0.0200000 828.071
0.0201600 824.737
0.0203200 821.442
0.0206400 814.966
0.0212800 802.454
0.0225600 779.040
0.0251200 737.676
0.0253000 735.005
0.0256950 729.242
0.0260900 723.610
0.0268800 712.718
0.0284600 692.304
0.0316200 656.142
0.0398100 583.249
0.0500000 518.756
0.0501200 518.115
0.0505256 515.964
0.0509313 513.840
0.0517425 509.665
0.0533650 501.600
0.0566100 486.512
0.0631000 459.869
0.0794300 407.775
0.100000 361.080
0.125890 319.217
0.158490 281.623
0.199530 247.824
0.200000 247.497
0.201600 246.391
0.203199 245.298
0.206399 243.149
0.212798 238.994
0.225595 231.204
0.251190 217.394
0.316230 189.952
0.398110 165.172
0.500000 142.996
0.501190 142.776
0.505245 142.032
0.509301 141.297
0.517411 139.852
0.533633 137.056
0.566075 131.816
0.630960 122.528
0.794330 104.237
1.00000 87.7538
1.25893 72.9693
1.58489 59.8082
1.99526 48.2191
2.00000 48.1077
2.01600 47.7350
2.03199 47.3670
2.06399 46.6450
2.12797 45.2543
2.25595 42.6688
2.51189 38.1656
3.16228 29.6110
3.98107 22.5052
5.00000 16.8306
5.01187 16.7784
5.05242 16.6019
5.09298 16.4285
5.17408 16.0902
5.33630 15.4467
5.66072 14.2804
6.30957 12.3531
7.94328 9.23876
8.97164 8.31367
10.0000 8.55885
10.5801 10.0155
10.8701 11.7242
11.1601 15.0097
11.4501 22.1689
11.5951 29.2766
11.7402 42.0637
11.8127 52.6641
11.8852 68.5766
11.9577 94.0294
12.0302 138.459
12.1027 226.659
12.1389 307.520
12.1571 365.530
12.1661 400.927
12.1752 441.756
12.1843 489.230
12.1933 544.725
12.2024 610.283
12.2115 688.265
12.2205 782.179
12.2296 896.310
12.2386 1036.90
12.2477 1212.54
12.2568 1435.70
12.2658 1723.66
12.2749 2102.89
12.2840 2613.08
12.2930 3315.86
12.3021 4302.43
12.3111 5708.91
12.3202 7702.64
12.3351 12306.4
12.3500 15359.0
12.3575 14448.1
12.3649 12277.9
12.3798 7673.35
12.3929 4995.41
12.4060 3388.39
12.4191 2408.65
12.4322 1784.80
12.4584 1080.47
12.4845 719.292
12.5107 511.850
12.5369 382.435
12.5893 236.688
12.6402 162.605
12.6911 118.853
12.7930 71.9785
12.8949 48.7450
12.9967 35.5726
13.0986 27.3888
13.2004 21.9573
13.4042 15.4125
13.6079 11.7575
13.8116 9.49987
14.2191 6.94551
15.0340 4.74899
15.8489 3.78522
17.9008 2.73449
19.9526 2.27868
20.0000 2.27144
20.1600 2.24784
20.3199 2.22551
20.6399 2.18447
21.2797 2.11581
22.5594 2.02686
25.1189 2.03324
28.3708 2.54031
29.9968 3.24062
31.6228 4.73448
32.2686 5.80520
32.5915 6.52607
32.7529 6.94982
32.9143 7.42484
32.9951 7.68425
33.0758 7.95984
33.1162 8.10414
33.1565 8.25302
33.1969 8.40668
33.2372 8.56533
33.2776 8.72923
33.3180 8.89853
33.3583 9.07352
33.3987 9.25445
33.4390 9.44160
33.4794 9.63527
33.5601 10.0434
33.6409 10.4816
33.7216 10.9527
33.8830 12.0084
34.0445 13.2443
34.2059 14.7043
34.3673 16.4472
34.5288 18.5520
34.6902 21.1286
34.8517 24.3312
35.0131 28.3848
35.1746 33.6244
35.3360 40.5715
35.4975 50.0686
35.6589 63.5572
35.8203 83.6625
35.9818 115.602
36.1432 170.954
36.2240 215.326
36.3047 279.886
36.3854 378.989
36.4661 542.259
36.5468 838.709
36.5872 1086.11
36.6276 1458.23
36.6679 2050.28
36.7083 3058.94
36.7486 4913.36
36.7890 8489.18
36.8245 13576.8
36.8600 16987.0
36.8955 13606.1
36.9310 8506.24
36.9673 5180.99
37.0036 3343.31
37.0399 2295.02
37.0761 1659.25
37.1124 1250.45
37.1487 974.226
37.2213 638.069
37.2938 450.408
37.3664 335.770
37.5115 209.716
37.6566 146.604
37.8018 111.686
37.9469 91.6720
38.0920 80.8835
38.3823 79.8316
38.5274 91.3281
38.5999 101.963
38.6725 117.658
38.7088 128.148
38.7269 134.240
38.7451 140.995
38.7541 144.647
38.7632 148.499
38.7723 152.563
38.7814 156.855
38.7904 161.390
38.7995 166.185
38.8086 171.259
38.8176 176.634
38.8358 188.375
38.8539 201.616
38.8721 216.610
38.8902 233.665
38.9265 275.570
38.9628 331.648
38.9990 408.880
39.0353 519.005
39.0716 683.202
39.1079 942.388
39.1442 1383.29
39.1623 1727.35
39.1804 2211.86
39.1986 2917.63
39.2167 3983.15
39.2349 5642.15
39.2530 8235.02
39.2765 13139.6
39.3000 16297.0
39.3235 12941.9
39.3470 8076.48
39.3615 5959.90
39.3760 4477.93
39.4050 2710.40
39.4340 1784.77
39.4629 1255.03
39.4919 927.738
39.5209 712.942
39.5789 458.710
39.6368 320.303
39.6948 236.931
39.8107 145.855
39.9011 107.750
39.9914 83.3454
40.1720 54.9314
40.3527 39.5637
40.5333 30.2746
40.8946 20.0611
41.2559 15.0024
41.6172 12.6253
41.9784 13.0054
42.1591 15.6016
42.2494 18.5504
42.3397 24.0618
42.4300 35.5700
42.4752 46.4789
42.5204 65.0985
42.5655 100.581
42.5881 131.649
42.6107 180.686
42.6333 264.130
42.6558 421.100
42.6671 554.981
42.6728 645.437
42.6784 757.412
42.6841 897.589
42.6897 1073.33
42.6954 1294.42
42.7010 1568.85
42.7083 2005.31
42.7155 2503.27
42.7300 3122.72
42.7373 2937.01
42.7446 2495.31
42.7591 1559.47
42.7733 973.284
42.7874 640.362
42.8015 446.129
42.8157 326.367
42.8440 195.207
42.8722 129.843
42.9005 92.9243
42.9288 70.1503
42.9854 44.7261
43.0420 31.6135
43.0985 23.9673
43.2117 15.8212
43.3248 11.7550
43.4379 9.40083
43.6642 6.84991
44.1168 4.67020
44.5693 3.65801
45.4744 2.61556
46.3796 2.04555
48.1898 1.41737
50.0000 1.08094
50.1187 1.06446
50.5243 1.01198
50.9298 0.964811
51.7409 0.883824
53.3630 0.762497
56.6072 0.623691
59.8515 0.573462
63.0957 0.604639
65.8931 0.744713
67.2917 0.903722
68.6904 1.20396
70.0890 1.85304
70.7884 2.49973
71.4877 3.67561
71.8374 4.66347
72.0122 5.33153
72.1870 6.16807
72.2744 6.66787
72.3182 6.94232
72.3619 7.23509
72.4056 7.54785
72.4493 7.88246
72.4930 8.24101
72.5367 8.62575
72.5804 9.03950
72.6241 9.48513
72.6678 9.96603
72.7115 10.4859
72.7989 11.6611
72.8864 13.0536
72.9738 14.7209
73.0612 16.7401
73.1486 19.2178
73.2360 22.3037
73.3234 26.2155
73.4109 31.2752
73.4983 37.9814
73.5857 47.1315
73.6731 60.0760
73.7605 79.2327
73.8479 109.309
73.9353 160.424
73.9791 200.548
74.0228 257.720
74.0665 342.997
74.1102 477.825
74.1539 708.110
74.1976 1143.91
74.2195 1518.13
74.2413 2087.43
74.2632 2983.46
74.2850 4403.40
74.3125 7043.41
74.3400 8800.09
74.3675 7036.90
74.3950 4397.09
74.4147 3092.30
74.4344 2229.79
74.4540 1659.23
74.4737 1272.20
74.5131 806.362
74.5524 552.262
74.5918 400.357
74.6312 302.923
74.7099 190.250
74.7886 130.291
74.8673 94.7386
74.9460 71.9666
75.0247 56.5250
75.1822 37.5382
75.3396 26.7627
75.4970 20.0692
75.6545 15.6310
75.9693 10.3000
76.2842 7.34575
76.5991 5.54240
76.9139 4.36347
77.5436 2.97252
78.1734 2.22212
79.4328 1.50720
80.9548 1.20862
82.4768 1.21934
83.2378 1.36605
83.9987 1.77813
84.3792 2.30615
84.5695 2.80932
84.7597 3.69769
84.9500 5.52549
85.0451 7.28529
85.1402 10.3856
85.2353 16.6538
85.2829 22.5267
85.3305 32.5190
85.3780 51.5769
85.4018 68.3214
85.4137 79.9676
85.4196 86.9503
85.4256 94.8737
85.4315 103.943
85.4375 114.347
85.4434 126.397
85.4494 140.398
85.4553 156.836
85.4613 176.221
85.4731 227.086
85.4850 301.989
85.4969 416.732
85.5088 598.880
85.5207 890.463
85.5354 1423.82
85.5500 1779.47
85.5573 1674.78
85.5647 1423.90
85.5793 890.421
85.5925 574.921
85.6056 387.590
85.6188 274.461
85.6319 202.935
85.6583 122.732
85.6846 81.8637
85.7109 58.4834
85.7372 43.9362
85.7899 27.5953
85.8425 19.1405
85.8951 14.2202
86.0004 9.03155
86.1057 6.50972
86.2110 5.10943
86.4215 3.71947
86.6321 3.11392
86.8426 2.83505
87.2637 2.70676
88.1059 3.21326
88.9482 4.56656
89.3693 5.76487
89.7904 7.61258
89.8957 8.22847
90.0009 8.92794
90.0536 9.31376
90.1062 9.72658
90.1589 10.1690
90.2115 10.6437
90.2641 11.1541
90.3168 11.7037
90.3694 12.2968
90.4220 12.9377
90.5273 14.3856
90.6326 16.0995
90.7379 18.1488
90.8431 20.6264
90.9484 23.6602
91.0537 27.4292
91.1590 32.1920
91.2642 38.3291
91.3695 46.4254
91.4748 57.4077
91.5801 72.8281
91.6854 95.4294
91.7906 130.440
91.8959 188.813
91.9485 233.772
92.0012 296.691
92.0538 388.344
92.1065 528.654
92.1591 757.496
92.2117 1161.45
92.2381 1484.59
92.2644 1944.30
92.2907 2609.48
92.3170 3567.32
92.3585 5704.87
92.4000 7122.49
92.4415 5691.24
92.4830 3555.46
92.5124 2509.91
92.5417 1815.75
92.5711 1354.43
92.6005 1040.53
92.6592 661.267
92.7179 453.671
92.7766 329.243
92.8354 249.301
92.9528 156.705
93.0703 107.357
93.1877 78.0661
93.3052 59.2939
93.4226 46.5558
93.6575 30.8852
93.8924 21.9853
94.1274 16.4533
94.3623 12.7830
94.8321 8.36970
95.3019 5.91919
95.7717 4.41922
96.2415 3.43489
97.1811 2.26404
98.1208 1.62044
99.0604 1.22895
100.000 0.973095
101.618 0.701280
103.237 0.541609
106.473 0.372037
109.710 0.290784
112.946 0.249287
119.419 0.229218
122.656 0.246485
125.893 0.292331
129.397 0.411781
131.150 0.535582
132.902 0.764175
133.778 0.957820
134.654 1.25434
135.530 1.74166
135.968 2.11240
136.078 2.22494
136.187 2.34730
136.297 2.48064
136.406 2.62632
136.516 2.78606
136.626 2.96141
136.735 3.15465
136.845 3.36829
136.954 3.60554
137.064 3.86952
137.283 4.49609
137.502 5.29439
137.721 6.33240
137.940 7.71733
138.159 9.62296
138.378 12.3486
138.597 16.4377
138.816 22.9834
138.925 27.8373
139.035 34.4150
139.145 43.6477
139.254 57.1464
139.364 78.0085
139.473 112.683
139.583 176.439
139.637 230.381
139.692 312.384
139.747 445.354
139.802 677.044
139.856 1119.33
139.884 1489.16
139.911 2012.65
139.956 3210.52
140.000 4011.65
140.045 3208.20
140.090 1999.15
140.126 1348.01
140.162 940.569
140.198 682.091
140.234 513.272
140.306 316.900
140.378 213.553
140.449 153.050
140.521 114.851
140.665 71.3572
140.809 48.5228
140.953 35.1138
141.096 26.5744
141.240 20.8140
141.528 13.7625
141.815 9.77884
142.103 7.31196
142.390 5.67980
142.965 3.72326
143.540 2.64056
144.115 1.97980
144.690 1.54750
145.840 1.03555
146.990 0.756488
148.140 0.588767
149.290 0.481156
151.590 0.359736
153.890 0.304863
156.189 0.300683
157.339 0.340185
157.914 0.396084
158.489 0.531751
158.860 0.749133
159.045 0.964230
159.230 1.35246
159.416 2.16527
159.508 2.95413
159.601 4.34945
159.693 7.17690
159.740 9.82793
159.786 14.3374
159.832 22.9292
159.855 30.4874
159.879 42.4006
159.890 51.1595
159.902 62.8666
159.908 70.2417
159.913 78.9474
159.919 89.3076
159.925 101.509
159.931 116.526
159.936 134.891
159.942 157.573
159.948 185.854
159.954 221.411
159.960 266.372
159.965 323.243
159.971 393.102
159.978 504.104
159.986 629.045
160.000 784.784
160.007 737.977
160.015 627.574
160.029 391.925
160.042 249.737
160.056 166.646
160.069 117.101
160.083 86.0671
160.109 51.5769
160.136 34.1463
160.163 24.2248
160.190 18.0720
160.243 11.1889
160.297 7.62641
160.351 5.55451
160.404 4.24541
160.458 3.36772
160.565 2.29722
160.672 1.69624
160.886 1.08083
161.100 0.788653
161.315 0.627991
161.743 0.467869
162.600 0.358295
163.457 0.329048
165.171 0.340037
166.886 0.407569
168.600 0.569048
169.457 0.731107
170.314 1.02481
170.528 1.13594
170.742 1.27094
170.850 1.34964
170.957 1.43721
171.064 1.53517
171.171 1.64521
171.278 1.76955
171.385 1.91053
171.492 2.07141
171.599 2.25616
171.707 2.46998
171.814 2.71884
172.028 3.35773
172.242 4.27657
172.457 5.66648
172.671 7.91545
172.778 9.60139
172.885 11.9090
172.992 15.1898
173.099 20.0676
173.206 27.7801
173.314 41.0263
173.367 51.5435
173.421 66.6848
173.474 89.5815
173.528 126.400
173.581 191.136
173.608 243.309
173.635 318.766
173.662 433.624
173.689 616.800
173.715 923.651
173.742 1445.81
173.771 2316.15
173.800 2910.88
173.829 2341.44
173.858 1465.39
173.881 993.003
173.904 694.599
173.927 504.983
173.950 380.412
173.996 235.354
174.042 158.748
174.088 113.913
174.134 85.5776
174.226 53.2683
174.318 36.3067
174.410 26.3353
174.502 19.9882
174.594 15.7070
174.778 10.4619
174.962 7.49987
175.146 5.66717
175.330 4.45677
175.698 3.00946
176.066 2.21475
176.802 1.42919
177.537 1.08536
178.273 0.927149
179.745 0.882606
181.217 1.13451
181.953 1.44924
182.689 2.05032
183.057 2.56371
183.241 2.91247
183.333 3.11843
183.424 3.34978
183.516 3.61143
183.608 3.90850
183.700 4.24763
183.792 4.63710
183.884 5.08731
183.976 5.61153
184.068 6.22683
184.160 6.95465
184.252 7.82614
184.344 8.88046
184.436 10.1725
184.528 11.7792
184.620 13.8115
184.712 16.4340
184.804 19.8986
184.896 24.6018
184.988 31.2266
185.080 40.9657
185.172 56.1128
185.264 81.4789
185.310 101.138
185.356 128.792
185.402 169.344
185.448 232.001
185.494 335.474
185.540 521.548
185.563 673.152
185.586 892.521
185.609 1216.49
185.632 1691.16
185.666 2695.80
185.700 3370.33
185.735 2696.90
185.769 1679.48
185.796 1142.85
185.823 802.519
185.850 585.272
185.877 442.416
185.930 274.613
185.984 185.742
186.038 133.459
186.092 100.402
186.199 62.5803
186.307 42.6810
186.414 30.9650
186.522 23.4990
186.629 18.4579
186.844 12.2764
187.059 8.78190
187.274 6.61539
187.489 5.18204
187.919 3.46326
188.349 2.51303
188.778 1.93461
189.208 1.55793
190.068 1.11761
190.928 0.886133
192.648 0.686747
194.367 0.652949
196.087 0.736448
197.807 1.00111
198.666 1.28079
199.096 1.49519
199.526 1.79247
199.645 1.89462
199.763 2.00774
199.882 2.13369
200.000 2.27422
200.095 2.39848
200.189 2.53485
200.283 2.68529
200.378 2.85143
200.472 3.03594
200.567 3.24116
200.756 3.72811
200.944 4.34828
201.133 5.15464
201.322 6.23002
201.511 7.70808
201.700 9.82085
201.889 12.9897
202.078 18.0560
202.267 26.8927
202.361 34.0228
202.455 44.4352
202.550 60.5266
202.644 87.2009
202.739 136.187
202.786 177.449
202.833 240.131
202.880 341.228
202.928 516.867
202.975 849.324
202.998 1125.68
203.022 1517.23
203.061 2430.58
203.100 3055.12
203.139 2457.87
203.178 1538.33
203.213 991.250
203.248 666.643
203.283 470.895
203.318 347.300
203.389 208.920
203.459 138.516
203.529 98.2788
203.599 73.2594
203.740 45.1817
203.880 30.6417
204.020 22.1758
204.161 16.8243
204.301 13.2335
204.582 8.86546
204.863 6.42325
205.143 4.93158
205.424 3.96879
205.986 2.91441
206.547 2.64538
206.828 2.94752
206.968 3.36729
207.109 4.20019
207.249 6.01824
207.319 7.79695
207.389 10.9186
207.459 17.1379
207.495 22.8368
207.530 32.2747
207.547 39.5145
207.556 44.1142
207.565 49.5169
207.574 56.0737
207.582 64.0350
207.591 73.8201
207.600 85.8563
207.609 101.234
207.617 121.010
207.626 146.918
207.635 181.089
207.644 228.160
207.652 292.728
207.661 384.473
207.670 510.995
207.678 654.958
207.685 817.108
207.700 1019.33
207.708 958.672
207.715 815.414
207.730 509.632
207.745 313.891
207.760 204.924
207.775 141.628
207.790 103.178
207.806 78.1294
207.821 61.2333
207.851 40.5242
207.881 28.8379
207.911 21.6718
207.971 13.6834
208.031 9.58073
208.091 7.19885
208.211 4.67988
208.331 3.43877
208.452 2.73362
208.692 1.99391
209.173 1.41301
209.654 1.18228
210.616 1.00170
211.577 0.953915
212.539 0.970067
213.501 1.03495
214.462 1.15026
214.943 1.23053
215.184 1.27743
215.424 1.32946
215.665 1.38719
215.905 1.45122
216.146 1.52239
216.386 1.60156
216.626 1.68987
216.867 1.78857
217.107 1.89926
217.348 2.02382
217.829 2.32437
218.309 2.71572
218.790 3.23773
219.271 3.95510
219.752 4.97948
220.233 6.51518
220.714 8.97116
221.195 13.2646
221.435 16.7361
221.676 21.8254
221.916 29.7185
222.156 42.9096
222.397 67.3956
222.517 88.2849
222.637 120.423
222.757 173.192
222.878 267.317
222.938 343.418
222.998 452.794
223.058 613.108
223.118 847.622
223.209 1356.38
223.300 1708.60
223.392 1377.95
223.483 861.888
223.545 618.269
223.606 453.296
223.667 341.549
223.729 264.546
223.852 170.090
223.975 117.690
224.097 85.9734
224.220 65.4847
224.466 41.6028
224.712 28.8120
224.957 21.2081
225.449 13.0362
225.940 9.00755
226.432 6.77011
226.923 5.44190
227.415 4.64007
228.397 4.01255
228.889 4.12567
229.380 4.65576
229.872 6.04888
230.118 7.48637
230.240 8.58149
230.302 9.27283
230.363 10.0912
230.394 10.5593
230.425 11.0708
230.455 11.6328
230.486 12.2522
230.517 12.9371
230.548 13.6970
230.578 14.5430
230.609 15.4888
230.670 17.7522
230.732 20.6572
230.793 24.4770
230.855 29.6390
230.916 36.8658
230.978 47.3796
231.039 63.5351
231.100 90.1723
231.131 110.539
231.162 138.676
231.193 179.125
231.223 239.983
231.254 336.833
231.285 501.866
231.315 805.353
231.331 1051.72
231.346 1390.86
231.373 2225.14
231.400 2788.20
231.427 2237.13
231.454 1400.13
231.479 894.008
231.504 598.493
231.529 421.746
231.553 310.799
231.603 187.263
231.653 124.730
231.702 89.0522
231.752 66.9737
231.851 42.2445
231.950 29.4824
232.050 22.0885
232.248 14.3357
232.446 10.6186
232.645 8.60868
233.042 6.77458
233.439 6.22748
233.637 6.21149
233.836 6.32274
234.034 6.54879
234.133 6.70372
234.233 6.88712
234.332 7.10020
234.431 7.34403
234.530 7.62077
234.630 7.93293
234.729 8.28400
234.828 8.67705
234.927 9.11741
235.027 9.60964
235.225 10.7789
235.423 12.2530
235.622 14.1335
235.820 16.5679
236.019 19.7817
236.217 24.1283
236.416 30.1987
236.614 39.0128
236.813 52.4740
237.011 74.4360
237.210 113.719
237.309 145.942
237.408 193.579
237.507 267.674
237.607 389.579
237.706 602.877
237.805 987.603
237.903 1578.33
238.000 1964.47
238.098 1564.40
238.195 976.412
238.297 589.573
238.398 378.349
238.500 258.747
238.601 186.553
238.703 140.275
238.804 109.065
239.007 71.1376
239.210 49.9624
239.413 37.0100
239.819 22.6762
240.225 15.3557
240.631 11.1283
241.037 8.46969
241.443 6.69206
242.256 4.54121
243.068 3.34799
243.880 2.63045
244.692 2.18193
246.316 1.75662
247.940 1.82965
248.752 2.15317
249.564 2.92812
249.971 3.68180
250.377 4.96143
250.580 5.95525
250.681 6.59104
250.732 6.95415
250.783 7.35146
250.833 7.78912
250.884 8.27075
250.935 8.80452
250.986 9.39574
251.036 10.0556
251.087 10.7920
251.138 11.6204
251.189 12.5531
251.259 14.0523
251.329 15.8537
251.399 18.0438
251.469 20.7422
251.539 24.1182
251.609 28.4177
251.679 34.0084
251.749 41.4472
251.819 51.6721
251.890 66.2286
251.960 87.9131
252.030 122.142
252.100 180.426
252.135 226.047
252.170 290.200
252.205 384.111
252.240 525.861
252.275 747.198
252.310 1094.37
252.355 1747.94
252.400 2171.76
252.445 1727.20
252.490 1078.02
252.519 781.473
252.549 578.699
252.607 342.876
252.666 222.574
252.725 154.906
252.783 113.551
252.842 86.6870
252.959 55.1649
253.076 38.1460
253.194 27.9698
253.428 16.9320
253.663 11.4007
253.897 8.24165
254.132 6.26904
254.366 4.95519
254.835 3.36550
255.304 2.47545
256.242 1.56110
257.180 1.12085
258.118 0.873221
259.993 0.616541
261.869 0.493312
263.745 0.427948
267.497 0.383233
271.248 0.421737
273.124 0.483955
275.000 0.603431
276.876 0.853098
277.814 1.09285
278.283 1.27170
278.751 1.51627
278.986 1.67418
279.220 1.86480
279.338 1.97540
279.455 2.09810
279.572 2.23490
279.689 2.38809
279.807 2.56060
279.924 2.75554
280.041 2.97744
280.158 3.23116
280.393 3.86289
280.627 4.72818
280.862 5.96108
281.096 7.80540
281.331 10.7476
281.448 12.9249
281.565 15.8712
281.682 20.0002
281.800 26.0275
281.917 35.3349
282.034 50.7580
282.151 79.0583
282.210 102.888
282.269 139.072
282.327 197.400
282.386 298.661
282.444 490.139
282.474 649.173
282.503 874.377
282.552 1400.86
282.600 1762.60
282.649 1419.70
282.697 888.995
282.738 587.832
282.779 403.326
282.820 289.105
282.861 215.557
282.943 131.619
283.025 88.1782
283.107 63.0315
283.189 47.2774
283.353 29.4746
283.517 20.2014
283.681 14.7878
284.009 9.05970
284.336 6.26987
284.664 4.72296
285.320 3.20483
285.976 2.58068
286.632 2.35510
287.287 2.36869
287.943 2.57962
288.271 2.76417
288.599 3.01178
288.763 3.16336
288.927 3.33629
289.091 3.53348
289.255 3.75839
289.337 3.88262
289.419 4.01545
289.501 4.15756
289.582 4.30953
289.664 4.47258
289.746 4.64747
289.910 5.03686
290.074 5.48826
290.238 6.01387
290.402 6.63028
290.566 7.35865
290.894 9.27244
291.222 12.1149
291.550 16.5849
291.714 19.8414
291.878 24.1817
292.042 30.1440
292.205 38.6256
292.369 51.2642
292.533 71.1910
292.697 105.114
292.779 131.603
292.861 168.880
292.943 223.289
293.025 305.419
293.107 433.638
293.189 634.123
293.295 1011.41
293.400 1256.12
293.506 998.642
293.612 622.490
293.686 441.542
293.760 320.923
293.834 240.254
293.907 185.168
294.055 118.230
294.203 81.3929
294.351 59.2377
294.498 44.9656
294.794 28.3934
295.089 19.5355
295.384 14.2698
295.975 8.59528
296.566 5.77097
297.156 4.16985
297.747 3.18052
298.338 2.53352
299.519 1.80391
300.701 1.56540
301.291 1.69942
301.587 1.91868
301.882 2.37372
302.178 3.40068
302.325 4.43145
302.473 6.28819
302.621 10.1286
302.694 13.7964
302.768 20.1386
302.842 32.5668
302.879 43.7664
302.898 51.7261
302.907 56.5236
302.916 62.0226
302.925 68.4388
302.934 75.8144
302.944 84.4412
302.953 94.6122
302.962 106.853
302.971 121.409
302.981 139.076
302.990 160.767
302.999 188.067
303.008 222.159
303.017 265.786
303.027 322.481
303.036 398.214
303.045 498.485
303.054 633.320
303.064 812.960
303.082 1300.42
303.100 1617.09
303.109 1516.90
303.118 1287.16
303.137 804.773
303.149 576.195
303.161 421.854
303.174 317.753
303.186 246.493
303.211 158.443
303.236 109.763
303.260 80.1913
303.285 61.1413
303.334 38.9040
303.384 26.9460
303.433 19.8170
303.532 12.1197
303.631 8.26851
303.730 6.07415
303.928 3.79145
304.126 2.68598
304.324 2.06564
304.720 1.42593
305.115 1.11632
305.511 0.943024
306.303 0.776056
307.094 0.742532
307.886 0.883244
308.281 1.14214
308.479 1.41085
308.677 1.90407
308.875 2.94618
308.974 3.96076
309.073 5.75660
309.172 9.39919
309.221 12.8130
309.271 18.5994
309.320 29.6207
309.345 39.2462
309.370 54.4331
309.382 65.5682
309.394 80.4170
309.401 89.7524
309.407 100.754
309.413 113.822
309.419 129.200
309.425 148.061
309.431 171.065
309.438 199.384
309.444 233.930
309.450 277.808
309.456 333.017
309.462 402.477
309.468 487.448
309.476 623.490
309.484 778.667
309.500 971.438
309.508 912.471
309.516 774.820
309.532 484.424
309.545 323.239
309.558 223.526
309.571 161.206
309.584 120.765
309.610 74.2338
309.636 50.0037
309.663 35.8553
309.689 26.9855
309.741 16.8871
309.793 11.5965
309.846 8.50001
309.950 5.20287
310.055 3.57691
310.160 2.65949
310.369 1.71513
310.578 1.26412
310.787 1.01513
311.206 0.766427
312.043 0.603289
312.880 0.583039
313.717 0.638022
314.554 0.783922
315.391 1.11073
315.809 1.42139
316.228 1.94519
316.479 2.45080
316.731 3.22020
316.982 4.47247
317.234 6.71160
317.360 8.56012
317.391 9.14656
317.423 9.79478
317.454 10.5185
317.486 11.3246
317.517 12.2319
317.548 13.2513
317.580 14.4097
317.611 15.7247
317.643 17.2358
317.674 18.9722
317.706 20.9875
317.737 23.3443
317.800 29.4458
317.863 38.3025
317.926 51.8432
317.957 61.4458
317.989 73.9595
318.020 90.7315
318.051 113.726
318.083 146.584
318.114 195.253
318.146 271.631
318.177 398.197
318.209 622.454
318.240 1033.64
318.270 1652.22
318.300 2058.00
318.330 1640.67
318.360 1024.55
318.390 631.711
318.420 411.338
318.450 284.082
318.480 206.400
318.509 155.904
318.539 121.604
318.599 79.6695
318.659 56.0521
318.719 41.5514
318.838 25.4170
318.958 17.1457
319.077 12.3558
319.197 9.33814
319.316 7.31585
319.555 4.85912
319.794 3.48069
320.033 2.63075
320.272 2.06994
320.750 1.39910
321.228 1.02831
322.184 0.653972
323.140 0.479158
324.096 0.385509
326.008 0.303509
327.920 0.299426
328.876 0.329880
329.832 0.402864
330.788 0.576264
331.266 0.754647
331.744 1.08312
331.983 1.36059
332.222 1.78413
332.461 2.47648
332.700 3.72273
332.820 4.75819
332.939 6.31706
333.059 8.82110
333.118 10.6872
333.178 13.2201
333.208 14.8451
333.238 16.7918
333.253 17.9168
333.268 19.1508
333.283 20.5173
333.298 22.0359
333.313 23.7422
333.327 25.6414
333.357 30.2108
333.387 36.1184
333.417 43.9076
333.447 54.5401
333.477 69.5128
333.507 91.5006
333.537 125.395
333.566 181.654
333.581 224.581
333.596 283.188
333.611 366.547
333.626 486.771
333.641 664.847
333.656 928.092
333.678 1484.39
333.700 1853.23
333.722 1480.84
333.744 925.270
333.766 567.110
333.788 368.258
333.810 253.837
333.833 183.985
333.855 138.845
333.877 108.221
333.921 70.7818
333.965 49.7659
334.009 36.8540
334.098 22.5161
334.186 15.1663
334.275 10.9185
334.363 8.24326
334.451 6.45094
334.628 4.27337
334.805 3.05290
334.982 2.30058
335.159 1.80432
335.512 1.21075
335.866 0.882826
336.220 0.682525
336.573 0.551235
337.281 0.394960
337.988 0.308822
339.403 0.221686
340.817 0.180606
342.232 0.158217
345.061 0.137126
350.720 0.131298
356.378 0.151793
362.037 0.209272
364.866 0.267767
367.695 0.372428
370.524 0.587786
371.232 0.678143
371.939 0.794794
372.293 0.866380
372.646 0.949330
373.000 1.04630
373.177 1.10104
373.354 1.16064
373.530 1.22573
373.707 1.29694
373.884 1.37517
374.061 1.46130
374.415 1.66215
374.768 1.91131
375.122 2.22615
375.476 2.63215
375.829 3.16922
376.183 3.90103
376.537 4.93657
376.890 6.47165
377.244 8.89280
377.597 13.0416
377.774 16.3313
377.951 21.0625
378.128 28.2155
378.305 39.7483
378.482 60.0345
378.570 76.4026
378.658 100.223
378.747 136.467
378.835 194.491
378.924 292.241
379.012 460.720
379.106 737.608
379.200 931.164
379.295 752.757
379.389 471.263
379.489 282.052
379.589 179.706
379.689 122.262
379.788 87.8930
379.888 65.9725
379.988 51.2763
380.188 33.5129
380.387 23.6622
380.587 17.6758
380.986 11.1373
381.386 7.89877
381.785 6.14153
382.185 5.17629
382.584 4.71693
383.383 5.02181
383.782 5.96830
383.982 6.78317
384.081 7.31609
384.181 7.95773
384.231 8.32799
384.281 8.73521
384.331 9.18478
384.381 9.68218
384.431 10.2350
384.481 10.8486
384.531 11.5329
384.581 12.2987
384.631 13.1604
384.681 14.1301
384.780 16.4771
384.880 19.5479
384.980 23.6641
385.080 29.3534
385.180 37.4936
385.279 49.7011
385.379 69.1308
385.479 102.635
385.529 129.086
385.579 166.773
385.629 222.506
385.679 308.321
385.729 445.347
385.779 665.802
385.839 1062.15
385.900 1313.05
385.961 1039.40
386.022 648.464
386.069 443.144
386.116 312.687
386.163 228.994
386.210 173.549
386.305 108.390
386.399 73.6495
386.494 53.1647
386.588 40.1707
386.777 25.2755
386.966 17.4065
387.155 12.7607
387.532 7.77387
387.910 5.29123
388.288 3.87448
389.043 2.39436
389.798 1.67115
390.554 1.26199
392.064 0.839483
393.575 0.642600
395.086 0.547173
396.597 0.513680
398.107 0.535560
399.955 0.674720
400.879 0.838536
401.802 1.14979
402.726 1.82067
403.188 2.48295
403.304 2.71412
403.419 2.98298
403.535 3.29815
403.650 3.67050
403.766 4.11554
403.881 4.65291
403.939 4.96469
403.997 5.30999
404.112 6.12426
404.227 7.15192
404.343 8.47321
404.458 10.2112
404.574 12.5585
404.689 15.8417
404.805 20.6258
404.920 27.9778
405.036 40.0855
405.094 49.3213
405.151 62.0879
405.209 80.4248
405.267 107.978
405.324 151.841
405.382 226.288
405.440 362.631
405.469 472.658
405.498 624.026
405.549 998.511
405.600 1247.05
405.651 996.912
405.703 623.326
405.741 430.690
405.780 306.145
405.818 225.338
405.857 171.363
405.934 107.426
406.011 73.1220
406.088 52.7904
406.166 39.8429
406.320 24.9781
406.474 17.1136
406.629 12.4719
406.783 9.50563
406.937 7.49955
407.246 5.03781
407.555 3.64411
407.863 2.78035
408.172 2.20903
408.790 1.52605
409.407 1.15155
410.642 0.785096
411.877 0.631858
413.111 0.571959
415.581 0.606970
416.816 0.696302
418.050 0.855896
419.285 1.13516
419.903 1.35171
420.211 1.48947
420.520 1.65318
420.674 1.74686
420.829 1.84965
420.983 1.96291
421.137 2.08789
421.292 2.22642
421.446 2.38030
421.600 2.55208
421.755 2.74435
421.909 2.96075
422.063 3.20512
422.372 3.79977
422.681 4.58516
422.990 5.65183
423.298 7.15104
423.607 9.35078
423.916 12.7624
424.224 18.4598
424.379 22.8553
424.533 29.0100
424.687 37.9952
424.842 51.7721
424.996 74.3148
425.150 114.234
425.228 146.303
425.305 192.007
425.382 258.453
425.459 354.366
425.580 566.159
425.700 704.255
425.821 560.745
425.941 350.060
426.057 219.447
426.173 144.669
426.288 100.783
426.404 73.6234
426.520 55.8703
426.636 43.7416
426.867 28.7868
427.099 20.3231
427.330 15.0985
427.793 9.26828
428.256 6.26820
428.719 4.52762
429.182 3.42965
429.645 2.69343
430.571 1.79936
431.497 1.29957
432.424 0.994357
433.350 0.797430
435.202 0.583817
437.054 0.541146
437.980 0.624849
438.443 0.734878
438.906 0.953111
439.369 1.43741
439.601 1.92284
439.832 2.80226
439.948 3.53569
440.064 4.64088
440.179 6.42058
440.295 9.54910
440.411 15.8360
440.469 21.6710
440.498 25.8836
440.512 28.4779
440.527 31.4612
440.541 34.9652
440.556 39.0876
440.570 43.9812
440.584 49.8039
440.599 56.9066
440.613 65.6237
440.628 76.4729
440.642 90.0838
440.657 107.710
440.671 130.863
440.686 161.988
440.700 204.577
440.715 265.356
440.729 353.334
440.744 485.355
440.758 680.356
440.779 1087.24
440.800 1353.00
440.821 1077.63
440.842 672.821
440.858 468.339
440.873 334.997
440.889 247.786
440.904 189.148
440.935 119.202
440.966 81.4678
440.997 58.9451
441.028 44.5565
441.090 27.9970
441.152 19.1983
441.214 13.9986
441.276 10.6711
441.338 8.41534
441.461 5.64073
441.585 4.06685
441.709 3.08753
441.833 2.43778
442.081 1.65467
442.328 1.21810
442.824 0.771854
443.319 0.557988
443.815 0.437752
444.805 0.311765
445.796 0.248283
446.787 0.210479
448.769 0.167746
452.732 0.130935
456.695 0.119876
460.658 0.127252
464.622 0.168427
466.603 0.225718
467.594 0.280283
468.585 0.375669
469.576 0.570079
470.071 0.757374
470.566 1.09095
470.814 1.36746
471.062 1.78482
471.310 2.46028
471.557 3.66489
471.681 4.65962
471.743 5.32412
471.805 6.14829
471.867 7.18967
471.898 7.81576
471.929 8.52722
471.960 9.34585
471.991 10.2879
472.022 11.3868
472.053 12.6706
472.115 16.0127
472.177 20.8872
472.238 28.4025
472.269 33.7946
472.300 40.8523
472.331 50.3972
472.362 63.6827
472.393 82.8994
472.424 111.930
472.455 158.757
472.486 239.457
472.502 302.914
472.517 391.606
472.533 517.268
472.548 692.953
472.574 1109.42
472.600 1391.12
472.626 1116.50
472.652 698.454
472.678 429.777
472.704 279.304
472.730 192.618
472.756 139.831
472.782 105.554
472.808 82.3014
472.860 53.9207
472.912 37.9568
472.964 28.1690
473.068 17.2980
473.171 11.7274
473.275 8.50780
473.379 6.48408
473.483 5.13299
473.691 3.49964
473.899 2.59544
474.314 1.70133
474.729 1.31968
475.145 1.16069
475.976 1.19618
476.391 1.36721
476.807 1.68125
477.222 2.23443
477.326 2.43205
477.430 2.66312
477.534 2.93561
477.638 3.25878
477.742 3.64620
477.846 4.11501
477.898 4.38733
477.949 4.68902
478.053 5.40076
478.157 6.29915
478.261 7.45224
478.365 8.96829
478.469 11.0113
478.573 13.8605
478.676 17.9945
478.780 24.3093
478.884 34.6173
478.936 42.4137
478.988 53.1015
479.040 68.2920
479.092 90.8006
479.144 125.961
479.196 184.029
479.248 286.287
479.300 472.314
479.350 755.338
479.400 941.096
479.450 750.504
479.501 468.966
479.541 317.259
479.581 221.941
479.621 161.292
479.661 121.568
479.741 75.2478
479.821 50.7822
479.901 36.4595
479.981 27.4047
480.141 17.0800
480.301 11.6520
480.462 8.46059
480.622 6.42623
480.782 5.05247
481.102 3.36848
481.422 2.41512
481.743 1.82342
482.063 1.43097
482.704 0.958755
483.344 0.695951
483.985 0.534625
484.625 0.428468
485.907 0.301909
487.188 0.232556
489.750 0.165033
492.313 0.138897
494.875 0.135717
497.438 0.163932
498.719 0.213680
499.359 0.268480
500.000 0.381244
500.297 0.479853
500.594 0.645680
500.890 0.959170
501.039 1.23396
501.187 1.67124
501.285 2.11581
501.382 2.78486
501.479 3.85986
501.576 5.75033
501.674 9.54777
501.722 13.0798
501.747 15.6320
501.771 19.0145
501.783 21.1430
501.795 23.6493
501.808 26.6274
501.820 30.1698
501.832 34.5015
501.844 39.7774
501.856 46.4029
501.868 54.7188
501.881 65.5250
501.893 79.6250
501.905 98.7767
501.917 125.049
501.929 162.780
501.941 217.674
501.953 300.849
501.966 424.782
501.983 680.456
502.000 850.134
502.009 799.644
502.017 679.821
502.035 425.508
502.049 281.319
502.064 193.066
502.078 138.424
502.093 103.224
502.122 63.0230
502.151 42.1794
502.181 30.1223
502.210 22.5627
502.268 14.0077
502.327 9.54817
502.385 6.93850
502.443 5.28280
502.502 4.16943
502.618 2.80840
502.735 2.04320
502.852 1.57114
502.969 1.26101
503.202 0.893934
503.436 0.697693
503.903 0.522345
504.370 0.488609
504.837 0.594761
505.070 0.780999
505.187 0.969134
505.304 1.30723
505.421 2.00410
505.479 2.66733
505.537 3.81090
505.596 6.04617
505.625 8.05889
505.654 11.3345
505.683 17.1690
505.698 21.9406
505.713 28.9724
505.727 39.8497
505.742 57.6550
505.749 70.8981
505.756 88.5575
505.764 112.247
505.771 143.245
505.778 183.264
505.785 229.012
505.800 286.272
505.807 269.501
505.815 229.154
505.829 143.353
505.841 97.8445
505.852 69.0982
505.863 50.6417
505.875 38.4132
505.897 24.0010
505.920 16.3653
505.943 11.8529
505.965 9.00373
506.010 5.73546
506.056 4.01477
506.101 3.00176
506.192 1.92218
506.282 1.39044
506.373 1.09220
506.554 0.791801
506.735 0.656877
506.916 0.591271
507.278 0.550875
508.003 0.626728
508.728 0.863322
509.090 1.07677
509.452 1.40757
509.815 1.95160
510.177 2.93190
510.267 3.30024
510.358 3.74555
510.449 4.29077
510.539 4.96722
510.630 5.82255
510.675 6.33718
510.720 6.92432
510.766 7.59823
510.811 8.37683
510.901 10.3432
510.992 13.1036
511.083 17.1433
511.173 23.3874
511.219 27.8697
511.264 33.7520
511.309 41.7151
511.354 52.8246
511.400 68.9423
511.445 93.4873
511.490 133.207
511.536 202.534
511.558 257.520
511.581 334.615
511.603 444.738
511.626 601.227
511.663 962.170
511.700 1204.15
511.737 964.511
511.774 603.023
511.799 432.291
511.824 316.689
511.849 238.579
511.874 184.866
511.924 118.742
511.974 82.0923
512.024 59.8711
512.074 45.5261
512.174 28.7787
512.274 19.7976
512.373 14.4439
512.473 11.0024
512.573 8.66185
512.773 5.77560
512.973 4.13215
513.173 3.10874
513.372 2.42873
513.772 1.60982
514.172 1.15438
514.571 0.875353
514.971 0.692181
515.770 0.474453
516.569 0.355189
518.168 0.236741
519.766 0.183499
521.364 0.156962
524.561 0.139412
527.758 0.149778
530.955 0.199627
532.553 0.267380
533.352 0.332774
534.151 0.449378
534.951 0.693069
535.350 0.932025
535.750 1.36220
535.950 1.72079
536.149 2.26327
536.249 2.64564
536.349 3.14148
536.449 3.80061
536.499 4.21526
536.549 4.70356
536.599 5.28653
536.649 5.98728
536.699 6.84346
536.749 7.90003
536.799 9.23043
536.849 10.9304
536.899 13.1600
536.949 16.1499
536.999 20.3061
537.048 26.2917
537.098 35.3900
537.148 50.0900
537.198 76.1259
537.223 97.2637
537.248 128.042
537.273 175.346
537.298 251.368
537.323 381.335
537.348 607.240
537.374 972.932
537.400 1223.32
537.426 984.451
537.452 616.217
537.468 452.146
537.485 338.306
537.517 202.988
537.550 132.749
537.582 92.8142
537.615 68.2693
537.647 52.2153
537.712 33.2927
537.777 23.0409
537.842 16.8891
537.972 10.2057
538.102 6.85187
538.232 4.93645
538.362 3.74166
538.492 2.94768
538.752 1.99087
539.012 1.46018
539.532 0.925823
540.052 0.679909
540.572 0.551247
541.611 0.440814
542.651 0.419532
543.691 0.459184
544.211 0.517527
544.731 0.659006
544.991 0.834064
545.121 0.999339
545.251 1.28870
545.381 1.87712
545.446 2.43559
545.511 3.40290
545.576 5.30480
545.608 7.03315
545.625 8.26934
545.641 9.87597
545.657 12.0443
545.673 15.0231
545.682 16.9809
545.690 19.3206
545.698 22.1809
545.706 25.7225
545.714 30.2320
545.722 35.9229
545.730 43.3078
545.738 53.0664
545.746 66.2016
545.755 84.1770
545.763 109.021
545.771 143.099
545.785 228.812
545.800 285.712
545.807 268.891
545.815 228.839
545.829 143.121
545.844 89.8789
545.858 59.5506
545.872 41.6002
545.886 30.5577
545.914 18.3599
545.942 12.2563
545.970 8.80433
545.998 6.67342
546.054 4.29822
546.110 3.07913
546.167 2.37421
546.279 1.63733
546.391 1.28478
546.504 1.09346
546.729 0.913928
547.178 0.831832
547.628 0.868412
547.853 0.908518
548.077 0.960426
548.302 1.02405
548.527 1.10022
548.752 1.19055
548.977 1.29741
549.201 1.42410
549.426 1.57507
549.651 1.75635
549.876 1.97611
550.101 2.24562
550.325 2.58077
550.550 3.00440
550.775 3.55034
551.000 4.27034
551.225 5.24672
551.449 6.61685
551.674 8.62372
551.899 11.7300
552.124 16.9045
552.236 20.8861
552.349 26.4537
552.461 34.5559
552.573 46.9468
552.686 67.1208
552.798 102.659
552.854 131.039
552.911 171.365
552.967 229.665
553.023 313.686
553.112 502.227
553.200 633.708
553.289 511.921
553.378 320.332
553.458 206.711
553.537 139.161
553.617 98.3790
553.696 72.6371
553.855 43.7700
554.015 29.0737
554.174 20.6722
554.333 15.4480
554.651 9.58409
554.969 6.55331
555.287 4.79393
555.606 3.68752
555.924 2.95209
556.560 2.09099
557.197 1.71353
557.515 1.71546
557.833 2.05412
557.992 2.62866
558.072 3.21110
558.151 4.25195
558.231 6.36021
558.271 8.31784
558.310 11.5899
558.350 17.6850
558.370 22.8912
558.390 30.9032
558.410 44.0569
558.420 54.0310
558.430 67.5004
558.440 86.5425
558.445 98.9539
558.450 113.589
558.455 131.637
558.460 153.049
558.465 179.445
558.470 210.418
558.477 269.683
558.485 336.475
558.500 419.621
558.508 394.439
558.515 335.310
558.531 210.181
558.547 126.458
558.563 81.2414
558.579 55.7255
558.595 40.3613
558.611 30.4798
558.627 23.8727
558.659 15.8495
558.691 11.3630
558.723 8.62705
558.787 5.59219
558.851 4.03894
558.915 3.13780
559.043 2.18308
559.171 1.70878
559.300 1.43586
559.556 1.14263
560.068 0.898916
560.581 0.793796
562.631 0.689958
564.682 0.775684
565.707 0.878297
566.220 0.948790
566.476 0.989858
566.732 1.03534
566.989 1.08574
567.245 1.14158
567.501 1.20354
567.758 1.27242
568.014 1.34913
568.270 1.43476
568.527 1.53062
568.783 1.63828
569.295 1.89693
569.808 2.23128
570.321 2.67270
570.833 3.27081
571.346 4.10778
571.858 5.32757
572.371 7.20061
572.884 10.2829
573.140 12.6252
573.396 15.8618
573.653 20.4990
573.909 27.4433
574.165 38.4214
574.421 56.9465
574.678 90.5121
574.806 117.277
574.934 153.879
575.167 245.677
575.400 305.656
575.634 243.454
575.867 151.930
576.120 90.0134
576.373 56.9709
576.626 38.5902
576.878 27.6404
577.131 20.6819
577.384 16.0223
577.890 10.3964
578.396 7.27730
578.901 5.37675
579.913 3.28256
580.924 2.21745
581.935 1.60393
582.947 1.21899
583.958 0.962015
585.981 0.651731
588.004 0.479987
590.026 0.376809
592.049 0.312213
596.095 0.249892
600.140 0.258882
602.163 0.311858
603.174 0.369810
604.186 0.477053
605.197 0.704565
605.703 0.928193
606.208 1.33037
606.461 1.66520
606.714 2.17083
606.967 2.98838
607.093 3.60091
607.220 4.43903
607.283 4.97995
607.346 5.63004
607.409 6.42207
607.473 7.40054
607.536 8.62880
607.567 9.36398
607.599 10.1995
607.662 12.2523
607.725 15.0058
607.789 18.8172
607.852 24.3017
607.915 32.5900
607.978 45.9377
608.010 55.8733
608.041 69.3449
608.073 88.1869
608.105 115.528
608.136 156.955
608.168 222.877
608.199 332.941
608.231 520.193
608.266 832.081
608.300 1039.77
608.335 831.666
608.369 519.848
608.390 383.335
608.412 288.011
608.454 174.173
608.496 114.416
608.539 80.3165
608.581 59.2163
608.624 45.4050
608.709 29.0522
608.794 20.1662
608.878 14.8237
609.048 9.01237
609.218 6.09052
609.388 4.42239
609.557 3.38188
609.727 2.69147
610.067 1.86325
610.406 1.40888
611.085 0.966318
611.764 0.785063
612.443 0.719104
613.801 0.781558
614.480 0.904995
615.159 1.11975
615.838 1.49021
616.178 1.77520
616.517 2.16995
616.687 2.42620
616.857 2.73597
617.027 3.11492
617.112 3.33686
617.197 3.58463
617.281 3.86304
617.366 4.17691
617.451 4.53249
617.536 4.93694
617.706 5.93524
617.876 7.28022
618.045 9.15414
618.215 11.8690
618.385 16.0137
618.555 22.7735
618.639 27.8725
618.724 34.8680
618.809 44.7989
618.894 59.4698
618.979 82.3014
619.064 119.934
619.149 185.864
619.234 304.713
619.317 486.752
619.400 604.359
619.483 480.339
619.567 299.853
619.622 215.991
619.678 158.942
619.789 93.3326
619.900 60.2452
620.011 41.7727
620.122 30.5552
620.233 23.2798
620.455 14.7741
620.677 10.2011
620.899 7.47071
621.343 4.51810
621.787 3.04349
622.231 2.20495
622.675 1.68492
623.118 1.34258
624.006 0.944441
624.894 0.765818
625.338 0.755419
625.782 0.873595
626.004 1.08553
626.115 1.30382
626.226 1.70031
626.337 2.52096
626.393 3.30195
626.448 4.64807
626.504 7.26108
626.532 9.60292
626.559 13.3708
626.587 20.0280
626.615 33.1882
626.629 45.1028
626.643 64.0166
626.656 96.0406
626.663 119.737
626.670 150.549
626.678 192.861
626.685 240.505
626.700 300.116
626.715 239.872
626.730 150.050
626.746 87.8499
626.763 55.3386
626.779 37.4388
626.796 26.8439
626.813 20.1136
626.829 15.6527
626.862 10.2849
626.895 7.31077
626.928 5.50858
626.994 3.52522
627.060 2.51646
627.126 1.93666
627.258 1.32954
627.390 1.03606
627.523 0.873620
627.787 0.714729
628.315 0.634933
628.844 0.691745
629.372 0.898136
629.636 1.10987
629.901 1.47557
630.165 2.16788
630.297 2.76660
630.429 3.70056
630.561 5.27182
630.693 8.21805
630.759 10.7683
630.825 14.7527
630.858 17.6549
630.875 19.4354
630.891 21.5013
630.908 23.9162
630.924 26.7627
630.941 30.1488
630.957 34.2184
630.970 37.8411
630.982 42.0293
630.994 46.9451
631.007 52.7639
631.031 68.1817
631.056 91.1247
631.081 127.437
631.093 153.664
631.105 188.198
631.118 234.916
631.130 298.074
631.142 384.815
631.155 502.929
631.177 804.277
631.200 999.441
631.223 794.905
631.246 496.691
631.260 365.127
631.274 273.855
631.302 165.245
631.330 108.510
631.358 76.0971
631.387 56.1035
631.415 42.9906
631.471 27.4910
631.528 19.0581
631.584 13.9985
631.697 8.48912
631.810 5.71561
631.923 4.12979
632.035 3.13825
632.148 2.47720
632.374 1.67746
632.600 1.23034
633.051 0.772380
633.502 0.553163
633.953 0.430528
634.856 0.303690
635.759 0.241625
636.661 0.206197
638.467 0.169458
642.077 0.147554
645.688 0.157942
649.298 0.205138
651.103 0.256850
652.909 0.352388
654.714 0.554826
655.616 0.753378
656.068 0.903068
656.519 1.10902
656.745 1.24241
656.970 1.40361
657.083 1.49718
657.196 1.60097
657.309 1.71664
657.422 1.84606
657.535 1.99165
657.647 2.15591
657.760 2.34236
657.873 2.55518
658.099 3.08241
658.324 3.79797
658.550 4.80435
658.776 6.28134
659.001 8.57609
659.227 12.4151
659.340 15.3854
659.453 19.5534
659.565 25.6522
659.678 35.0481
659.791 50.5209
659.904 78.1695
659.960 100.573
660.017 132.833
660.073 180.205
660.130 249.595
660.215 399.499
660.300 500.018
660.385 400.610
660.471 250.587
660.560 150.643
660.650 96.2726
660.739 65.6384
660.829 47.2344
660.918 35.4555
661.008 27.5374
661.187 17.9299
661.366 12.5783
661.545 9.31068
661.904 5.70153
662.262 3.86260
662.620 2.80316
662.978 2.13841
663.337 1.69506
664.053 1.16045
664.770 0.864929
666.202 0.573557
667.635 0.450077
669.068 0.399751
671.934 0.416732
673.367 0.477191
674.800 0.586646
676.233 0.778073
676.950 0.925824
677.308 1.01946
677.487 1.07254
677.666 1.13044
677.845 1.19377
678.025 1.26313
678.204 1.33935
678.383 1.42332
678.562 1.51616
678.741 1.61902
678.920 1.73345
679.099 1.86120
679.458 2.16573
679.816 2.55543
680.174 3.06502
680.532 3.74864
680.890 4.69492
681.249 6.05520
681.607 8.10882
681.965 11.4081
682.323 17.1755
682.503 21.7997
682.682 28.4841
682.861 38.5589
683.040 54.4701
683.219 80.7432
683.398 124.740
683.599 198.817
683.800 245.627
684.002 194.260
684.203 120.999
684.346 85.4700
684.488 61.9142
684.630 46.2448
684.773 35.5756
685.058 22.6614
685.343 15.5797
685.627 11.3275
685.912 8.59216
686.482 5.41970
687.052 3.72621
687.622 2.71985
688.761 1.63555
689.900 1.09518
691.040 0.787677
692.179 0.596130
693.319 0.468787
695.598 0.315235
697.877 0.229716
700.155 0.177353
702.434 0.143175
706.992 0.103877
711.550 0.0869372
713.829 0.0867788
716.108 0.100648
717.247 0.124738
717.817 0.149780
718.387 0.196167
718.956 0.295883
719.241 0.395073
719.526 0.574971
719.669 0.725760
719.811 0.954443
719.953 1.32581
720.096 1.98869
720.167 2.53601
720.238 3.35287
720.310 4.65173
720.381 6.90032
720.452 11.3038
720.488 15.2821
720.523 21.7800
720.559 33.4154
720.577 42.9828
720.585 49.3370
720.594 57.1575
720.603 66.9090
720.612 79.2428
720.621 95.0839
720.630 115.759
720.639 143.177
720.648 180.037
720.657 229.942
720.666 296.916
720.674 380.785
720.683 475.307
720.700 592.072
720.709 555.914
720.717 472.023
720.735 295.203
720.751 184.916
720.768 121.814
720.784 84.8123
720.801 61.9141
720.818 46.9706
720.834 36.7582
720.867 24.1800
720.901 17.0677
720.934 12.6766
721.000 7.77833
721.067 5.25881
721.133 3.79671
721.199 2.87426
721.266 2.25625
721.398 1.50350
721.531 1.08089
721.664 0.820279
721.797 0.648475
722.062 0.442970
722.328 0.329648
722.859 0.215643
723.390 0.162656
723.921 0.134172
724.983 0.107296
727.108 0.0952758
729.232 0.106799
731.356 0.146373
732.419 0.189042
733.481 0.268572
734.012 0.336148
734.543 0.439716
735.074 0.609840
735.605 0.918136
735.871 1.17606
736.136 1.56679
736.402 2.20037
736.667 3.32778
736.800 4.25486
736.933 5.63634
736.999 6.59611
737.066 7.82485
737.099 8.57253
737.132 9.43291
737.165 10.4297
737.199 11.5894
737.232 12.9582
737.265 14.5839
737.298 16.5347
737.331 18.9027
737.365 21.8147
737.398 25.4490
737.431 30.0625
737.464 36.0144
737.497 43.9183
737.530 54.6721
737.564 69.7783
737.597 91.8208
737.630 125.465
737.663 179.526
737.696 270.950
737.730 428.191
737.765 684.584
737.800 850.845
737.835 676.796
737.871 422.696
737.897 291.129
737.924 206.709
737.951 151.868
737.978 115.440
738.031 72.2588
738.085 49.1013
738.138 35.4090
738.192 26.6931
738.299 16.6854
738.406 11.3963
738.513 8.27292
738.620 6.27839
738.727 4.92847
738.941 3.27210
739.155 2.33364
739.369 1.75128
739.583 1.36533
740.011 0.901831
740.439 0.644839
740.867 0.487786
741.294 0.384961
742.150 0.263226
743.006 0.197198
744.718 0.134155
746.430 0.112765
748.142 0.124640
748.998 0.159167
749.426 0.196905
749.854 0.267869
750.282 0.421337
750.496 0.573953
750.710 0.850027
750.817 1.08035
750.924 1.42837
751.031 1.99007
751.138 2.98350
751.192 3.79471
751.245 4.99551
751.299 6.88055
751.352 10.0840
751.406 16.1779
751.432 21.5275
751.459 29.9490
751.473 36.1260
751.486 44.3679
751.493 49.5521
751.499 55.6641
751.506 62.9275
751.513 71.4908
751.519 81.9882
751.526 94.8003
751.533 110.586
751.539 129.888
751.546 154.404
751.553 185.291
751.559 224.206
751.566 271.949
751.575 348.052
751.583 434.923
751.600 542.834
751.609 510.458
751.617 433.630
751.634 270.934
751.646 191.472
751.658 138.640
751.670 103.506
751.682 79.7364
751.706 50.7160
751.730 34.8701
751.754 25.3218
751.778 19.2076
751.826 12.1110
751.873 8.31558
751.921 6.06139
751.969 4.61604
752.017 3.63660
752.113 2.42818
752.209 1.74198
752.304 1.31467
752.400 1.03123
752.592 0.689858
752.783 0.500018
752.975 0.383635
753.166 0.307135
753.549 0.215909
753.932 0.165564
754.698 0.114615
755.464 0.0905250
756.230 0.0772433
757.762 0.0640479
760.826 0.0563915
763.890 0.0588011
766.953 0.0711837
768.485 0.0847729
770.017 0.109892
771.549 0.163365
772.315 0.216233
773.081 0.311976
773.464 0.392262
773.847 0.514451
774.230 0.713994
774.613 1.07363
774.805 1.37343
774.996 1.82659
775.188 2.55897
775.379 3.85790
775.475 4.92273
775.523 5.63073
775.571 6.50273
775.619 7.59837
775.666 8.99786
775.714 10.8244
775.738 11.9514
775.762 13.2641
775.786 14.8124
775.810 16.6394
775.834 18.8352
775.858 21.4816
775.882 24.7383
775.906 28.7694
775.930 33.8596
775.954 40.4077
775.978 49.0562
776.002 60.6726
776.025 76.8011
776.049 99.9844
776.073 134.855
776.097 189.251
776.121 278.072
776.145 425.128
776.173 680.100
776.200 849.846
776.228 679.686
776.255 424.793
776.281 268.581
776.307 178.133
776.333 124.607
776.359 91.2648
776.410 54.4086
776.462 35.8759
776.514 25.3605
776.566 18.8535
776.669 11.5802
776.773 7.83293
776.877 5.65689
776.980 4.28415
777.084 3.36484
777.291 2.24920
777.498 1.62882
777.705 1.25369
777.912 1.01678
778.327 0.782590
778.534 0.758773
778.741 0.815682
778.948 1.03155
779.052 1.27340
779.155 1.72291
779.259 2.66272
779.311 3.55714
779.363 5.09288
779.414 8.04948
779.440 10.6676
779.466 14.8500
779.492 22.0932
779.518 36.0967
779.531 48.4443
779.544 67.5026
779.550 81.1259
779.557 98.3021
779.563 120.676
779.570 148.646
779.577 190.096
779.585 237.395
779.600 296.292
779.608 278.394
779.615 236.467
779.631 147.915
779.645 93.4493
779.659 61.9873
779.674 43.3983
779.688 31.8952
779.717 19.1163
779.745 12.6848
779.774 9.03243
779.803 6.77027
779.860 4.23790
779.918 2.92791
779.975 2.16604
780.090 1.35724
780.205 0.957218
780.320 0.729333
780.549 0.489520
780.779 0.369776
781.009 0.299789
781.468 0.222657
782.386 0.156112
783.305 0.126996
785.142 0.103131
786.979 0.0969811
790.654 0.109248
792.491 0.127353
794.328 0.160121
795.239 0.188127
796.150 0.238856
796.605 0.290181
797.060 0.408719
797.288 0.555549
797.402 0.694560
797.515 0.938302
797.629 1.43289
797.686 1.89959
797.743 2.70227
797.800 4.26159
797.829 5.66282
797.857 7.92606
797.885 11.9494
797.914 19.9878
797.928 27.3827
797.935 32.5852
797.942 39.2953
797.949 48.0705
797.957 59.6777
797.964 75.1095
797.971 95.4405
797.978 122.394
797.985 152.785
798.000 190.812
798.007 179.475
798.015 152.621
798.029 95.6387
798.044 59.6061
798.058 39.1500
798.072 27.2346
798.087 19.8979
798.101 15.1279
798.115 11.8775
798.144 7.88630
798.172 5.63680
798.201 4.25138
798.258 2.71043
798.315 1.92107
798.373 1.46517
798.487 0.988997
798.601 0.761221
798.716 0.637483
798.944 0.520847
799.402 0.465101
799.859 0.484375
800.774 0.619150
801.689 0.896926
802.147 1.13190
802.376 1.29005
802.605 1.48693
802.833 1.73640
802.948 1.88684
803.062 2.05861
803.176 2.25630
803.291 2.48519
803.405 2.75222
803.520 3.06604
803.634 3.43894
803.748 3.88634
803.863 4.42944
803.977 5.09694
804.091 5.93140
804.206 6.99236
804.320 8.36945
804.435 10.1993
804.549 12.7074
804.663 16.2683
804.778 21.5544
804.892 29.8513
805.006 43.8977
805.064 54.8063
805.121 70.1039
805.178 92.2749
805.235 125.544
805.292 176.987
805.350 256.727
805.425 411.230
805.500 516.225
805.575 414.837
805.651 259.702
805.717 168.259
805.784 113.714
805.851 80.5827
805.918 59.6055
806.052 35.9988
806.185 23.9482
806.319 17.0383
806.453 12.7357
806.720 7.90124
806.987 5.39882
807.255 3.94454
807.522 3.02836
807.789 2.41691
808.324 1.68526
808.859 1.29411
809.393 1.07842
809.928 0.970682
810.997 1.00224
811.532 1.17157
812.066 1.54141
812.601 2.37312
812.868 3.19609
813.002 3.81378
813.069 4.20080
813.136 4.65637
813.203 5.19834
813.269 5.84766
813.336 6.63688
813.403 7.60575
813.470 8.81658
813.537 10.3514
813.604 12.3390
813.670 14.9747
813.737 18.5767
813.804 23.6571
813.871 31.1454
813.938 42.7947
814.005 62.2576
814.038 77.1403
814.071 97.7306
814.105 127.058
814.138 170.082
814.172 234.705
814.205 331.687
814.253 529.881
814.300 659.184
814.348 524.982
814.395 327.844
814.435 216.464
814.476 148.608
814.516 106.529
814.556 79.5006
814.637 48.5927
814.718 32.5829
814.798 23.3071
814.879 17.4913
815.040 10.9125
815.202 7.48074
815.363 5.47432
815.686 3.34686
816.008 2.30817
816.331 1.73309
816.976 1.18619
817.622 1.03735
817.944 1.08967
818.267 1.28116
818.590 1.77787
818.751 2.29369
818.912 3.23253
819.074 5.18015
819.154 7.03659
819.235 10.2365
819.316 16.4686
819.336 18.9565
819.356 22.0471
819.376 25.9910
819.396 31.0730
819.406 34.2082
819.416 37.8404
819.427 42.0781
819.437 47.0603
819.447 52.9666
819.457 60.0327
819.467 68.5709
819.477 78.8862
819.487 91.7493
819.497 107.849
819.507 128.272
819.517 154.242
819.527 188.375
819.537 233.319
819.548 292.746
819.558 369.676
819.579 591.208
819.600 735.202
819.611 689.717
819.621 585.259
819.643 365.883
819.663 230.580
819.683 152.939
819.703 106.870
819.723 78.3616
819.763 46.7941
819.804 30.9378
819.844 21.9456
819.884 16.3822
819.965 10.1682
820.045 6.95915
820.126 5.09512
820.287 3.12269
820.448 2.15475
820.609 1.60865
820.932 1.04439
821.254 0.772026
821.576 0.619349
822.220 0.463042
823.509 0.355044
824.798 0.340156
826.087 0.383156
827.376 0.532453
828.021 0.728820
828.343 0.916442
828.665 1.24788
828.987 1.93055
829.149 2.58865
829.310 3.75055
829.390 4.70080
829.471 6.10868
829.511 7.08438
829.551 8.33017
829.592 9.95553
829.632 12.1250
829.652 13.5026
829.672 15.1269
829.692 17.0804
829.712 19.4329
829.733 22.3302
829.753 25.9137
829.773 30.4386
829.793 36.2595
829.813 43.9547
829.833 54.2850
829.853 68.7155
829.874 89.3825
829.894 120.523
829.914 169.129
829.934 248.650
829.954 380.710
829.977 609.416
830.000 764.333
830.023 613.693
830.046 384.047
830.062 275.622
830.077 202.504
830.092 152.673
830.108 118.464
830.139 76.3211
830.170 52.9477
830.200 38.7405
830.231 29.5732
830.293 18.8552
830.355 13.0984
830.416 9.67402
830.540 5.97913
830.663 4.13920
830.787 3.09833
831.034 2.03409
831.280 1.54043
831.527 1.28403
832.021 1.07294
833.008 1.10906
833.996 1.48650
834.243 1.64531
834.490 1.84105
834.737 2.08361
834.860 2.22657
834.983 2.38690
835.107 2.56749
835.230 2.77136
835.354 3.00267
835.477 3.26641
835.601 3.56899
835.724 3.91764
835.847 4.32232
835.971 4.79551
836.218 6.01745
836.464 7.78473
836.711 10.4738
836.958 14.8385
837.082 18.1154
837.205 22.5857
837.328 28.8919
837.452 38.1439
837.575 52.3816
837.699 75.4695
837.822 115.033
837.946 184.435
838.073 294.365
838.200 364.364
838.327 288.706
838.455 180.062
838.542 128.665
838.628 94.0959
838.715 70.8149
838.802 54.7853
838.976 35.1778
839.150 24.3060
839.324 17.7340
839.497 13.4848
839.845 8.53172
840.193 5.87525
840.540 4.29208
841.236 2.58154
841.931 1.72682
842.626 1.23965
843.321 0.935823
844.017 0.733659
845.407 0.489588
846.798 0.353350
848.188 0.269575
849.579 0.214398
852.360 0.148614
855.141 0.112635
860.703 0.0780636
866.265 0.0660402
871.827 0.0695637
874.608 0.0817097
875.998 0.0943407
877.389 0.117096
878.779 0.164379
879.474 0.210439
880.170 0.293134
880.865 0.466915
881.212 0.637662
881.560 0.945125
881.734 1.20145
881.908 1.58867
882.082 2.21452
882.255 3.32476
882.342 4.23458
882.429 5.58637
882.516 7.71961
882.560 9.28347
882.603 11.3729
882.625 12.6999
882.646 14.2657
882.668 16.1397
882.690 18.4075
882.712 21.2007
882.733 24.6584
882.755 29.0269
882.777 34.6501
882.799 42.0865
882.820 52.0810
882.842 65.9747
882.864 85.9771
882.885 116.142
882.907 163.312
882.929 240.622
882.951 369.192
882.975 591.053
883.000 737.836
883.025 589.520
883.050 368.732
883.068 257.930
883.085 185.509
883.103 137.565
883.121 105.353
883.157 66.6082
883.193 45.5575
883.229 33.0053
883.265 24.9683
883.337 15.6889
883.409 10.7591
883.480 7.83836
883.552 5.96909
883.624 4.70347
883.767 3.14588
883.911 2.26260
884.055 1.71448
884.198 1.35173
884.485 0.916916
884.772 0.677623
885.347 0.440504
885.921 0.336417
886.495 0.288249
887.644 0.273400
888.792 0.345794
889.367 0.436642
889.941 0.609820
890.228 0.757417
890.515 0.982920
890.802 1.35123
891.090 2.01171
891.233 2.55850
891.377 3.37846
891.520 4.68848
891.592 5.65882
891.664 6.96972
891.700 7.80693
891.736 8.80640
891.772 10.0127
891.807 11.4868
891.843 13.3137
891.879 15.6145
891.915 18.5671
891.951 22.4274
891.987 27.6356
892.023 34.8663
892.059 45.2901
892.095 61.0293
892.130 86.1979
892.166 129.374
892.184 163.066
892.202 209.526
892.220 274.672
892.238 365.395
892.269 584.427
892.300 729.844
892.331 583.371
892.362 364.561
892.397 212.472
892.431 133.028
892.466 89.4599
892.501 63.7447
892.535 47.5216
892.570 36.7081
892.639 23.7211
892.708 16.5560
892.777 12.2044
892.916 7.42381
893.054 4.99966
893.193 3.60577
893.331 2.73204
893.469 2.14882
893.746 1.44336
894.023 1.05001
894.300 0.808918
894.577 0.650971
895.130 0.464606
895.684 0.364690
896.791 0.271916
897.899 0.239888
899.006 0.236349
901.220 0.286391
902.328 0.344242
903.435 0.438107
904.542 0.595188
905.649 0.879205
906.203 1.11434
906.757 1.46617
907.034 1.71157
907.310 2.02663
907.449 2.21888
907.587 2.44061
907.726 2.69819
907.864 2.99980
908.003 3.35641
908.141 3.78164
908.279 4.29477
908.418 4.92198
908.556 5.69998
908.695 6.68173
908.833 7.94578
908.971 9.61304
909.110 11.8776
909.248 15.0676
909.387 19.7761
909.525 27.1687
909.663 39.8110
909.733 49.8377
909.802 64.3041
909.871 86.2693
909.940 121.804
910.009 183.723
910.079 298.551
910.139 468.234
910.200 631.373
910.230 636.834
910.261 580.371
910.322 422.058
910.341 384.886
910.361 358.633
910.380 343.120
910.400 338.140
910.410 339.590
910.420 343.654
910.430 350.357
910.439 359.731
910.459 386.603
910.479 424.228
910.509 500.711
910.539 583.935
910.600 630.735
910.630 560.868
910.661 464.035
910.722 295.360
910.792 180.261
910.862 119.006
910.933 84.0804
911.003 62.5753
911.144 38.6694
911.285 26.3606
911.426 19.1690
911.567 14.5965
911.848 9.30388
912.130 6.46121
912.411 4.75647
912.975 2.89572
913.538 1.95388
914.101 1.41176
914.665 1.07141
915.228 0.843982
916.354 0.568864
917.481 0.416169
918.607 0.324132
919.734 0.266288
921.987 0.210654
923.113 0.206883
924.240 0.224909
925.367 0.287539
925.930 0.357707
926.493 0.490482
926.775 0.603934
927.056 0.777868
927.338 1.06300
927.620 1.57693
927.760 2.00435
927.901 2.64722
928.042 3.67900
928.183 5.48887
928.253 6.95451
928.324 9.10644
928.359 10.5812
928.394 12.4474
928.429 14.8556
928.464 18.0358
928.482 20.0217
928.500 22.3526
928.517 25.1120
928.535 28.4101
928.552 32.3944
928.570 37.2651
928.588 43.2992
928.605 50.8876
928.623 60.5933
928.640 73.2465
928.658 90.0996
928.676 113.087
928.693 145.250
928.711 191.389
928.728 258.812
928.746 356.954
928.773 570.456
928.800 709.953
928.827 565.508
928.854 353.080
928.874 247.629
928.893 178.213
928.913 132.436
928.932 101.455
928.971 64.2463
929.010 43.9896
929.049 31.8938
929.088 24.1412
929.166 15.1887
929.244 10.4197
929.322 7.59519
929.400 5.78365
929.478 4.55640
929.634 3.04508
929.790 2.18734
929.946 1.65400
930.101 1.29994
930.413 0.873712
930.725 0.636747
931.037 0.491429
931.349 0.395884
931.972 0.281944
932.596 0.219205
933.843 0.156465
935.091 0.128378
936.338 0.115234
938.833 0.112485
941.327 0.138750
942.575 0.171547
943.822 0.234553
944.446 0.288577
945.069 0.371572
945.693 0.508007
946.316 0.755010
946.628 0.961409
946.940 1.27366
947.252 1.77880
947.564 2.67545
947.720 3.41101
947.798 3.90024
947.876 4.50348
947.954 5.26108
948.032 6.22766
948.110 7.49098
948.149 8.27245
948.187 9.18061
948.265 11.5176
948.343 14.8669
948.421 19.9164
948.499 27.9957
948.538 33.9866
948.577 42.0736
948.616 53.3209
948.655 69.4719
948.694 93.7541
948.733 131.877
948.772 194.367
948.811 297.914
948.856 476.292
948.900 593.716
948.945 473.687
948.989 295.869
949.016 218.586
949.044 164.298
949.098 99.4938
949.153 65.4192
949.207 45.9331
949.262 33.8680
949.316 25.9595
949.425 16.5963
949.534 11.4977
949.643 8.43252
949.862 5.09193
950.080 3.41090
950.298 2.44983
950.516 1.84965
950.734 1.45024
951.170 0.969047
951.607 0.702455
952.043 0.540796
952.479 0.437168
953.352 0.325654
954.224 0.303061
954.660 0.344563
954.878 0.398945
955.097 0.506091
955.315 0.741382
955.424 0.974571
955.533 1.39109
955.642 2.24454
955.696 3.05064
955.751 4.43230
955.806 7.10109
955.833 9.47260
955.860 13.2592
955.887 19.8766
955.915 32.7312
955.928 44.2082
955.942 62.1154
955.949 74.9261
955.955 91.4597
955.962 112.845
955.969 140.235
955.977 179.646
955.985 224.018
956.000 279.552
956.008 262.825
956.016 223.035
956.031 139.465
956.043 94.9274
956.055 66.8693
956.068 48.7814
956.080 36.9365
956.104 22.9985
956.128 15.6195
956.153 11.2623
956.177 8.50165
956.225 5.35054
956.274 3.68758
956.322 2.70976
956.420 1.66293
956.517 1.14473
956.614 0.850842
956.808 0.546666
957.002 0.399787
957.196 0.317414
957.585 0.232364
958.361 0.167703
959.138 0.144042
960.691 0.131553
962.245 0.140955
963.798 0.173617
964.575 0.205866
965.351 0.260686
966.128 0.366831
966.516 0.464730
966.905 0.633478
967.293 0.974039
967.487 1.29952
967.681 1.87320
967.876 3.04546
967.973 4.16173
968.070 6.09786
968.118 7.65571
968.143 8.67824
968.167 9.92160
968.191 11.4677
968.215 13.4143
968.240 15.9115
968.264 19.1707
968.288 23.5720
968.313 29.6811
968.337 38.4863
968.361 51.7113
968.385 72.9196
968.397 88.4307
968.410 109.084
968.422 137.416
968.434 176.362
968.446 230.928
968.458 306.893
968.479 491.212
968.500 615.863
968.521 494.310
968.542 309.313
968.558 211.432
968.575 149.291
968.591 109.157
968.607 82.7453
968.640 51.6250
968.672 35.0615
968.705 25.3190
968.737 19.1413
968.802 12.0847
968.867 8.36580
968.932 6.18002
969.062 3.85851
969.192 2.72560
969.322 2.10048
969.582 1.49838
969.841 1.27002
970.101 1.21499
970.621 1.42885
970.881 1.70739
971.141 2.16520
971.401 2.93023
971.531 3.50775
971.661 4.29703
971.726 4.80418
971.791 5.41228
971.856 6.14948
971.920 7.05290
971.985 8.17955
972.050 9.60621
972.115 11.4482
972.180 13.8774
972.245 17.1798
972.310 21.8145
972.375 28.5895
972.440 38.9906
972.505 56.0760
972.538 68.9482
972.570 86.4344
972.603 110.948
972.635 146.085
972.668 197.377
972.700 271.681
972.750 434.207
972.800 540.775
972.850 431.109
972.900 269.247
972.941 180.123
972.982 124.802
973.023 90.1229
973.064 67.6102
973.147 41.5716
973.229 27.9563
973.311 20.0203
973.393 15.0286
973.557 9.35073
973.722 6.37803
973.886 4.63291
974.050 3.52283
974.214 2.77392
974.543 1.85661
974.871 1.33810
975.200 1.01658
975.529 0.803744
976.186 0.548436
976.843 0.407504
978.157 0.267260
979.471 0.205521
980.786 0.177326
983.414 0.171812
986.043 0.225147
987.357 0.290444
988.671 0.414424
989.328 0.519818
989.985 0.680498
990.642 0.941933
991.300 1.40839
991.464 1.58252
991.628 1.79234
991.792 2.04827
991.957 2.36485
992.121 2.76279
992.203 3.00140
992.285 3.27245
992.368 3.58286
992.450 3.93970
992.614 4.83591
992.778 6.08013
992.942 7.87605
993.107 10.6011
993.271 15.0107
993.353 18.3144
993.435 22.8101
993.517 29.1444
993.600 38.3971
993.682 52.5815
993.764 75.4437
993.846 114.326
993.928 181.959
994.014 290.753
994.100 361.748
994.186 288.084
994.272 179.862
994.362 108.695
994.451 69.7600
994.541 47.7044
994.630 34.3876
994.720 25.8497
994.809 20.0909
994.988 13.0919
995.167 9.18549
995.346 6.79466
995.704 4.14932
996.062 2.79907
996.420 2.01945
996.778 1.52942
997.136 1.20169
997.852 0.804760
998.568 0.583221
999.284 0.447691
1000.00 0.359362
1001.49 0.254127
1002.99 0.203287
1004.48 0.182073
1005.97 0.184794
1007.46 0.221911
1008.21 0.266798
1008.96 0.352395
1009.70 0.537456
1010.08 0.720459
1010.45 1.05026
1010.64 1.32564
1010.82 1.73890
1011.01 2.40884
1011.20 3.58625
1011.29 4.55843
1011.38 5.98357
1011.43 6.97883
1011.48 8.21866
1011.52 9.86553
1011.57 12.0126
1011.59 13.4241
1011.62 15.0244
1011.64 17.0197
1011.66 19.3288
1011.69 22.2749
1011.71 25.7737
1011.73 30.1562
1011.76 35.7404
1011.78 43.3599
1011.80 53.1299
1011.83 66.4756
1011.85 85.2660
1011.87 114.100
1011.90 156.254
1011.92 222.125
1011.94 325.588
1011.97 524.010
1012.00 648.825
1012.03 514.151
1012.06 323.376
1012.09 210.376
1012.11 142.623
1012.14 101.362
1012.16 75.9255
1012.21 45.8707
1012.27 30.7194
1012.32 21.8203
1012.37 16.3684
1012.47 10.1447
1012.57 6.91096
1012.68 5.02277
1012.78 3.82686
1012.88 3.02923
1013.09 2.04727
1013.29 1.49713
1013.50 1.16004
1013.71 0.941181
1014.12 0.686553
1014.53 0.559377
1015.35 0.481456
1016.17 0.566545
1016.59 0.698581
1017.00 0.958789
1017.20 1.18319
1017.41 1.52689
1017.61 2.08739
1017.82 3.08127
1017.92 3.90108
1018.03 5.12138
1018.13 7.05062
1018.18 8.44930
1018.23 10.3185
1018.26 11.5231
1018.28 12.9536
1018.31 14.6698
1018.33 16.6643
1018.36 19.2033
1018.39 22.3682
1018.41 26.3798
1018.44 31.3365
1018.46 38.1077
1018.49 47.2794
1018.51 60.0861
1018.54 77.7625
1018.57 105.253
1018.59 146.488
1018.62 216.267
1018.64 326.402
1018.67 522.409
1018.70 643.823
1018.73 511.210
1018.76 317.629
1018.78 228.246
1018.80 167.666
1018.84 98.2469
1018.88 63.3476
1018.92 44.2708
1018.96 32.3352
1019.00 24.6110
1019.08 15.6799
1019.16 10.8114
1019.24 7.94033
1019.40 4.82261
1019.55 3.25118
1019.71 2.36075
1019.87 1.80229
1020.03 1.43369
1020.35 0.989098
1020.66 0.743669
1021.30 0.500792
1021.93 0.396212
1022.57 0.351595
1023.83 0.357800
1025.10 0.485941
1025.74 0.634950
1026.37 0.914649
1026.69 1.15116
1027.00 1.51062
1027.32 2.09334
1027.64 3.12796
1027.80 3.97850
1027.95 5.23275
1028.03 6.11217
1028.11 7.22108
1028.19 8.66524
1028.23 9.56884
1028.27 10.5938
1028.31 11.8266
1028.35 13.2880
1028.39 15.0379
1028.43 17.0981
1028.47 19.6818
1028.51 22.8039
1028.55 26.8367
1028.59 31.8768
1028.63 38.6452
1028.67 47.7573
1028.71 60.3850
1028.75 77.9425
1028.79 104.628
1028.83 144.761
1028.87 210.714
1028.91 314.481
1028.95 503.008
1029.00 621.911
1029.05 494.169
1029.10 307.557
1029.13 225.678
1029.16 170.280
1029.21 103.697
1029.27 68.5114
1029.33 48.2445
1029.39 35.4971
1029.45 27.2700
1029.56 17.4937
1029.68 12.1191
1029.80 8.90998
1030.03 5.39237
1030.26 3.62118
1030.49 2.60726
1030.73 1.97367
1030.96 1.55174
1031.43 1.04289
1031.89 0.760089
1032.36 0.587582
1032.82 0.475584
1033.76 0.345718
1034.69 0.280456
1036.55 0.239487
1038.41 0.280949
1039.35 0.346872
1040.28 0.478030
1040.74 0.591634
1041.21 0.766437
1041.68 1.05322
1042.14 1.56813
1042.37 1.99590
1042.61 2.63843
1042.84 3.66696
1043.07 5.46429
1043.13 6.13413
1043.19 6.92169
1043.25 7.87267
1043.31 9.03537
1043.36 10.5050
1043.42 12.3299
1043.48 14.6745
1043.54 17.7546
1043.60 21.9921
1043.66 27.8081
1043.71 36.2262
1043.77 49.0051
1043.83 69.5916
1043.86 84.8318
1043.89 105.284
1043.92 133.331
1043.95 172.583
1043.97 228.261
1044.00 306.733
1044.05 492.187
1044.10 610.022
1044.15 483.881
1044.20 303.377
1044.25 179.024
1044.30 113.870
1044.35 77.4142
1044.41 55.5838
1044.46 41.6668
1044.51 32.3181
1044.61 21.0014
1044.72 14.7093
1044.82 10.8678
1045.03 6.62696
1045.24 4.46666
1045.45 3.22084
1045.65 2.43836
1045.86 1.91531
1046.28 1.28088
1046.70 0.927784
1047.11 0.711493
1047.53 0.570161
1048.36 0.404966
1049.19 0.319825
1050.86 0.257246
1052.52 0.285673
1053.36 0.345444
1054.19 0.469099
1054.60 0.577876
1055.02 0.745890
1055.44 1.02265
1055.85 1.52243
1056.06 1.93773
1056.27 2.56227
1056.48 3.56323
1056.68 5.31486
1056.79 6.72977
1056.84 7.66136
1056.89 8.80200
1056.94 10.2189
1057.00 12.0082
1057.05 14.3117
1057.07 15.7195
1057.10 17.3446
1057.13 19.2338
1057.15 21.4465
1057.20 27.1759
1057.26 35.5003
1057.31 48.2012
1057.33 57.1800
1057.36 68.8052
1057.39 84.1599
1057.41 104.887
1057.44 133.514
1057.46 173.921
1057.49 231.807
1057.52 314.206
1057.56 500.323
1057.60 621.065
1057.64 491.048
1057.69 306.958
1057.73 179.624
1057.78 112.720
1057.83 75.9322
1057.87 54.5340
1057.92 40.6554
1057.97 31.5650
1058.06 20.4565
1058.15 14.3011
1058.24 10.5514
1058.43 6.41971
1058.62 4.31015
1058.80 3.10262
1058.99 2.34408
1059.18 1.83678
1059.55 1.22047
1059.92 0.876384
1060.29 0.663900
1060.67 0.524178
1061.41 0.356872
1062.16 0.264481
1063.64 0.171609
1065.13 0.128958
1066.62 0.107232
1069.60 0.0929643
1072.58 0.105535
1074.07 0.126114
1075.56 0.166648
1077.05 0.253808
1077.80 0.338756
1078.54 0.489144
1078.91 0.613074
1079.29 0.797994
1079.66 1.09491
1080.03 1.61654
1080.22 2.04564
1080.40 2.68112
1080.50 3.12273
1080.59 3.68887
1080.68 4.43166
1080.78 5.43365
1080.82 6.07894
1080.87 6.83185
1080.92 7.75925
1080.96 8.86701
1081.01 10.2683
1081.06 11.9937
1081.10 14.2541
1081.15 17.1527
1081.20 21.1366
1081.24 26.5449
1081.29 34.5084
1081.33 46.2651
1081.38 65.4715
1081.43 97.6733
1081.45 123.853
1081.47 158.736
1081.50 207.477
1081.52 275.100
1081.56 438.615
1081.60 548.668
1081.64 437.326
1081.68 274.109
1081.72 177.364
1081.75 121.025
1081.79 85.7217
1081.82 63.9003
1081.89 38.8661
1081.96 26.1888
1082.04 18.7987
1082.11 14.2645
1082.25 9.15741
1082.39 6.58137
1082.53 5.17238
1082.81 4.04661
1083.09 4.37166
1083.23 5.21176
1083.38 6.93095
1083.52 10.5762
1083.55 12.1168
1083.59 14.0178
1083.62 16.4648
1083.66 19.6806
1083.68 21.7400
1083.69 24.1575
1083.71 27.0188
1083.73 30.2297
1083.75 34.3098
1083.76 38.9815
1083.78 45.0528
1083.80 52.1797
1083.82 61.7032
1083.83 74.0051
1083.85 90.1988
1083.87 110.560
1083.89 139.857
1083.90 178.084
1083.92 234.634
1083.94 308.451
1083.97 492.237
1084.00 601.624
1084.03 473.786
1084.06 293.975
1084.09 204.007
1084.11 145.742
1084.13 107.785
1084.15 83.2422
1084.20 52.9502
1084.24 36.4347
1084.29 26.5547
1084.33 20.2100
1084.42 12.8559
1084.51 8.89515
1084.60 6.56742
1084.78 4.04393
1084.97 2.76720
1085.15 2.03594
1085.51 1.25953
1085.87 0.873276
1086.23 0.650449
1086.95 0.412434
1087.67 0.292222
1088.39 0.222104
1089.84 0.146803
1091.28 0.109027
1092.73 0.0875964
1095.61 0.0667441
1098.50 0.0607950
1101.39 0.0689195
1102.83 0.0858082
1103.55 0.103486
1104.27 0.136130
1105.00 0.206230
1105.36 0.275926
1105.72 0.402481
1105.90 0.508977
1106.08 0.669947
1106.26 0.933519
1106.44 1.40314
1106.53 1.79643
1106.62 2.38054
1106.71 3.31328
1106.80 4.93802
1106.89 8.15087
1106.94 11.0841
1106.96 13.2340
1106.98 15.9293
1107.00 19.7221
1107.03 24.7536
1107.04 28.3369
1107.05 32.3358
1107.06 37.2210
1107.07 43.2653
1107.08 51.6330
1107.09 61.5235
1107.11 74.3666
1107.12 91.3532
1107.13 116.701
1107.14 149.022
1107.15 193.828
1107.16 255.400
1107.18 409.524
1107.20 504.051
1107.21 473.571
1107.22 401.029
1107.24 248.741
1107.25 175.629
1107.27 129.976
1107.29 77.0383
1107.32 50.0467
1107.35 34.8519
1107.37 25.5682
1107.40 19.5194
1107.45 12.4141
1107.50 8.57589
1107.55 6.27664
1107.66 3.78201
1107.76 2.52257
1107.87 1.81200
1107.97 1.36839
1108.07 1.07309
1108.28 0.715642
1108.49 0.517764
1108.70 0.396413
1108.91 0.316728
1109.32 0.221888
1109.74 0.170181
1110.57 0.118968
1111.41 0.0960990
1112.24 0.0847065
1113.91 0.0764581
1117.24 0.0832517
1120.57 0.111051
1122.24 0.136705
1123.90 0.176665
1125.57 0.242610
1127.24 0.361816
1128.07 0.461008
1128.90 0.610447
1129.32 0.715438
1129.73 0.850662
1129.94 0.933943
1130.05 0.980115
1130.15 1.02987
1130.36 1.14167
1130.57 1.27304
1130.78 1.42965
1130.98 1.61645
1131.19 1.84283
1131.40 2.12076
1131.61 2.46895
1131.82 2.90849
1132.03 3.47697
1132.23 4.22976
1132.44 5.26094
1132.65 6.70878
1132.86 8.83820
1133.07 12.1415
1133.28 17.6624
1133.38 21.8584
1133.48 27.6446
1133.59 35.8519
1133.69 47.8298
1133.80 65.7050
1133.90 92.3381
1134.05 147.745
1134.20 183.593
1134.35 146.022
1134.50 91.2875
1134.63 59.6925
1134.76 40.7426
1134.89 29.0291
1135.02 21.5931
1135.28 13.1170
1135.55 8.74922
1135.81 6.23230
1136.07 4.65830
1136.59 2.88368
1137.11 1.95840
1137.63 1.41860
1138.15 1.07570
1138.67 0.845359
1139.72 0.564156
1140.76 0.406016
1141.80 0.308596
1142.85 0.244583
1144.93 0.169048
1147.02 0.128998
1151.19 0.0951876
1155.36 0.0953712
1157.45 0.109414
1159.54 0.141556
1161.62 0.216230
1162.66 0.292244
1163.71 0.431302
1164.23 0.548343
1164.75 0.725965
1165.27 1.01552
1165.79 1.53239
1166.05 1.95994
1166.32 2.60001
1166.58 3.62034
1166.71 4.37116
1166.84 5.38392
1166.90 6.03898
1166.97 6.80853
1167.03 7.73517
1167.10 8.86447
1167.16 10.2836
1167.23 12.0407
1167.29 14.2864
1167.36 17.2174
1167.42 21.2091
1167.49 26.6406
1167.55 34.3997
1167.62 45.9736
1167.68 64.1722
1167.75 94.6442
1167.78 118.207
1167.81 149.226
1167.85 193.028
1167.88 250.622
1167.94 400.714
1168.00 495.660
1168.06 393.669
1168.12 245.104
1168.18 151.831
1168.24 99.2457
1168.30 68.7357
1168.36 49.9925
1168.42 37.8235
1168.48 29.5385
1168.60 19.3724
1168.72 13.6449
1168.84 10.1172
1169.08 6.20188
1169.32 4.18124
1169.56 3.01063
1169.80 2.27296
1170.04 1.78027
1170.52 1.17888
1171.00 0.842185
1171.48 0.634235
1171.96 0.497444
1172.92 0.333987
1173.88 0.244124
1174.84 0.189764
1175.79 0.154677
1177.71 0.114606
1179.63 0.0950996
1183.47 0.0854068
1187.30 0.105482
1189.22 0.133435
1191.14 0.188092
1192.10 0.235201
1193.05 0.307613
1194.01 0.426406
1194.97 0.640438
1195.45 0.818365
1195.93 1.08531
1196.17 1.27261
1196.41 1.51409
1196.65 1.83274
1196.77 2.03167
1196.89 2.26308
1197.01 2.53925
1197.13 2.86958
1197.25 3.26916
1197.37 3.75867
1197.49 4.36710
1197.61 5.13604
1197.73 6.12681
1197.85 7.42020
1197.97 9.18398
1198.09 11.6508
1198.21 15.2408
1198.33 20.6732
1198.45 29.5655
1198.57 45.1886
1198.63 57.6218
1198.69 75.2168
1198.75 100.494
1198.81 135.855
1198.90 217.023
1199.00 268.307
1199.10 212.737
1199.19 132.496
1199.26 96.1585
1199.32 71.2177
1199.45 42.3644
1199.57 27.5682
1199.70 19.2144
1199.82 14.0695
1199.95 10.7458
1200.20 6.83647
1200.45 4.71589
1200.70 3.45089
1201.20 2.07523
1201.70 1.38571
1202.20 0.992047
1202.70 0.746444
1203.20 0.583286
1204.20 0.386041
1205.21 0.276166
1206.21 0.208765
1207.21 0.164515
1209.21 0.111837
1211.22 0.0830821
1215.22 0.0552826
1219.23 0.0454206
1223.24 0.0494927
1225.24 0.0631605
1226.24 0.0782765
1227.24 0.106833
1227.74 0.131313
1228.25 0.169024
1228.75 0.231279
1229.25 0.344749
1229.50 0.440371
1229.75 0.585379
1230.00 0.822885
1230.25 1.24774
1230.38 1.60316
1230.50 2.13361
1230.63 2.98330
1230.75 4.47005
1230.88 7.43085
1230.91 8.66675
1230.94 10.1822
1230.97 12.1304
1231.00 14.6915
1231.03 18.2796
1231.05 20.5814
1231.06 23.1521
1231.08 26.4536
1231.09 30.2211
1231.11 35.1775
1231.13 40.9867
1231.14 48.8633
1231.16 59.1397
1231.17 72.8336
1231.19 90.1556
1231.20 115.693
1231.22 149.456
1231.24 201.052
1231.25 269.762
1231.28 428.599
1231.30 531.462
1231.31 497.198
1231.33 418.353
1231.35 261.767
1231.37 177.683
1231.39 124.597
1231.41 90.7972
1231.43 68.5359
1231.47 42.5291
1231.51 28.7434
1231.55 20.6530
1231.59 15.5292
1231.67 9.72544
1231.75 6.62245
1231.83 4.79746
1231.91 3.63531
1231.99 2.85856
1232.15 1.89368
1232.31 1.35114
1232.47 1.01422
1232.63 0.790802
1232.95 0.521678
1233.26 0.372529
1233.58 0.281361
1233.90 0.221761
1234.54 0.150743
1235.18 0.111901
1236.45 0.0731639
1237.73 0.0555744
1239.00 0.0466595
1241.55 0.0406879
1244.10 0.0454285
1245.38 0.0535951
1246.65 0.0701744
1247.93 0.107211
1248.56 0.144628
1249.20 0.212991
1249.52 0.270723
1249.84 0.358893
1250.16 0.503296
1250.48 0.763093
1250.64 0.981104
1250.80 1.30858
1250.95 1.83678
1251.11 2.77041
1251.19 3.53820
1251.27 4.67756
1251.35 6.47216
1251.39 7.78349
1251.43 9.48560
1251.47 11.8807
1251.49 13.4311
1251.51 15.3031
1251.53 17.5911
1251.55 20.4262
1251.57 23.9944
1251.59 28.3082
1251.61 34.2047
1251.63 42.0922
1251.65 52.9362
1251.67 68.3245
1251.69 90.9605
1251.71 125.562
1251.73 180.262
1251.75 261.815
1251.78 418.583
1251.80 521.682
1251.83 416.116
1251.85 259.884
1251.88 151.433
1251.91 94.6879
1251.93 63.6149
1251.96 45.8067
1251.99 34.0753
1252.02 26.2735
1252.07 17.0463
1252.13 11.8517
1252.18 8.75152
1252.29 5.32586
1252.40 3.56724
1252.51 2.56350
1252.63 1.92751
1252.74 1.50634
1252.96 0.993394
1253.18 0.706501
1253.40 0.530056
1253.62 0.413903
1254.06 0.275191
1254.50 0.199129
1254.95 0.152988
1255.39 0.123021
1256.27 0.0880958
1257.16 0.0699218
1258.93 0.0550622
1261.11 0.0572583
1262.20 0.0673205
1263.29 0.0891591
1263.83 0.108681
1264.38 0.139151
1264.92 0.189900
1265.47 0.282894
1265.74 0.361449
1266.02 0.481336
1266.29 0.677387
1266.56 1.02889
1266.70 1.32326
1266.83 1.76358
1266.97 2.47052
1267.11 3.71155
1267.17 4.73525
1267.24 6.22273
1267.31 8.53763
1267.34 10.2100
1267.38 12.4230
1267.41 15.4343
1267.43 17.3635
1267.45 19.6735
1267.46 22.4696
1267.48 25.8958
1267.50 30.1519
1267.51 35.5213
1267.53 42.4148
1267.55 51.4424
1267.57 63.5325
1267.58 80.1339
1267.60 103.554
1267.62 137.492
1267.63 187.677
1267.65 261.622
1267.68 415.795
1267.70 516.211
1267.71 483.288
1267.73 406.855
1267.75 254.646
1267.77 186.375
1267.78 141.498
1267.81 85.7131
1267.84 56.4168
1267.87 40.0379
1267.91 29.4962
1267.94 22.5811
1268.00 14.5012
1268.06 10.0204
1268.12 7.36462
1268.24 4.43833
1268.37 2.96427
1268.49 2.12010
1268.61 1.59232
1268.73 1.24297
1268.98 0.817031
1269.23 0.580259
1269.47 0.434174
1269.72 0.338437
1270.21 0.223784
1270.70 0.160739
1271.19 0.122303
1271.68 0.0971334
1272.66 0.0672031
1273.65 0.0507571
1275.61 0.0341492
1277.58 0.0263132
1279.54 0.0220081
1283.47 0.0177544
1291.33 0.0152999
1299.19 0.0158871
1307.04 0.0189600
1310.97 0.0220881
1314.90 0.0274932
1318.83 0.0382232
1320.80 0.0483706
1322.76 0.0662731
1324.73 0.103490
1325.71 0.139949
1326.69 0.205766
1327.18 0.261000
1327.67 0.344845
1328.16 0.481614
1328.66 0.727740
1328.90 0.932958
1329.15 1.24116
1329.39 1.73970
1329.52 2.11225
1329.64 2.61566
1329.76 3.33219
1329.82 3.81133
1329.88 4.39169
1329.95 5.12922
1330.01 6.05254
1330.07 7.24949
1330.13 8.83901
1330.19 11.0539
1330.25 14.1494
1330.31 18.8255
1330.37 26.0593
1330.41 31.4043
1330.44 38.5195
1330.47 48.2416
1330.50 61.4047
1330.53 81.0751
1330.56 109.519
1330.59 154.749
1330.62 222.208
1330.66 356.209
1330.70 443.305
1330.74 354.837
1330.78 221.129
1330.81 157.682
1330.84 115.025
1330.87 86.3739
1330.89 67.2856
1330.95 43.0120
1331.00 29.8032
1331.06 21.6706
1331.12 16.5094
1331.23 10.4686
1331.34 7.19439
1331.45 5.24524
1331.67 3.14929
1331.89 2.09830
1332.11 1.50284
1332.33 1.13048
1332.55 0.884340
1333.00 0.587471
1333.44 0.422761
1333.88 0.322191
1334.33 0.256480
1335.21 0.179130
1336.10 0.137668
1337.87 0.0988297
1339.64 0.0845873
1341.41 0.0814269
1344.96 0.0954681
1346.73 0.113262
1348.50 0.142435
1350.27 0.191451
1352.05 0.280505
1352.93 0.354682
1353.82 0.466534
1354.70 0.646703
1355.15 0.781297
1355.37 0.865842
1355.59 0.964940
1355.81 1.08327
1356.03 1.22477
1356.26 1.39759
1356.48 1.60963
1356.70 1.87629
1356.92 2.21469
1357.14 2.65737
1357.36 3.24587
1357.58 4.05978
1357.81 5.21764
1358.03 6.95970
1358.25 9.71778
1358.47 14.4899
1358.58 18.2663
1358.69 23.5986
1358.80 31.5616
1358.91 43.8654
1359.02 63.6182
1359.13 95.3082
1359.27 152.580
1359.40 191.388
1359.53 153.688
1359.67 96.1690
1359.76 68.6651
1359.85 50.1318
1359.94 37.6674
1360.03 29.1797
1360.21 18.6912
1360.39 12.9210
1360.57 9.41927
1360.76 7.17146
1361.12 4.54786
1361.48 3.14526
1361.84 2.31201
1362.57 1.41831
1363.30 0.980043
1364.02 0.739561
1364.75 0.601172
1365.47 0.524400
1366.93 0.502570
1367.65 0.566198
1368.38 0.721829
1369.10 1.08630
1369.47 1.45257
1369.83 2.10808
1370.01 2.64771
1370.10 3.00644
1370.19 3.44354
1370.28 3.99636
1370.38 4.70102
1370.47 5.61805
1370.56 6.82566
1370.60 7.60246
1370.65 8.50020
1370.69 9.59476
1370.74 10.8852
1370.78 12.4943
1370.83 14.4396
1370.87 16.8743
1370.92 19.9734
1370.97 24.0975
1371.01 29.4684
1371.06 36.7830
1371.10 47.0410
1371.15 62.3073
1371.19 84.8121
1371.24 119.584
1371.28 173.416
1371.34 277.517
1371.40 341.867
1371.46 269.574
1371.52 168.638
1371.58 105.144
1371.64 69.0864
1371.69 48.0388
1371.75 35.0502
1371.81 26.5892
1371.87 20.8140
1371.98 13.7537
1372.10 9.72185
1372.21 7.25257
1372.44 4.48075
1372.68 3.05334
1372.91 2.22402
1373.14 1.70015
1373.37 1.34829
1373.83 0.919713
1374.29 0.678598
1375.22 0.431868
1376.14 0.316272
1377.06 0.255747
1378.91 0.210779
1380.76 0.232822
1381.69 0.278387
1382.61 0.372761
1383.53 0.583620
1384.00 0.794500
1384.46 1.17507
1384.69 1.49113
1384.92 1.96617
1385.15 2.72703
1385.38 4.05730
1385.50 5.13648
1385.56 5.84755
1385.61 6.70206
1385.67 7.78072
1385.73 9.14356
1385.79 10.8990
1385.84 13.1660
1385.87 14.5996
1385.90 16.2791
1385.93 18.2631
1385.96 20.6287
1386.02 26.9499
1386.07 36.3902
1386.10 43.1526
1386.13 51.9028
1386.16 63.4506
1386.19 79.0226
1386.22 100.500
1386.25 130.758
1386.28 173.995
1386.31 232.867
1386.35 373.554
1386.40 462.291
1386.45 366.145
1386.50 229.506
1386.54 139.298
1386.59 89.6922
1386.64 61.4755
1386.69 44.3876
1386.74 33.4079
1386.79 25.9901
1386.89 16.9596
1386.99 11.9110
1387.08 8.81759
1387.28 5.39105
1387.48 3.64004
1387.67 2.62814
1387.87 1.99158
1388.06 1.56551
1388.46 1.04874
1388.85 0.759506
1389.24 0.581796
1389.63 0.465169
1390.42 0.327554
1391.20 0.254426
1392.77 0.192211
1394.33 0.191578
1395.12 0.216368
1395.90 0.273435
1396.69 0.405742
1397.08 0.539837
1397.47 0.783820
1397.67 0.987810
1397.86 1.29630
1398.06 1.79445
1398.25 2.67574
1398.35 3.39545
1398.45 4.46084
1398.50 5.19647
1398.55 6.13329
1398.60 7.35147
1398.65 8.97519
1398.70 11.2048
1398.72 12.6769
1398.74 14.3799
1398.77 16.5440
1398.79 19.1115
1398.82 22.4689
1398.84 26.5837
1398.87 32.1688
1398.89 39.3124
1398.92 49.5005
1398.94 63.2911
1398.97 84.2711
1398.99 114.718
1399.01 161.747
1399.04 234.539
1399.07 375.386
1399.10 463.026
1399.13 367.810
1399.16 228.606
1399.19 153.227
1399.22 107.795
1399.24 78.7731
1399.27 59.5995
1399.32 37.1199
1399.37 25.1588
1399.42 18.1206
1399.47 13.6546
1399.57 8.54156
1399.67 5.84637
1399.77 4.25745
1399.87 3.24395
1399.97 2.55861
1400.17 1.71853
1400.37 1.24319
1400.57 0.948647
1400.77 0.753820
1401.17 0.520803
1401.57 0.392860
1402.37 0.267179
1403.17 0.213961
1403.97 0.192322
1405.57 0.200726
1406.37 0.228527
1407.17 0.279133
1407.97 0.368603
1408.77 0.535877
1409.17 0.677019
1409.57 0.891137
1409.97 1.23735
1410.37 1.84964
1410.57 2.34905
1410.67 2.67993
1410.77 3.08715
1410.87 3.59598
1410.97 4.24306
1411.07 5.08303
1411.12 5.60006
1411.17 6.20024
1411.27 7.73024
1411.37 9.90160
1411.47 13.1229
1411.57 18.1792
1411.62 21.8507
1411.67 26.7184
1411.72 33.3370
1411.77 42.5996
1411.82 55.9858
1411.87 75.9896
1411.92 106.731
1411.97 154.052
1412.03 245.932
1412.10 304.773
1412.17 241.746
1412.23 150.776
1412.28 109.914
1412.32 81.7068
1412.41 48.9421
1412.49 31.8454
1412.58 22.2781
1412.66 16.3400
1412.75 12.5074
1412.92 7.96385
1413.09 5.50502
1413.26 4.03040
1413.60 2.42882
1413.94 1.62503
1414.29 1.16567
1414.63 0.878821
1414.97 0.688241
1415.65 0.457289
1416.34 0.328507
1417.02 0.249154
1417.70 0.196905
1419.07 0.134292
1420.44 0.0995756
1423.17 0.0643357
1425.91 0.0478034
1428.64 0.0390359
1434.11 0.0320855
1439.58 0.0341838
1442.31 0.0397562
1445.05 0.0516932
1447.78 0.0789866
1449.15 0.106736
1450.51 0.157641
1451.20 0.200629
1451.88 0.266142
1452.57 0.373444
1453.25 0.566530
1453.59 0.727406
1453.93 0.970040
1454.27 1.36077
1454.62 2.04702
1454.79 2.60675
1454.87 2.97959
1454.96 3.43271
1455.04 4.00511
1455.13 4.72382
1455.21 5.66679
1455.30 6.90464
1455.39 8.61725
1455.47 11.0142
1455.56 14.6032
1455.64 20.1492
1455.68 24.2070
1455.73 29.5784
1455.77 36.8674
1455.81 46.7607
1455.86 61.2773
1455.90 82.2269
1455.94 114.752
1455.98 162.901
1456.04 260.327
1456.10 323.891
1456.16 257.911
1456.22 161.009
1456.27 109.000
1456.31 76.7864
1456.36 56.1487
1456.40 42.4913
1456.50 26.4589
1456.59 17.9209
1456.68 12.8952
1456.77 9.70569
1456.96 6.05389
1457.14 4.12116
1457.32 2.98935
1457.51 2.26715
1457.69 1.77863
1458.06 1.17834
1458.43 0.839534
1458.80 0.629298
1459.17 0.489961
1459.90 0.322426
1460.64 0.229633
1461.38 0.172792
1462.11 0.135561
1463.58 0.0912658
1465.06 0.0669450
1468.00 0.0425603
1470.95 0.0312559
1473.90 0.0252236
1479.79 0.0197908
1485.68 0.0186043
1491.57 0.0211144
1494.52 0.0254090
1495.99 0.0296180
1497.47 0.0370984
1498.94 0.0526416
1499.68 0.0678752
1500.41 0.0953532
1500.78 0.118462
1501.15 0.153593
1501.52 0.211093
1501.89 0.315146
1502.07 0.402780
1502.25 0.535186
1502.44 0.750348
1502.62 1.13495
1502.71 1.45249
1502.81 1.92775
1502.90 2.68519
1502.99 4.00099
1503.08 6.59200
1503.13 8.94706
1503.15 10.6252
1503.17 12.8190
1503.20 15.7599
1503.22 19.8223
1503.24 25.6412
1503.26 29.7223
1503.27 34.3537
1503.28 40.7040
1503.29 48.1278
1503.30 58.6466
1503.31 71.3839
1503.32 90.1111
1503.34 113.603
1503.35 149.092
1503.36 196.122
1503.38 312.285
1503.40 392.344
1503.41 366.649
1503.42 312.446
1503.44 196.246
1503.46 129.917
1503.48 88.3540
1503.50 62.9056
1503.51 46.6574
1503.55 28.2696
1503.58 19.0155
1503.62 13.5039
1503.66 10.0690
1503.73 6.24145
1503.80 4.22141
1503.87 3.05780
1503.94 2.31789
1504.01 1.81866
1504.16 1.20492
1504.30 0.859467
1504.44 0.646102
1504.58 0.506023
1504.87 0.337130
1505.15 0.244240
1505.44 0.187519
1505.73 0.150688
1506.30 0.107367
1506.87 0.0842260
1508.01 0.0626707
1509.15 0.0548712
1510.29 0.0532970
1512.57 0.0617094
1514.86 0.0892093
1516.00 0.118026
1517.14 0.170762
1517.71 0.215127
1518.28 0.282661
1518.85 0.392862
1519.42 0.590708
1519.71 0.755798
1519.99 1.00387
1520.28 1.40494
1520.57 2.11027
1520.71 2.68713
1520.85 3.54036
1520.92 4.13372
1520.99 4.87845
1521.07 5.84447
1521.14 7.12828
1521.21 8.91402
1521.28 11.4172
1521.35 15.1288
1521.42 20.9507
1521.46 25.2442
1521.49 30.9593
1521.53 38.7674
1521.56 49.3967
1521.60 65.2212
1521.64 88.2388
1521.67 124.724
1521.71 179.484
1521.75 286.352
1521.80 357.733
1521.85 284.828
1521.90 178.291
1521.94 113.309
1521.98 75.4562
1522.03 52.9390
1522.07 39.1144
1522.16 23.4756
1522.24 15.5445
1522.33 10.9795
1522.42 8.18289
1522.59 5.04274
1522.77 3.41074
1522.94 2.46679
1523.12 1.86956
1523.29 1.46821
1523.64 0.978572
1523.99 0.704124
1524.34 0.535511
1524.69 0.425256
1525.38 0.295209
1526.08 0.226751
1527.47 0.169365
1528.87 0.168108
1529.57 0.188155
1530.26 0.232306
1530.96 0.329395
1531.31 0.423944
1531.66 0.590701
1532.01 0.933699
1532.18 1.26225
1532.36 1.84052
1532.53 3.02192
1532.62 4.13099
1532.71 6.03272
1532.75 7.56046
1532.79 9.70839
1532.81 11.1863
1532.84 13.0330
1532.86 15.3804
1532.88 18.2674
1532.90 22.2537
1532.92 27.6839
1532.95 35.3222
1532.97 45.8736
1532.99 62.5975
1533.01 89.4464
1533.03 134.771
1533.05 208.258
1533.08 336.150
1533.10 417.809
1533.11 392.956
1533.12 332.451
1533.15 209.812
1533.17 125.447
1533.20 81.2309
1533.22 55.9382
1533.24 40.5540
1533.27 30.6367
1533.29 23.9204
1533.34 15.7246
1533.39 11.0609
1533.44 8.27244
1533.53 5.18195
1533.63 3.59624
1533.73 2.70037
1533.92 1.78635
1534.11 1.38101
1534.30 1.20557
1534.69 1.21787
1534.88 1.37928
1535.07 1.67942
1535.27 2.21066
1535.46 3.17839
1535.56 3.98410
1535.65 5.16487
1535.70 5.97701
1535.75 7.00674
1535.80 8.33785
1535.84 10.0984
1535.89 12.5504
1535.94 15.9392
1535.96 18.1722
1535.99 20.9059
1536.01 24.2980
1536.04 28.5716
1536.06 34.0490
1536.08 41.2073
1536.11 50.7694
1536.13 63.8578
1536.16 82.2481
1536.18 108.764
1536.20 147.737
1536.23 204.782
1536.26 325.841
1536.30 404.350
1536.32 377.347
1536.34 319.393
1536.37 199.743
1536.40 146.158
1536.42 109.009
1536.47 65.2642
1536.51 42.6528
1536.56 30.0370
1536.60 22.0797
1536.65 16.9763
1536.74 10.8627
1536.83 7.53997
1536.92 5.54105
1537.10 3.36272
1537.29 2.26071
1537.47 1.63300
1537.65 1.23955
1537.83 0.976563
1538.20 0.656706
1538.56 0.477514
1538.93 0.366315
1539.29 0.292810
1540.02 0.204139
1540.75 0.154753
1542.21 0.104890
1543.66 0.0824411
1545.12 0.0719106
1548.04 0.0692434
1550.95 0.0877358
1552.41 0.110523
1553.87 0.153541
1555.33 0.245224
1556.06 0.335154
1556.79 0.496252
1557.15 0.630078
1557.51 0.831115
1557.88 1.15599
1558.24 1.72938
1558.43 2.20160
1558.61 2.89977
1558.70 3.38357
1558.79 4.00177
1558.88 4.80911
1558.97 5.89115
1559.06 7.38763
1559.11 8.37209
1559.15 9.53899
1559.20 11.0032
1559.25 12.7867
1559.29 15.0954
1559.34 18.0099
1559.38 21.9426
1559.43 27.1533
1559.47 34.5972
1559.52 45.1464
1559.56 61.4643
1559.61 86.7965
1559.66 129.927
1559.70 201.433
1559.75 322.453
1559.80 404.251
1559.85 324.421
1559.90 202.970
1559.93 148.036
1559.96 110.033
1560.03 65.9931
1560.09 43.1751
1560.15 30.2117
1560.22 22.2469
1560.28 17.0388
1560.41 10.9032
1560.53 7.56315
1560.66 5.58242
1560.91 3.44142
1561.16 2.38141
1561.42 1.80095
1561.67 1.46613
1561.92 1.28293
1562.43 1.24231
1562.68 1.40995
1562.93 1.80778
1563.18 2.72624
1563.31 3.63042
1563.44 5.21671
1563.50 6.49243
1563.56 8.34757
1563.59 9.62887
1563.62 11.1857
1563.66 13.2380
1563.69 15.8285
1563.72 19.3997
1563.75 24.1512
1563.78 31.1287
1563.81 41.1433
1563.85 57.2659
1563.88 83.0658
1563.89 103.015
1563.91 129.928
1563.92 166.463
1563.94 212.020
1563.97 339.034
1564.00 417.038
1564.03 330.490
1564.06 205.324
1564.09 129.962
1564.12 87.5263
1564.15 61.2622
1564.18 45.3620
1564.23 27.2672
1564.29 18.2209
1564.35 12.9476
1564.40 9.72249
1564.52 6.05393
1564.63 4.14975
1564.74 3.03671
1564.97 1.85273
1565.19 1.26713
1565.42 0.933695
1565.87 0.584887
1566.32 0.413328
1566.78 0.315173
1567.68 0.211507
1568.58 0.160572
1569.49 0.132753
1571.30 0.111166
1573.10 0.122191
1574.01 0.145405
1574.91 0.193994
1575.36 0.236903
1575.82 0.303618
1576.27 0.414076
1576.72 0.614816
1576.95 0.782612
1577.17 1.03636
1577.40 1.44613
1577.62 2.17103
1577.74 2.76297
1577.85 3.63914
1577.91 4.25007
1577.96 5.01435
1578.02 6.02608
1578.08 7.35078
1578.13 9.20274
1578.19 11.7934
1578.22 13.5841
1578.25 15.7251
1578.27 18.4072
1578.30 21.8250
1578.33 26.4490
1578.36 32.4161
1578.39 40.5658
1578.42 52.0379
1578.44 69.4762
1578.47 95.1050
1578.50 135.114
1578.53 197.888
1578.56 316.411
1578.60 394.573
1578.64 314.922
1578.67 196.722
1578.70 139.792
1578.72 102.931
1578.75 77.0304
1578.77 59.9101
1578.82 38.4473
1578.87 26.7351
1578.92 19.4762
1578.96 14.8682
1579.06 9.41587
1579.16 6.46322
1579.26 4.72266
1579.45 2.83858
1579.65 1.89240
1579.84 1.35622
1580.03 1.02039
1580.23 0.798303
1580.62 0.529802
1581.01 0.380260
1581.40 0.288462
1581.78 0.228176
1582.56 0.155956
1583.34 0.116063
1584.89 0.0755739
1586.22 0.0585838
1587.54 0.0485498
1590.18 0.0381249
1592.83 0.0339719
1595.47 0.0336991
1598.12 0.0381449
1599.44 0.0438286
1600.76 0.0548502
1602.09 0.0790470
1602.75 0.103311
1603.41 0.147623
1603.74 0.185032
1604.07 0.241967
1604.40 0.335491
1604.73 0.503966
1604.90 0.645497
1605.06 0.858422
1605.23 1.20253
1605.39 1.81251
1605.47 2.31547
1605.56 3.06393
1605.64 4.24735
1605.72 6.24672
1605.76 7.86701
1605.81 10.1392
1605.85 13.5482
1605.87 15.9936
1605.89 18.9837
1605.91 23.1043
1605.93 28.6880
1605.95 36.4898
1605.97 47.1450
1605.99 63.8652
1606.01 88.6927
1606.03 131.161
1606.05 199.950
1606.08 318.649
1606.10 400.476
1606.11 376.720
1606.12 319.421
1606.15 200.550
1606.18 114.819
1606.20 71.4703
1606.23 47.8805
1606.26 34.0271
1606.28 25.3171
1606.31 19.5255
1606.36 12.5861
1606.42 8.71254
1606.47 6.41551
1606.58 3.89147
1606.69 2.60242
1606.80 1.86937
1606.91 1.40595
1607.02 1.09966
1607.23 0.727274
1607.45 0.519379
1607.67 0.391678
1607.88 0.307685
1608.32 0.207615
1608.75 0.152601
1609.62 0.0974790
1610.49 0.0719837
1611.36 0.0583424
1613.09 0.0455339
1616.56 0.0394768
1620.03 0.0430712
1623.51 0.0552892
1625.24 0.0674479
1626.98 0.0886210
1628.71 0.131192
1629.58 0.171673
1630.45 0.243061
1631.32 0.390239
1631.75 0.532869
1632.18 0.786884
1632.40 0.996627
1632.62 1.31124
1632.84 1.81501
1632.94 2.19132
1633.05 2.69757
1633.16 3.41610
1633.27 4.46178
1633.32 5.19270
1633.38 6.10239
1633.43 7.27613
1633.49 8.82599
1633.54 10.9756
1633.60 13.9478
1633.65 18.2980
1633.70 25.0025
1633.76 36.0378
1633.78 44.3804
1633.81 55.7927
1633.84 71.8226
1633.87 94.9414
1633.89 128.975
1633.92 179.017
1633.96 288.473
1634.00 362.092
1634.04 290.949
1634.08 183.184
1634.11 128.768
1634.14 93.7810
1634.17 70.3370
1634.19 54.2684
1634.25 34.4653
1634.31 23.7884
1634.36 17.2601
1634.42 13.1358
1634.53 8.30207
1634.65 5.72506
1634.76 4.19552
1634.98 2.55698
1635.21 1.74063
1635.44 1.28069
1635.89 0.816016
1636.34 0.606999
1636.79 0.508561
1637.69 0.474718
1638.14 0.520005
1638.60 0.617144
1639.05 0.797695
1639.50 1.14022
1639.72 1.43003
1639.95 1.86831
1640.18 2.57245
1640.29 3.09551
1640.40 3.79709
1640.51 4.78741
1640.63 6.23392
1640.68 7.23008
1640.74 8.46308
1640.80 10.0423
1640.85 12.1088
1640.91 14.9402
1640.96 18.8008
1641.02 24.4657
1641.08 32.8625
1641.13 46.5241
1641.19 69.5022
1641.22 87.2712
1641.25 111.786
1641.27 145.989
1641.30 193.366
1641.35 308.620
1641.40 386.127
1641.43 363.421
1641.45 307.978
1641.50 192.859
1641.54 134.683
1641.57 96.5734
1641.61 71.5602
1641.64 55.0869
1641.71 34.9353
1641.78 23.9481
1641.86 17.3801
1641.93 13.1669
1642.07 8.29290
1642.21 5.69832
1642.35 4.15879
1642.64 2.50264
1642.92 1.67642
1643.21 1.20871
1643.49 0.917521
1643.77 0.723992
1644.34 0.490433
1644.91 0.360633
1646.05 0.228742
1647.18 0.166814
1648.32 0.133487
1650.59 0.102526
1652.87 0.0921915
1655.14 0.0918148
1659.69 0.111636
1664.23 0.168407
1666.51 0.226046
1668.78 0.329068
1669.35 0.367527
1669.92 0.413759
1670.48 0.470113
1671.05 0.539784
1671.34 0.581121
1671.62 0.627510
1671.90 0.679998
1672.19 0.739708
1672.47 0.808030
1672.76 0.886708
1673.32 1.08458
1673.89 1.36043
1674.46 1.75964
1675.03 2.36920
1675.60 3.36593
1675.88 4.12236
1676.17 5.15977
1676.45 6.63797
1676.73 8.83625
1677.02 12.2799
1677.30 18.0195
1677.59 28.2459
1677.87 47.1754
1678.14 75.3139
1678.40 95.0055
1678.67 77.2348
1678.93 48.6893
1679.13 33.8135
1679.33 24.1119
1679.52 17.7876
1679.72 13.5523
1680.12 8.52684
1680.51 5.82654
1680.91 4.22992
1681.31 3.21495
1682.10 2.05566
1682.89 1.44957
1683.68 1.10101
1685.26 0.759563
1686.85 0.661159
1687.64 0.686519
1688.43 0.787770
1689.22 1.04798
1689.62 1.31421
1690.01 1.79169
1690.41 2.77311
1690.51 3.18094
1690.61 3.70283
1690.71 4.38550
1690.81 5.30221
1690.90 6.57303
1690.95 7.40999
1691.00 8.40553
1691.05 9.65495
1691.10 11.1832
1691.15 13.1634
1691.20 15.6761
1691.25 19.0744
1691.30 23.6083
1691.35 30.1156
1691.40 39.4315
1691.45 53.9760
1691.50 76.9349
1691.55 115.706
1691.60 182.683
1691.65 292.364
1691.70 367.378
1691.75 295.743
1691.80 185.325
1691.86 113.174
1691.91 73.1939
1691.96 50.3639
1692.02 36.5095
1692.07 27.5976
1692.12 21.5734
1692.23 14.2381
1692.33 10.1394
1692.44 7.63125
1692.65 4.86274
1692.86 3.46060
1693.08 2.66316
1693.50 1.86290
1693.92 1.52380
1694.35 1.39575
1694.77 1.39450
1695.19 1.49497
1695.41 1.58464
1695.62 1.70454
1695.72 1.77745
1695.83 1.86015
1695.94 1.95375
1696.04 2.05956
1696.15 2.17919
1696.25 2.31454
1696.36 2.46793
1696.47 2.64218
1696.68 3.06765
1696.89 3.62582
1697.10 4.38046
1697.31 5.42352
1697.53 6.91305
1697.74 9.11475
1697.95 12.5653
1698.16 18.2733
1698.27 22.5545
1698.37 28.2975
1698.48 36.0410
1698.58 46.2450
1698.79 73.4272
1699.00 89.1612
1699.21 69.4095
1699.42 43.1938
1699.56 31.2483
1699.69 23.1606
1699.97 13.7752
1700.24 8.98587
1700.51 6.28748
1700.79 4.63726
1701.06 3.56085
1701.61 2.29400
1702.16 1.60640
1702.71 1.19375
1703.80 0.742950
1704.90 0.514333
1706.00 0.382544
1708.19 0.244294
1710.38 0.179599
1712.58 0.153896
1713.67 0.159476
1714.77 0.202450
1715.32 0.271897
1715.59 0.342942
1715.87 0.473173
1716.14 0.748753
1716.28 1.01817
1716.41 1.49734
1716.48 1.89403
1716.55 2.47535
1716.62 3.40757
1716.69 4.98215
1716.76 8.06585
1716.79 10.7693
1716.82 15.0919
1716.86 22.8910
1716.88 28.9883
1716.89 37.7671
1716.90 44.0365
1716.91 50.9302
1716.92 60.6463
1716.93 71.5771
1716.94 87.3259
1716.94 105.368
1716.95 131.603
1716.96 161.386
1716.97 207.746
1716.98 260.257
1717.00 319.335
1717.01 298.095
1717.02 250.649
1717.04 157.971
1717.06 105.789
1717.07 73.3875
1717.09 53.0548
1717.10 39.8148
1717.14 24.5250
1717.17 16.6983
1717.20 11.9557
1717.23 9.04897
1717.29 5.66365
1717.36 3.86227
1717.42 2.82217
1717.55 1.70968
1717.67 1.15585
1717.80 0.845100
1718.05 0.523862
1718.30 0.369090
1718.56 0.283011
1719.06 0.195379
1719.57 0.153500
1720.07 0.130246
1721.08 0.106694
1723.11 0.0920529
1725.13 0.0956777
1727.15 0.119270
1728.16 0.146462
1729.17 0.197848
1730.18 0.308569
1730.69 0.418337
1731.19 0.615787
1731.45 0.780370
1731.70 1.02863
1731.95 1.42855
1732.20 2.13045
1732.33 2.70651
1732.46 3.55048
1732.52 4.13126
1732.58 4.86878
1732.65 5.82456
1732.71 7.09332
1732.77 8.85917
1732.84 11.3262
1732.87 12.9906
1732.90 14.9748
1732.93 17.5326
1732.96 20.6770
1732.99 24.8755
1733.02 30.2474
1733.06 37.7561
1733.09 47.8746
1733.12 62.8637
1733.15 84.3392
1733.18 117.980
1733.21 167.309
1733.26 267.191
1733.30 328.056
1733.34 258.939
1733.39 160.852
1733.43 103.153
1733.47 69.2364
1733.51 48.8719
1733.55 36.2985
1733.63 21.9371
1733.71 14.5945
1733.78 10.3828
1733.86 7.75685
1734.02 4.80019
1734.18 3.25894
1734.34 2.36669
1734.50 1.80158
1734.65 1.42156
1734.97 0.957720
1735.29 0.698553
1735.60 0.539476
1735.92 0.435570
1736.55 0.314739
1737.19 0.253741
1738.45 0.214800
1739.72 0.252105
1740.35 0.312476
1740.98 0.432818
1741.30 0.537230
1741.61 0.697045
1741.93 0.959038
1742.25 1.42596
1742.41 1.81295
1742.56 2.38644
1742.72 3.29390
1742.88 4.85291
1742.96 6.08921
1743.04 7.86778
1743.08 9.08103
1743.12 10.5543
1743.16 12.4684
1743.20 14.8772
1743.24 18.1388
1743.28 22.4462
1743.32 28.6200
1743.35 37.3367
1743.39 50.8549
1743.43 71.7335
1743.47 107.272
1743.51 165.531
1743.56 263.889
1743.60 325.101
1743.64 256.343
1743.69 159.634
1743.72 116.702
1743.74 86.9905
1743.80 52.0464
1743.86 33.9975
1743.91 23.7586
1743.97 17.4721
1744.02 13.3623
1744.14 8.55032
1744.25 5.91355
1744.36 4.33220
1744.58 2.61980
1744.81 1.75531
1745.03 1.26310
1745.25 0.954096
1745.48 0.749089
1745.92 0.500582
1746.37 0.361621
1746.82 0.275981
1747.26 0.219389
1748.16 0.151366
1749.05 0.113368
1750.84 0.0741725
1752.63 0.0550540
1754.42 0.0441163
1757.99 0.0324710
1765.14 0.0233371
1772.30 0.0205752
1779.45 0.0215188
1783.02 0.0239782
1786.60 0.0292527
1790.18 0.0413039
1791.96 0.0535649
1793.75 0.0761017
1794.65 0.0951696
1795.54 0.124368
1796.43 0.172356
1797.33 0.259508
1797.78 0.332606
1798.22 0.443709
1798.67 0.624555
1799.12 0.948498
1799.34 1.21720
1799.56 1.61828
1799.79 2.26204
1800.01 3.37916
1800.12 4.28214
1800.23 5.60141
1800.29 6.50146
1800.35 7.63597
1800.40 9.09322
1800.46 10.9675
1800.51 13.5321
1800.57 17.0965
1800.63 22.2413
1800.68 29.8500
1800.71 35.2573
1800.74 42.2027
1800.76 51.2879
1800.79 63.4078
1800.82 79.9058
1800.85 102.782
1800.88 134.864
1800.90 177.647
1800.95 285.129
1801.00 353.653
1801.05 280.718
1801.10 176.020
1801.14 119.896
1801.17 84.2629
1801.21 61.4927
1801.25 46.4603
1801.33 28.8624
1801.40 19.5180
1801.48 14.0288
1801.55 10.5503
1801.70 6.59172
1801.86 4.49047
1802.01 3.25369
1802.16 2.46568
1802.31 1.93617
1802.62 1.28266
1802.92 0.914101
1803.22 0.684805
1803.53 0.533442
1804.13 0.351413
1804.74 0.250531
1805.35 0.188881
1805.95 0.148546
1807.17 0.100610
1808.38 0.0744066
1810.81 0.0483970
1813.24 0.0366297
1815.66 0.0306460
1820.52 0.0262173
1825.37 0.0274882
1830.23 0.0365715
1832.65 0.0496354
1833.87 0.0624768
1835.08 0.0855826
1836.29 0.134313
1836.90 0.182364
1837.51 0.269064
1837.81 0.341837
1838.11 0.451931
1838.42 0.631563
1838.72 0.951996
1838.87 1.21779
1839.03 1.61651
1839.18 2.25401
1839.33 3.35674
1839.40 4.24908
1839.48 5.55225
1839.56 7.56090
1839.59 8.99889
1839.63 10.8294
1839.67 13.3512
1839.71 16.8528
1839.75 21.9015
1839.78 29.5256
1839.82 41.7175
1839.84 50.6788
1839.86 62.6267
1839.88 78.8798
1839.90 101.398
1839.92 132.951
1839.93 174.140
1839.97 278.652
1840.00 348.546
1840.03 279.035
1840.07 174.437
1840.10 104.399
1840.14 67.3037
1840.17 45.7037
1840.20 33.0669
1840.24 24.7326
1840.27 19.2799
1840.34 12.5451
1840.41 8.79144
1840.48 6.49632
1840.62 3.97176
1840.76 2.67209
1840.89 1.92256
1841.03 1.45176
1841.17 1.13889
1841.44 0.756700
1841.72 0.543709
1842.00 0.412324
1842.27 0.326292
1842.82 0.223924
1843.37 0.168205
1844.47 0.114084
1845.58 0.0914768
1846.68 0.0824209
1848.88 0.0857920
1851.08 0.117115
1852.18 0.152665
1853.29 0.219146
1853.84 0.275551
1854.39 0.361689
1854.94 0.502417
1855.49 0.754760
1855.76 0.964803
1856.04 1.27935
1856.32 1.78539
1856.59 2.66827
1856.73 3.38460
1856.87 4.43563
1856.94 5.15548
1857.00 6.06589
1857.07 7.23997
1857.14 8.76331
1857.21 10.8543
1857.28 13.7830
1857.35 18.0537
1857.42 24.4829
1857.49 35.0948
1857.52 43.1805
1857.55 53.8359
1857.59 69.0887
1857.62 90.1638
1857.66 120.486
1857.69 163.911
1857.75 263.259
1857.80 328.173
1857.86 261.833
1857.91 164.297
1857.95 113.553
1857.99 81.3655
1858.03 60.2645
1858.07 46.0494
1858.15 28.9066
1858.23 19.7626
1858.31 14.2598
1858.39 10.7896
1858.55 6.78018
1858.71 4.63839
1858.87 3.37831
1859.03 2.56695
1859.19 2.02053
1859.52 1.34513
1859.84 0.963466
1860.16 0.726383
1860.48 0.569166
1861.12 0.380085
1861.76 0.275486
1862.41 0.211558
1863.05 0.169865
1864.33 0.120739
1865.62 0.0943971
1868.19 0.0697248
1870.76 0.0606906
1873.33 0.0586900
1878.47 0.0671480
1883.61 0.0933683
1886.18 0.118293
1888.75 0.159313
1891.32 0.234490
1892.60 0.299598
1893.88 0.404746
1894.53 0.485471
1894.85 0.537363
1895.01 0.567283
1895.17 0.600113
1895.49 0.677620
1895.81 0.774789
1896.13 0.900078
1896.45 1.06668
1896.78 1.29768
1897.10 1.63176
1897.42 2.14755
1897.74 3.01435
1897.90 3.69446
1898.06 4.65769
1898.22 6.10860
1898.38 8.40702
1898.54 12.4176
1898.70 20.1689
1898.78 27.1302
1898.86 37.9737
1898.94 55.8693
1899.02 86.1507
1899.20 181.866
1899.25 175.998
1899.29 152.833
1899.38 96.7616
1899.48 56.7070
1899.57 35.7351
1899.67 24.2207
1899.77 17.4401
1899.87 13.1431
1899.96 10.3269
1900.16 6.97175
1900.35 5.14411
1900.55 4.06953
1900.74 3.39458
1900.93 2.96212
1901.13 2.68070
1901.32 2.50472
1901.52 2.40374
1901.71 2.36180
1901.91 2.36836
1902.10 2.41787
1902.30 2.50806
1902.49 2.63936
1902.68 2.81559
1902.88 3.04021
1903.07 3.32369
1903.27 3.67474
1903.46 4.11337
1903.66 4.65780
1903.85 5.34579
1904.05 6.21569
1904.24 7.34267
1904.43 8.81233
1904.63 10.7875
1904.82 13.4742
1905.02 17.2569
1905.21 22.6526
1905.41 30.5062
1905.60 41.8450
1905.90 66.1527
1906.20 80.6045
1906.50 63.3363
1906.80 39.5939
1907.11 24.2623
1907.41 15.7539
1907.72 10.8715
1908.03 7.89391
1908.34 5.97007
1908.64 4.66449
1909.26 3.06870
1909.87 2.16938
1910.48 1.61569
1911.71 0.999225
1912.94 0.681862
1914.17 0.497938
1915.39 0.382273
1916.62 0.305720
1919.08 0.218330
1921.53 0.190357
1922.76 0.208689
1923.37 0.237763
1923.99 0.297872
1924.60 0.434152
1924.91 0.571730
1925.21 0.821536
1925.37 1.03069
1925.52 1.34400
1925.67 1.85105
1925.83 2.73583
1925.98 4.51919
1926.06 6.17183
1926.13 8.89830
1926.17 11.0621
1926.21 14.0255
1926.25 18.3451
1926.27 21.2809
1926.29 24.9649
1926.31 29.9468
1926.33 36.1432
1926.35 44.3757
1926.36 55.5689
1926.38 71.1664
1926.40 93.4251
1926.42 125.734
1926.44 173.837
1926.47 276.067
1926.50 340.333
1926.52 316.753
1926.53 266.697
1926.56 166.531
1926.59 96.9318
1926.63 60.2696
1926.66 40.3624
1926.69 28.9557
1926.73 21.5264
1926.76 16.7164
1926.83 10.8271
1926.90 7.57338
1926.96 5.59506
1927.10 3.41889
1927.23 2.30759
1927.37 1.67350
1927.50 1.27517
1927.63 1.00869
1927.90 0.684361
1928.17 0.503082
1928.71 0.316609
1929.24 0.226668
1929.78 0.176019
1930.85 0.122906
1931.93 0.0960130
1933.00 0.0798746
1935.15 0.0611522
1939.44 0.0430432
1943.74 0.0337157
1952.32 0.0240835
1960.91 0.0195536
1969.50 0.0175705
1978.09 0.0174720
1986.68 0.0196411
1995.26 0.0264925
2000.00 0.0355992
2003.95 0.0516294
2005.93 0.0665905
2007.90 0.0922464
2009.88 0.142901
2010.87 0.189979
2011.85 0.270686
2012.84 0.430867
2013.34 0.580887
2013.83 0.840661
2014.32 1.36111
2014.57 1.85086
2014.70 2.21271
2014.82 2.69667
2014.94 3.37813
2015.07 4.36441
2015.13 5.04282
2015.19 5.89984
2015.25 7.00426
2015.31 8.43415
2015.37 10.4003
2015.44 13.1571
2015.50 17.1849
2015.56 23.2559
2015.62 33.3401
2015.65 40.9360
2015.68 50.9017
2015.71 65.2189
2015.74 85.7238
2015.78 115.636
2015.81 157.466
2015.85 252.693
2015.90 317.409
2015.95 256.492
2016.00 160.459
2016.04 103.530
2016.08 70.3664
2016.12 50.1642
2016.17 37.3106
2016.25 22.8175
2016.33 15.4058
2016.42 11.1299
2016.50 8.52054
2016.67 5.63701
2016.84 4.21692
2017.01 3.49494
2017.34 3.11097
2017.68 3.80901
2017.85 4.75850
2017.93 5.49348
2018.02 6.49918
2018.10 7.92380
2018.19 9.95454
2018.23 11.3148
2018.27 12.9995
2018.31 15.1163
2018.35 17.8201
2018.40 21.3403
2018.44 26.0262
2018.48 32.4253
2018.52 41.4257
2018.56 54.5108
2018.61 74.2099
2018.65 104.762
2018.69 152.278
2018.75 242.836
2018.80 300.778
2018.86 238.634
2018.91 148.969
2018.96 99.1186
2019.00 68.9604
2019.05 49.6600
2019.09 37.3945
2019.18 23.0663
2019.27 15.5672
2019.37 11.1998
2019.46 8.44672
2019.64 5.31114
2019.82 3.66310
2020.00 2.69091
2020.37 1.64667
2020.73 1.12476
2021.09 0.825461
2021.82 0.511118
2022.55 0.356480
2023.28 0.269108
2024.73 0.179668
2026.19 0.139180
2027.64 0.120514
2030.55 0.117832
2033.46 0.157139
2034.92 0.204668
2036.37 0.294187
2037.10 0.369686
2037.83 0.483813
2038.56 0.667217
2038.92 0.803532
2039.28 0.987810
2039.47 1.10582
2039.65 1.24687
2039.83 1.41731
2040.01 1.62586
2040.19 1.88467
2040.38 2.21117
2040.56 2.63092
2040.74 3.17917
2040.92 3.92248
2041.10 4.95767
2041.29 6.45591
2041.47 8.72997
2041.65 12.3922
2041.83 18.7374
2041.92 23.7190
2042.01 30.6833
2042.10 40.5464
2042.19 54.2344
2042.35 86.5896
2042.50 107.392
2042.65 85.2576
2042.81 53.1904
2042.97 32.0824
2043.13 20.6211
2043.28 14.1191
2043.44 10.1880
2043.60 7.66484
2043.76 5.96147
2044.08 3.88918
2044.40 2.73135
2044.72 2.02215
2045.35 1.23677
2045.99 0.834998
2046.62 0.603247
2047.26 0.457415
2047.90 0.359774
2049.17 0.241239
2050.44 0.174977
2051.71 0.134358
2052.99 0.107902
2055.53 0.0779436
2058.07 0.0670484
2059.35 0.0705436
2059.98 0.0774470
2060.62 0.0923130
2061.26 0.126660
2061.57 0.161734
2061.89 0.226068
2062.05 0.280240
2062.21 0.362685
2062.37 0.496909
2062.53 0.737088
2062.69 1.23230
2062.77 1.70906
2062.85 2.52629
2062.93 4.15569
2062.97 5.64135
2063.00 8.01222
2063.04 12.3901
2063.06 16.0318
2063.08 21.4890
2063.09 25.2826
2063.10 30.1232
2063.11 36.4052
2063.12 44.7054
2063.13 55.8726
2063.14 71.1391
2063.15 92.1957
2063.16 119.319
2063.17 154.200
2063.18 191.761
2063.20 237.554
2063.21 223.478
2063.22 190.415
2063.24 118.263
2063.25 86.6810
2063.26 63.9352
2063.28 38.3976
2063.31 24.7256
2063.33 17.3516
2063.35 12.6444
2063.38 9.70834
2063.42 6.22585
2063.47 4.29546
2063.52 3.16189
2063.61 1.91319
2063.70 1.28626
2063.80 0.927938
2063.89 0.704215
2063.98 0.555262
2064.17 0.374793
2064.35 0.274851
2064.73 0.173072
2065.10 0.124815
2065.47 0.0983521
2066.22 0.0719322
2066.96 0.0600944
2067.71 0.0545123
2069.19 0.0531018
2070.68 0.0637640
2071.43 0.0774079
2072.17 0.103901
2072.92 0.162179
2073.29 0.220687
2073.66 0.326836
2073.85 0.416343
2074.04 0.551546
2074.22 0.770951
2074.41 1.16201
2074.50 1.48382
2074.59 1.96379
2074.69 2.72504
2074.78 4.03798
2074.87 6.59388
2074.92 8.91906
2074.94 10.5282
2074.97 12.6097
2074.99 15.5036
2075.01 19.3011
2075.04 24.6390
2075.06 32.4355
2075.07 37.9880
2075.08 45.0079
2075.10 54.0151
2075.11 64.6440
2075.12 79.7890
2075.13 98.0972
2075.14 124.581
2075.15 156.415
2075.18 249.981
2075.20 311.097
2075.21 292.038
2075.22 247.783
2075.25 154.697
2075.27 98.9930
2075.29 66.2753
2075.31 46.6767
2075.34 34.3563
2075.38 20.6147
2075.42 13.6458
2075.47 9.67030
2075.51 7.20101
2075.60 4.45268
2075.69 3.01055
2075.77 2.17919
2075.86 1.64655
2075.95 1.29241
2076.13 0.855840
2076.30 0.611752
2076.48 0.460820
2076.65 0.361030
2077.00 0.241172
2077.35 0.175012
2077.70 0.134442
2078.05 0.107893
2078.75 0.0762054
2079.45 0.0587060
2080.86 0.0409254
2082.26 0.0324334
2083.66 0.0276784
2086.46 0.0227974
2092.07 0.0194995
2097.68 0.0195058
2103.29 0.0223560
2106.09 0.0257528
2108.89 0.0321762
2111.70 0.0460578
2113.10 0.0599001
2114.50 0.0850973
2115.20 0.106324
2115.90 0.138728
2116.60 0.191812
2117.30 0.287842
2117.65 0.368233
2118.00 0.489655
2118.36 0.686978
2118.71 1.03708
2118.88 1.32655
2119.06 1.75554
2119.23 2.43447
2119.32 2.93614
2119.41 3.60187
2119.49 4.53496
2119.58 5.86371
2119.63 6.76855
2119.67 7.89828
2119.71 9.33299
2119.76 11.1431
2119.80 13.5892
2119.84 16.9172
2119.89 21.5915
2119.93 28.2222
2119.98 38.5164
2120.02 55.0126
2120.06 82.7925
2120.11 129.071
2120.15 205.847
2120.20 256.768
2120.22 241.215
2120.25 204.118
2120.30 127.719
2120.34 81.9810
2120.38 55.0124
2120.42 38.8075
2120.47 28.7885
2120.55 17.2756
2120.64 11.4846
2120.72 8.13202
2120.81 6.07082
2120.98 3.74767
2121.15 2.53569
2121.32 1.83300
2121.49 1.38540
2121.66 1.08615
2122.00 0.719260
2122.34 0.513488
2122.68 0.386338
2123.03 0.302340
2123.71 0.201697
2124.39 0.146196
2125.07 0.112369
2125.75 0.0902670
2127.12 0.0641536
2128.48 0.0500101
2131.21 0.0362257
2133.94 0.0302957
2136.67 0.0275739
2142.13 0.0263457
2147.59 0.0281386
2153.05 0.0328544
2155.78 0.0373710
2158.51 0.0464325
2159.87 0.0565442
2160.55 0.0657702
2161.23 0.0818044
2161.92 0.114860
2162.26 0.147068
2162.60 0.205007
2162.94 0.326644
2163.11 0.446123
2163.28 0.658484
2163.45 1.09967
2163.54 1.51984
2163.62 2.25044
2163.71 3.71623
2163.75 5.06278
2163.79 7.23390
2163.82 8.97384
2163.84 11.2864
2163.86 14.6038
2163.88 19.5816
2163.89 23.2339
2163.90 27.9608
2163.91 34.1980
2163.92 41.7254
2163.93 52.9527
2163.94 67.0155
2163.95 88.6061
2163.96 115.762
2163.97 151.100
2163.98 187.394
2164.00 232.650
2164.01 217.358
2164.02 184.854
2164.04 116.920
2164.05 76.6120
2164.07 53.3963
2164.08 38.7445
2164.10 29.1573
2164.13 17.7711
2164.16 12.0194
2164.19 8.55954
2164.22 6.45417
2164.28 4.01530
2164.34 2.74040
2164.40 1.99292
2164.52 1.20215
2164.65 0.808803
2164.77 0.588513
2165.01 0.360871
2165.25 0.252517
2165.50 0.192855
2165.98 0.133378
2166.47 0.106449
2166.95 0.0926736
2167.93 0.0814657
2169.87 0.0828650
2171.82 0.100533
2173.76 0.142216
2174.73 0.183467
2175.70 0.257623
2176.68 0.412801
2177.16 0.564237
2177.65 0.834433
2177.89 1.05732
2178.13 1.39080
2178.38 1.92221
2178.50 2.31685
2178.62 2.84554
2178.74 3.59005
2178.86 4.66480
2178.92 5.40141
2178.99 6.32826
2179.05 7.51630
2179.11 9.04317
2179.17 11.1236
2179.23 14.0044
2179.29 18.1433
2179.35 24.2389
2179.41 34.0455
2179.47 50.6976
2179.50 63.7705
2179.53 81.1650
2179.56 105.219
2179.59 138.273
2179.65 221.415
2179.70 280.230
2179.73 265.027
2179.76 226.200
2179.81 142.004
2179.85 100.548
2179.88 73.4631
2179.92 54.8268
2179.96 42.4059
2180.03 27.0725
2180.11 18.7198
2180.18 13.6145
2180.26 10.3298
2180.41 6.53804
2180.56 4.49803
2180.71 3.29340
2181.00 1.99329
2181.30 1.34337
2181.60 0.974351
2181.90 0.745202
2182.20 0.593833
2182.80 0.411832
2183.39 0.311815
2184.59 0.212627
2185.78 0.168626
2186.98 0.147212
2189.37 0.133144
2194.15 0.151173
2196.54 0.174983
2198.93 0.210305
2200.12 0.233666
2201.32 0.262013
2201.91 0.278466
2202.21 0.287346
2202.51 0.296669
2203.11 0.316894
2203.70 0.339435
2204.30 0.364687
2204.90 0.392988
2205.50 0.424942
2206.09 0.461063
2207.29 0.549261
2208.48 0.666057
2209.68 0.825320
2210.87 1.04979
2212.07 1.37965
2213.26 1.89009
2214.46 2.73644
2215.05 3.37960
2215.65 4.26391
2216.25 5.51606
2216.85 7.33224
2217.44 10.0262
2218.04 14.0110
2218.92 22.3782
2219.80 27.7351
2220.68 21.9789
2221.56 13.6955
2222.22 9.48294
2222.88 6.75984
2223.54 4.98803
2224.19 3.80126
2225.51 2.39090
2226.83 1.63092
2228.14 1.17993
2229.46 0.892570
2232.09 0.562200
2234.72 0.387657
2237.36 0.285086
2242.62 0.177362
2247.89 0.129333
2253.15 0.117281
2255.78 0.132440
2257.10 0.153437
2258.42 0.195576
2259.73 0.289529
2260.39 0.383861
2261.05 0.554859
2261.38 0.697444
2261.71 0.912542
2262.03 1.25870
2262.36 1.86796
2262.69 3.09175
2262.86 4.23214
2263.02 6.13838
2263.10 7.63798
2263.19 9.72962
2263.23 11.1106
2263.27 12.8040
2263.31 14.9094
2263.35 17.5682
2263.39 21.0811
2263.43 25.5940
2263.47 31.6518
2263.52 39.9921
2263.56 51.7946
2263.60 68.9572
2263.64 94.4231
2263.68 132.015
2263.74 210.660
2263.80 256.226
2263.86 199.409
2263.92 124.286
2263.99 70.3394
2264.06 43.4721
2264.14 29.0154
2264.21 20.5801
2264.28 15.2382
2264.35 11.7538
2264.49 7.58535
2264.63 5.28119
2264.78 3.89654
2265.06 2.37696
2265.35 1.60490
2265.63 1.16171
2265.92 0.884144
2266.20 0.699450
2266.77 0.475095
2267.34 0.349896
2268.48 0.222150
2269.62 0.161751
2270.75 0.128922
2273.03 0.0983893
2275.31 0.0912131
2277.59 0.108562
2278.73 0.141612
2279.30 0.176007
2279.86 0.239260
2280.43 0.374215
2280.72 0.507251
2281.00 0.745135
2281.15 0.943717
2281.29 1.24001
2281.43 1.71396
2281.57 2.54157
2281.72 4.20144
2281.79 5.71801
2281.86 8.23831
2281.89 10.2046
2281.93 12.8708
2281.96 16.8511
2282.00 22.7406
2282.02 27.0094
2282.04 32.5475
2282.05 39.8786
2282.07 49.1612
2282.09 62.6418
2282.11 81.6902
2282.12 108.993
2282.14 146.559
2282.17 234.448
2282.20 287.933
2282.22 267.851
2282.23 227.858
2282.26 141.402
2282.28 92.4720
2282.31 63.4457
2282.33 45.5107
2282.36 33.9613
2282.41 20.7643
2282.46 13.9138
2282.51 9.88532
2282.56 7.41695
2282.66 4.61650
2282.76 3.14193
2282.86 2.28792
2282.96 1.74487
2283.06 1.37850
2283.26 0.928842
2283.46 0.676613
2283.66 0.519920
2283.86 0.417008
2284.27 0.293634
2284.67 0.226316
2285.47 0.160470
2286.27 0.132819
2287.07 0.121848
2288.68 0.127245
2290.28 0.170113
2291.09 0.218807
2291.89 0.309879
2292.29 0.387206
2292.69 0.504762
2293.09 0.696034
2293.49 1.03757
2293.69 1.31977
2293.89 1.73886
2294.10 2.40757
2294.30 3.55632
2294.50 5.80807
2294.60 7.82340
2294.65 9.24700
2294.70 11.0937
2294.75 13.6026
2294.80 16.9712
2294.85 21.7251
2294.87 24.8626
2294.90 28.7034
2294.92 33.4625
2294.95 39.4371
2294.97 47.0421
2295.00 56.8608
2295.02 69.7108
2295.05 86.7122
2295.07 109.297
2295.10 138.961
2295.15 221.663
2295.20 271.259
2295.23 252.821
2295.25 213.229
2295.30 132.365
2295.36 81.4295
2295.41 53.4170
2295.46 37.1117
2295.51 27.0620
2295.56 20.4145
2295.61 15.9807
2295.71 10.5209
2295.82 7.40995
2295.92 5.51125
2296.12 3.39057
2296.33 2.29430
2296.53 1.65891
2296.74 1.25837
2296.94 0.990947
2297.35 0.664172
2297.76 0.481248
2298.17 0.368455
2298.58 0.294100
2299.40 0.205370
2300.22 0.156852
2301.85 0.109226
2303.49 0.0890482
2305.13 0.0808356
2308.40 0.0840352
2311.68 0.114061
2313.31 0.148524
2314.95 0.213341
2315.77 0.268392
2316.59 0.352414
2317.41 0.489400
2318.23 0.734206
2318.64 0.936777
2319.05 1.23899
2319.45 1.71971
2319.86 2.55213
2320.07 3.21952
2320.27 4.18824
2320.38 4.84875
2320.48 5.66904
2320.58 6.71503
2320.68 8.07646
2320.73 8.93377
2320.79 9.91239
2320.89 12.4110
2320.99 15.9595
2321.09 21.2117
2321.19 29.4837
2321.25 35.3644
2321.30 43.0298
2321.35 53.1761
2321.40 66.7796
2321.45 85.1240
2321.50 109.595
2321.60 174.363
2321.70 214.141
2321.80 167.975
2321.90 104.604
2322.02 60.5861
2322.13 37.7812
2322.24 25.3518
2322.36 18.0904
2322.47 13.4694
2322.58 10.4167
2322.81 6.73046
2323.04 4.69603
2323.26 3.45999
2323.72 2.10141
2324.17 1.41204
2324.63 1.01540
2325.08 0.766600
2325.53 0.600394
2326.44 0.399118
2327.35 0.286533
2328.26 0.217263
2329.17 0.171635
2330.98 0.117189
2332.80 0.0872418
2336.43 0.0575197
2340.06 0.0448647
2343.70 0.0416353
2345.51 0.0452224
2346.42 0.0502641
2347.33 0.0604396
2348.24 0.0833107
2348.69 0.106487
2349.14 0.148962
2349.37 0.184781
2349.60 0.239424
2349.82 0.328736
2350.05 0.489547
2350.17 0.623934
2350.28 0.824575
2350.39 1.15010
2350.51 1.71755
2350.56 2.18228
2350.62 2.86785
2350.68 3.93903
2350.73 5.70526
2350.79 9.06551
2350.82 12.0298
2350.85 16.4842
2350.86 19.9347
2350.88 24.1951
2350.89 29.9106
2350.90 37.7761
2350.92 48.9040
2350.93 65.0906
2350.94 75.9134
2350.95 89.1462
2350.95 105.295
2350.96 124.815
2350.97 162.526
2350.98 201.334
2351.00 247.817
2351.01 230.335
2351.02 195.156
2351.04 123.009
2351.05 89.9902
2351.07 67.0881
2351.09 40.1247
2351.12 26.1959
2351.14 18.5322
2351.17 13.5988
2351.20 10.3819
2351.25 6.65374
2351.30 4.58977
2351.35 3.37449
2351.45 2.03692
2351.56 1.36511
2351.66 0.981070
2351.76 0.741274
2351.86 0.582904
2352.07 0.389634
2352.28 0.282371
2352.48 0.216171
2352.69 0.172837
2353.10 0.120921
2353.51 0.0923997
2354.33 0.0636489
2355.15 0.0501557
2355.98 0.0427933
2357.62 0.0355327
2360.91 0.0310365
2364.20 0.0310442
2367.49 0.0338863
2370.78 0.0418652
2372.42 0.0516674
2373.25 0.0608684
2374.07 0.0770457
2374.89 0.110670
2375.30 0.143571
2375.71 0.202890
2375.92 0.252608
2376.12 0.327676
2376.33 0.450354
2376.54 0.668927
2376.74 1.12344
2376.84 1.56030
2376.95 2.31442
2377.05 3.82386
2377.10 5.22635
2377.15 7.51149
2377.18 9.29804
2377.20 11.7983
2377.23 15.4394
2377.26 20.7446
2377.27 24.6157
2377.28 29.6280
2377.29 36.2470
2377.31 44.3858
2377.32 56.3912
2377.33 73.2668
2377.35 97.3053
2377.36 128.246
2377.37 165.045
2377.38 206.972
2377.40 255.858
2377.41 239.878
2377.42 202.405
2377.44 127.651
2377.46 82.9437
2377.48 56.1738
2377.50 39.8910
2377.52 29.5395
2377.56 17.8687
2377.60 11.8903
2377.63 8.45834
2377.67 6.31765
2377.75 3.92872
2377.82 2.66774
2377.90 1.93276
2377.97 1.46770
2378.05 1.15849
2378.20 0.776033
2378.35 0.562189
2378.50 0.429932
2378.65 0.342547
2378.96 0.237808
2379.26 0.180385
2379.86 0.123037
2380.47 0.0970483
2381.07 0.0837058
2382.28 0.0726706
2384.70 0.0728789
2387.12 0.0865090
2389.54 0.115914
2390.75 0.142477
2391.96 0.186935
2393.17 0.273977
2393.78 0.355794
2394.38 0.499165
2394.99 0.792241
2395.29 1.07388
2395.59 1.56694
2395.75 1.97082
2395.90 2.56375
2396.05 3.49201
2396.12 4.17193
2396.20 5.06497
2396.28 6.30600
2396.35 8.07495
2396.43 10.7149
2396.47 12.5485
2396.50 14.8229
2396.54 17.8585
2396.58 21.9089
2396.62 27.4603
2396.65 35.0628
2396.69 46.4328
2396.73 63.6946
2396.77 90.7761
2396.80 132.142
2396.85 211.227
2396.90 266.134
2396.93 250.955
2396.95 213.805
2397.00 134.153
2397.05 80.4249
2397.10 51.2953
2397.15 34.9366
2397.20 25.2767
2397.25 18.9656
2397.30 14.7293
2397.40 9.64304
2397.51 6.78428
2397.61 5.05651
2397.81 3.13906
2398.01 2.16472
2398.22 1.60512
2398.62 1.02438
2399.03 0.749456
2399.43 0.602623
2400.25 0.471796
2401.06 0.436273
2401.87 0.447923
2403.49 0.574003
2403.90 0.629752
2404.31 0.698589
2404.71 0.783624
2405.12 0.889229
2405.52 1.02160
2405.73 1.10048
2405.93 1.18967
2406.13 1.29098
2406.34 1.40659
2406.74 1.69225
2407.15 2.07785
2407.55 2.61430
2407.96 3.38873
2408.37 4.55906
2408.77 6.43099
2408.97 7.80659
2409.18 9.63985
2409.38 12.1317
2409.58 15.5793
2409.79 20.3988
2409.99 27.0708
2410.35 43.0778
2410.70 52.6134
2411.06 41.1477
2411.41 25.5952
2411.66 18.1816
2411.91 13.2537
2412.15 9.95347
2412.40 7.68982
2412.90 4.92638
2413.39 3.40250
2413.88 2.48115
2414.38 1.88737
2415.37 1.19499
2416.36 0.823928
2417.35 0.602723
2419.32 0.363645
2421.30 0.244104
2423.28 0.175906
2425.26 0.133358
2427.23 0.105054
2431.19 0.0709153
2435.15 0.0519820
2439.10 0.0405266
2443.06 0.0332525
2450.97 0.0258845
2458.88 0.0262864
2462.84 0.0321966
2464.81 0.0390844
2466.79 0.0523198
2468.77 0.0813862
2469.76 0.110582
2470.75 0.163874
2471.24 0.208765
2471.74 0.277007
2472.23 0.388596
2472.73 0.588692
2472.97 0.755432
2473.22 1.00523
2473.47 1.40567
2473.71 2.10705
2473.96 3.50608
2474.09 4.80191
2474.21 6.94667
2474.27 8.61231
2474.33 10.9478
2474.39 14.3577
2474.43 16.6786
2474.46 19.4885
2474.49 23.1814
2474.52 27.9832
2474.55 34.3574
2474.58 43.0136
2474.61 55.0533
2474.64 72.1851
2474.67 96.9376
2474.70 131.072
2474.75 208.320
2474.80 256.061
2474.83 238.442
2474.85 200.562
2474.90 125.016
2474.94 86.5383
2474.97 62.2117
2475.01 46.2192
2475.04 35.4097
2475.12 22.4330
2475.19 15.3660
2475.26 11.0974
2475.33 8.40466
2475.48 5.28696
2475.62 3.61715
2475.77 2.63416
2475.91 2.00017
2476.06 1.57318
2476.34 1.04594
2476.63 0.746570
2476.92 0.560496
2477.21 0.437025
2477.79 0.288530
2478.37 0.206040
2478.95 0.155527
2479.52 0.122366
2480.68 0.0829065
2481.84 0.0612131
2484.15 0.0394218
2486.46 0.0292635
2488.77 0.0237811
2493.39 0.0186095
2498.02 0.0168097
2502.64 0.0167601
2511.89 0.0213670
2518.48 0.0318675
2521.77 0.0428783
2525.07 0.0632752
2526.72 0.0805729
2528.36 0.107051
2530.01 0.150486
2531.66 0.228982
2532.48 0.294534
2533.31 0.393673
2534.13 0.553918
2534.96 0.837981
2535.37 1.07049
2535.78 1.41549
2536.19 1.95882
2536.40 2.35581
2536.60 2.88644
2536.81 3.61765
2536.91 4.09134
2537.02 4.66366
2537.12 5.36370
2537.22 6.23189
2537.32 7.32577
2537.43 8.72918
2537.53 10.5677
2537.63 13.0354
2537.74 16.4425
2537.84 21.3034
2537.94 28.5036
2538.05 39.6103
2538.15 57.3741
2538.25 85.6095
2538.38 136.239
2538.50 167.298
2538.63 131.264
2538.75 81.7213
2538.86 53.2911
2538.97 36.2327
2539.08 25.8131
2539.19 19.2110
2539.41 11.6762
2539.63 7.79031
2539.85 5.54125
2540.07 4.14145
2540.51 2.55924
2540.94 1.73380
2541.38 1.25227
2541.82 0.946141
2542.26 0.740457
2543.14 0.489010
2544.01 0.347252
2544.89 0.259573
2545.77 0.201599
2547.52 0.132118
2549.28 0.0936494
2551.03 0.0701412
2552.78 0.0547349
2556.29 0.0364039
2559.80 0.0263236
2563.31 0.0201855
2566.81 0.0161697
2573.83 0.0114051
2580.84 0.00880948
2594.87 0.00635193
2608.91 0.00569936
2615.92 0.00597601
2622.94 0.00694172
2629.95 0.00944834
2633.46 0.0120746
2636.97 0.0169177
2638.72 0.0210042
2640.48 0.0272344
2642.23 0.0374181
2643.98 0.0557971
2644.86 0.0711733
2645.74 0.0945304
2646.61 0.132616
2647.49 0.201243
2647.93 0.258569
2648.37 0.345167
2648.81 0.485907
2649.24 0.736366
2649.46 0.943878
2649.68 1.25289
2649.90 1.74467
2650.12 2.59747
2650.34 4.27264
2650.45 5.80004
2650.51 6.88839
2650.56 8.28136
2650.61 10.1774
2650.67 12.7939
2650.72 16.5361
2650.75 18.9855
2650.78 22.0017
2650.81 25.9222
2650.83 30.7302
2650.86 37.1787
2650.89 45.3557
2650.92 56.7054
2650.94 71.5631
2650.97 91.7781
2651.00 119.024
2651.05 190.721
2651.10 235.299
2651.13 219.994
2651.15 185.772
2651.20 116.299
2651.25 71.9567
2651.30 47.3641
2651.36 32.7520
2651.41 23.9328
2651.46 18.0789
2651.51 14.1670
2651.61 9.33867
2651.71 6.58112
2651.81 4.88277
2652.01 2.99944
2652.21 2.02740
2652.41 1.46741
2652.61 1.11480
2652.81 0.879127
2653.22 0.594851
2653.62 0.440107
2654.02 0.350154
2654.42 0.298677
2655.23 0.273334
2655.63 0.302004
2656.03 0.379576
2656.44 0.568047
2656.64 0.759696
2656.84 1.10568
2656.94 1.39326
2657.04 1.82333
2657.14 2.50648
2657.24 3.66958
2657.34 5.94479
2657.39 7.95509
2657.44 11.1841
2657.47 13.6928
2657.49 16.9771
2657.52 21.5632
2657.54 28.2032
2657.56 32.8754
2657.57 38.2335
2657.58 45.5397
2657.59 54.1257
2657.61 66.1157
2657.62 80.4940
2657.63 100.801
2657.64 126.097
2657.66 160.259
2657.67 200.387
2657.70 248.120
2657.71 231.480
2657.73 195.203
2657.76 122.053
2657.79 71.8870
2657.82 45.6565
2657.85 30.6544
2657.88 22.0418
2657.91 16.3982
2657.94 12.7478
2658.00 8.26206
2658.00 4.12333
3000.00 3.75850
3162.28 3.62509
3500.00 3.34745
3981.07 3.04654
4000.00 3.03470
5000.00 2.58959
5011.87 2.58600
6000.00 2.28728
6309.57 2.22114
7200.00 2.03091
7943.28 1.91665
8500.00 1.83107
10000.0 1.66141
11000.0 1.57217
12500.0 1.46281
12589.3 1.45787
15000.0 1.32444
15848.9 1.28651
16000.0 1.27976
17000.0 1.23962
19952.6 1.14146
20000.0 1.13989
21000.0 1.11200
25118.9 1.01945
26000.0 0.999651
31000.0 0.917857
31622.8 0.910059
36000.0 0.855253
39810.7 0.817534
41000.0 0.805762
46000.0 0.765771
50118.7 0.738730
51000.0 0.732944
56000.0 0.705686
61000.0 0.682854
63095.7 0.674784
66000.0 0.663600
71000.0 0.647276
76000.0 0.633377
79432.8 0.625223
81000.0 0.621500
86000.0 0.611202
91000.0 0.602441
96000.0 0.594720
100000 0.589491
101000 0.588183
106000 0.582293
111000 0.577366
116000 0.573087
121000 0.569022
125893 0.565815
126000 0.565745
131000 0.562458
136000 0.559913
141000 0.557678
146000 0.555159
151000 0.553385
156000 0.550351
158489 0.549163
161000 0.547965
166000 0.546585
171000 0.545342
176000 0.543391
181000 0.542330
186000 0.541362
191000 0.540476
196000 0.538656
199526 0.538101
201000 0.537869
206000 0.537141
250000 0.532029
251189 0.531979
276000 0.530929
316228 0.529865
346000 0.529077
346000 0.529554
346566 0.528571
346566 0.528571
396000 0.442699
398107 0.439039
400000 0.435751
500000 0.394919
501187 0.394850
550000 0.391996
600000 0.389072
619486 0.390097
620000 0.390124
630957 0.390701
650000 0.391703
670000 0.392755
700000 0.394334
750000 0.395664
760416 0.395941
760416 0.395941
800000 0.396994
830000 0.398831
850000 0.400055
870000 0.401279
900000 0.403116
920000 0.400045
930000 0.398510
936718 0.397479
936718 0.397479
940000 0.396975
950000 0.395440
970000 0.392369
1.00000E+06 0.387763
1.02000E+06 0.383792
1.04389E+06 0.379049
1.05000E+06 0.377836
1.05481E+06 0.376882
1.05481E+06 0.376881
1.07000E+06 0.373866
1.08979E+06 0.369937
1.10000E+06 0.367910
1.10962E+06 0.366000
1.11653E+06 0.364628
1.11654E+06 0.364627
1.12000E+06 0.363939
1.12166E+06 0.363609
1.12263E+06 0.363417
1.13065E+06 0.361825
1.13065E+06 0.361824
1.13409E+06 0.361141
1.13433E+06 0.361094
1.15000E+06 0.357983
1.15272E+06 0.357443
1.15370E+06 0.357248
1.15608E+06 0.356776
1.15861E+06 0.356273
1.16284E+06 0.355434
1.16553E+06 0.354900
1.16925E+06 0.354161
1.17000E+06 0.354012
1.18666E+06 0.350705
1.20000E+06 0.348056
1.22000E+06 0.345155
1.23553E+06 0.342903
1.25000E+06 0.340804
1.27000E+06 0.337903
1.29077E+06 0.334890
1.29077E+06 0.334890
1.30000E+06 0.333552
1.31000E+06 0.332101
1.32000E+06 0.330651
1.32338E+06 0.330161
1.32717E+06 0.329611
1.32718E+06 0.329610
1.33000E+06 0.329200
1.34000E+06 0.327750
1.35000E+06 0.326300
1.37000E+06 0.323399
1.40000E+06 0.319047
1.42000E+06 0.316147
1.44354E+06 0.312732
1.44354E+06 0.312732
1.45000E+06 0.311795
1.47000E+06 0.308894
1.47023E+06 0.308861
1.47023E+06 0.308861
1.48024E+06 0.307409
1.48024E+06 0.307409
1.50000E+06 0.304543
1.52000E+06 0.302850
1.55000E+06 0.300310
1.56050E+06 0.299421
1.56050E+06 0.299420
1.57000E+06 0.298616
1.60000E+06 0.296076
1.61626E+06 0.294700
1.61626E+06 0.294699
1.62000E+06 0.294383
1.65000E+06 0.291843
1.65432E+06 0.291477
1.65432E+06 0.291477
1.67000E+06 0.290149
1.67915E+06 0.289375
1.67915E+06 0.289375
1.70000E+06 0.287609
1.70365E+06 0.287301
1.70365E+06 0.287300
1.72000E+06 0.285916
1.75000E+06 0.283376
1.75838E+06 0.282667
1.75838E+06 0.282667
1.76764E+06 0.281883
1.77000E+06 0.281683
1.78333E+06 0.280554
1.78333E+06 0.280554
1.80000E+06 0.279143
1.81966E+06 0.277478
1.81966E+06 0.277478
1.82000E+06 0.277449
1.85000E+06 0.274909
1.85183E+06 0.274754
1.85184E+06 0.274754
1.87394E+06 0.272882
1.87394E+06 0.272882
1.87441E+06 0.272843
1.87441E+06 0.272842
1.88000E+06 0.272369
1.89278E+06 0.271287
1.89279E+06 0.271287
1.90000E+06 0.270676
1.92814E+06 0.268293
1.92814E+06 0.268293
1.93000E+06 0.268136
1.95000E+06 0.266442
1.95405E+06 0.266100
1.95405E+06 0.266100
1.97000E+06 0.264749
1.97503E+06 0.264323
1.97503E+06 0.264323
1.98879E+06 0.263158
1.98879E+06 0.263158
2.00000E+06 0.262209
2.01115E+06 0.261105
2.01116E+06 0.261104
2.02499E+06 0.259735
2.02499E+06 0.259734
3.00000E+06 0.163178
4.00000E+06 0.0762898
4.50000E+06 0.0533194
5.00000E+06 0.0376203
5.50000E+06 0.0256810
5.97642E+06 0.0185384
6.00000E+06 0.0181848
6.30000E+06 0.0144527
6.50000E+06 0.0125303
6.80000E+06 0.00984552
7.00000E+06 0.00851700
7.30000E+06 0.00705072
7.39175E+06 0.00662295
7.50000E+06 0.00611826
7.80000E+06 0.00513157
8.00000E+06 0.00460167
8.50000E+06 0.00367038
8.64603E+06 0.00344266
8.64603E+06 0.00344266
9.00000E+06 0.00289066
1.00000E+07 0.00204041
1.05000E+07 0.00180681
1.10000E+07 0.00163426
1.15000E+07 0.00149672
1.20000E+07 0.00138867
1.30000E+07 0.00118892
1.40000E+07 0.00105398
1.50000E+07 0.000874308
1.51872E+07 0.000845346
1.51872E+07 0.000845344
1.53774E+07 0.000815910
1.60000E+07 0.000719571
1.70000E+07 0.000548020
1.80000E+07 0.000417050
1.90000E+07 0.000312605
2.00000E+07 0.000235974