Gd-154(n,tot) ENDF/B-VII.1
Energy(eV) XS(b)
1.00000E-05 4386.01
1.25000E-05 3923.56
1.50000E-05 3582.20
2.00000E-05 3103.03
2.75000E-05 2647.10
3.50000E-05 2347.04
4.25000E-05 2130.43
5.00000E-05 1964.59
6.25000E-05 1757.77
7.50000E-05 1605.10
0.000100000 1390.80
0.000125000 1244.55
0.000150000 1136.59
0.000200000 985.042
0.000275000 840.838
0.000350000 745.928
0.000425000 677.407
0.000500000 624.946
0.000625000 559.515
0.000750000 511.211
0.00100000 443.396
0.00125000 397.106
0.00150000 362.929
0.00200000 314.940
0.00275000 269.255
0.00350000 239.168
0.00425000 217.433
0.00500000 200.783
0.00625000 180.001
0.00750000 164.644
0.0100000 143.053
0.0125000 128.287
0.0150000 117.363
0.0200000 101.984
0.0253000 90.9127
0.0314750 81.6878
0.0376500 74.8042
0.0500000 65.0229
0.0625000 58.1849
0.0750000 53.0932
0.100000 45.8622
0.125000 40.8539
0.150000 37.1078
0.200000 31.7624
0.237500 28.8690
0.275000 26.5633
0.350000 23.0754
0.500000 18.5642
0.750000 14.3136
1.00000 11.8394
1.50000 9.08016
2.00000 7.60130
2.75000 6.36827
3.50000 5.67115
4.25000 5.23012
5.00000 4.92858
6.25000 4.59702
7.50000 4.39119
8.75000 4.29200
9.37500 4.31693
10.0000 4.49794
10.3858 4.85581
10.5786 5.23616
10.7715 5.94637
10.9644 7.46689
11.0608 8.95717
11.1573 11.5980
11.2537 16.9268
11.3019 21.8782
11.3501 30.1936
11.3984 45.6879
11.4225 58.9444
11.4466 79.3679
11.4707 112.930
11.4948 172.779
11.5189 290.434
11.5310 391.674
11.5430 539.030
11.5523 689.182
11.5615 860.768
11.5800 1076.64
11.5985 866.050
11.6170 545.646
11.6334 356.957
11.6498 243.647
11.6661 174.530
11.6825 130.544
11.7153 80.8310
11.7480 55.3022
11.7807 40.6023
11.8135 31.4109
11.8790 21.0167
11.9445 15.5906
12.0100 12.4057
12.1409 9.00185
12.2719 7.30992
12.4029 6.34340
12.6649 5.32881
12.9269 4.82710
13.1888 4.53742
13.7128 4.22370
14.7606 3.95977
15.8085 3.85836
16.8564 3.85613
17.9043 4.00659
18.9521 4.54082
19.4761 5.17738
20.0000 6.43081
20.2859 7.64412
20.5718 9.59314
20.8576 12.9404
21.0006 15.5620
21.1435 19.2653
21.1792 20.4277
21.2150 21.7100
21.2328 22.4013
21.2507 23.1292
21.2686 23.8960
21.2864 24.7041
21.3043 25.5573
21.3222 26.4586
21.3401 27.4114
21.3579 28.4192
21.3937 30.6197
21.4294 33.0984
21.4651 35.9046
21.5009 39.0951
21.5366 42.7440
21.5723 46.9386
21.6438 57.4493
21.7153 71.9506
21.7867 92.6996
21.8582 123.771
21.9297 173.147
21.9654 209.457
22.0011 258.187
22.0369 325.640
22.0726 422.503
22.1083 568.351
22.1441 801.448
22.1798 1205.07
22.1977 1525.33
22.2155 1982.97
22.2334 2662.93
22.2513 3714.77
22.2691 5407.22
22.2870 8157.07
22.3085 13128.6
22.3300 16507.0
22.3515 13272.0
22.3730 8334.81
22.3971 4882.73
22.4212 3070.44
22.4452 2074.71
22.4693 1486.20
22.4934 1113.99
22.5175 865.433
22.5656 565.833
22.6137 399.633
22.6619 298.148
22.7582 185.798
22.8545 128.176
22.9508 94.6696
23.0471 73.4250
23.1434 59.0832
23.3360 41.4530
23.5285 31.3833
23.7211 25.0591
23.9137 20.8078
24.2989 15.5859
24.6841 12.5896
25.0693 10.6916
25.4544 9.40184
26.2248 7.78887
26.9951 6.83697
27.7655 6.21531
28.5359 5.77895
30.0766 5.20531
31.6173 4.83975
34.6987 4.37931
37.7801 4.07275
39.3208 3.94609
40.8616 3.83257
42.4023 3.74145
43.1726 3.71800
43.9430 3.73641
44.7133 3.87269
45.0985 4.05932
45.4837 4.45225
45.6763 4.80976
45.8689 5.38012
46.0615 6.34911
46.2541 8.15176
46.3504 9.67920
46.4466 12.0043
46.5429 15.7706
46.6392 22.4115
46.7355 35.6660
46.7837 47.8085
46.8078 56.4863
46.8318 67.8482
46.8439 74.8902
46.8559 83.1014
46.8679 92.7489
46.8800 104.168
46.8920 117.830
46.9040 134.313
46.9161 154.454
46.9281 179.326
46.9402 210.506
46.9522 250.147
46.9642 301.354
46.9763 368.560
46.9883 458.411
47.0003 580.125
47.0124 746.652
47.0244 972.318
47.0472 1565.07
47.0700 1969.99
47.0814 1861.19
47.0928 1588.38
47.1156 1001.34
47.1339 681.106
47.1522 479.002
47.1704 350.577
47.1887 266.171
47.2253 167.607
47.2618 115.352
47.2984 84.6141
47.3349 65.0957
47.4080 42.6748
47.4812 30.7841
47.5543 23.7265
47.7005 16.1145
47.8467 12.3238
47.9929 10.1965
48.1391 8.93332
48.2854 8.19628
48.5778 7.86179
48.7240 8.34776
48.8702 9.64189
49.0165 12.7461
49.0896 15.8537
49.1627 21.3139
49.2358 31.9950
49.2723 41.5239
49.3089 56.7791
49.3455 83.1904
49.3637 104.116
49.3820 133.952
49.3911 153.783
49.4003 178.134
49.4094 208.342
49.4186 246.140
49.4277 293.965
49.4368 354.799
49.4460 432.254
49.4551 529.832
49.4663 679.786
49.4776 852.036
49.5000 1072.84
49.5112 1014.19
49.5225 866.399
49.5449 547.728
49.5591 403.957
49.5734 303.790
49.6018 185.234
49.6302 123.600
49.6587 88.4682
49.6871 66.7827
49.7156 52.5395
49.7725 35.6296
49.8293 26.3644
49.8862 20.7385
50.0000 14.5165
50.1173 11.2319
50.2347 9.32507
50.3520 8.10808
50.4694 7.27609
50.7040 6.22730
50.9387 5.60093
51.4081 4.89156
51.8774 4.49623
52.8162 4.05135
53.7549 3.78644
55.6323 3.43397
57.5098 3.15741
59.3872 2.90617
60.3259 2.80487
61.2646 2.77335
61.7340 2.82813
62.2034 2.99371
62.6727 3.39446
63.1421 4.34894
63.3768 5.28129
63.4941 5.95616
63.6114 6.83913
63.6701 7.38318
63.6994 7.68654
63.7288 8.01330
63.7581 8.36598
63.7874 8.74688
63.8168 9.15916
63.8461 9.60575
63.8755 10.0906
63.9048 10.6176
63.9341 11.1918
63.9635 11.8180
64.0221 13.2533
64.0808 14.9843
64.1395 17.0925
64.1981 19.6887
64.2568 22.9268
64.3155 27.0246
64.3741 32.2989
64.4328 39.2236
64.4915 48.5323
64.5502 61.4079
64.6088 79.8533
64.6675 107.472
64.7262 151.265
64.7848 226.267
64.8142 285.337
64.8435 369.503
64.8728 494.844
64.9022 691.936
64.9315 1024.96
64.9608 1642.12
64.9755 2159.80
64.9902 2928.32
65.0048 4101.28
65.0195 5892.85
65.0398 9516.98
65.0600 12015.8
65.0803 9709.84
65.1005 6126.72
65.1219 3706.12
65.1434 2385.69
65.1648 1639.59
65.1863 1189.61
65.2077 900.741
65.2291 705.660
65.2720 467.634
65.3149 333.933
65.3577 251.506
65.4435 159.286
65.5292 111.421
65.6150 83.3140
65.7007 65.3404
65.7864 53.1101
65.9579 37.9220
66.1294 29.1328
66.3009 23.5456
66.4724 19.7476
66.8154 15.0127
67.1583 12.2432
67.5013 10.4578
67.8443 9.22484
68.5302 7.64995
69.2161 6.69512
69.9021 6.05633
70.5880 5.59811
71.9599 4.98059
73.3318 4.58967
74.0177 4.46880
74.3607 4.44336
74.7036 4.47109
75.0466 4.63204
75.2181 4.83765
75.3896 5.25014
75.5611 6.17214
75.6468 7.09001
75.7325 8.71947
75.8183 11.9745
75.8612 14.9448
75.9040 19.8151
75.9469 28.5334
75.9683 35.6750
75.9898 46.1846
76.0112 62.3983
76.0326 88.7586
76.0541 134.047
76.0648 168.422
76.0755 213.752
76.0866 273.828
76.0978 342.887
76.1200 431.865
76.1423 350.041
76.1645 222.685
76.1878 137.235
76.2111 90.2201
76.2343 63.4771
76.2576 47.2691
76.2809 36.8269
76.3042 29.7517
76.3507 21.0952
76.3973 16.2135
76.4438 13.1947
76.5369 9.80219
76.6300 8.02956
76.7232 6.98055
76.9094 5.83825
77.0956 5.24947
77.2818 4.89759
77.6542 4.49894
78.0267 4.27501
78.3991 4.12605
79.1439 3.92668
80.6337 3.67255
82.1234 3.48395
85.1028 3.16714
88.0823 2.87065
91.0617 2.56681
92.5514 2.41161
94.0411 2.26549
95.5309 2.17124
96.2757 2.18778
97.0206 2.32025
97.7654 2.73962
98.1379 3.19443
98.5103 3.99833
98.6965 4.62699
98.7896 5.02717
98.8827 5.50178
98.9293 5.77240
98.9758 6.06857
99.0224 6.39348
99.0689 6.75048
99.1155 7.14377
99.1621 7.57788
99.2086 8.05833
99.2552 8.59148
99.3017 9.18494
99.3483 9.84725
99.4414 11.4228
99.5345 13.4288
99.6276 16.0268
99.7207 19.4613
99.8138 24.1119
99.9069 30.5989
100.000 39.9818
100.080 51.8628
100.161 69.6233
100.241 97.7266
100.322 145.648
100.362 183.318
100.402 236.882
100.442 316.377
100.482 440.915
100.523 650.072
100.563 1034.55
100.583 1354.22
100.603 1825.29
100.623 2536.58
100.643 3604.86
100.672 5821.84
100.700 7354.43
100.729 5946.30
100.757 3752.05
100.776 2726.92
100.795 2025.87
100.832 1207.88
100.870 790.365
100.907 555.072
100.945 411.037
100.982 316.938
101.057 205.977
101.132 145.451
101.207 108.911
101.357 68.6894
101.507 48.1139
101.657 36.1228
101.806 28.4866
101.956 23.3009
102.256 16.8656
102.556 13.1382
102.856 10.7684
103.156 9.16589
103.755 7.26188
104.055 6.77074
104.355 6.62561
104.655 7.12558
104.805 7.92164
104.954 9.58565
105.104 13.3405
105.179 17.0642
105.254 23.6002
105.329 36.4454
105.367 47.9445
105.385 55.9920
105.404 66.3492
105.414 72.7061
105.423 80.0361
105.432 88.5406
105.442 98.3588
105.451 110.022
105.460 123.846
105.470 140.368
105.479 160.057
105.489 184.255
105.498 213.998
105.517 296.674
105.526 355.083
105.535 428.507
105.545 522.860
105.554 640.370
105.566 821.388
105.577 1029.00
105.600 1296.35
105.612 1228.98
105.623 1054.11
105.646 671.720
105.664 465.378
105.682 332.967
105.700 247.182
105.717 189.919
105.753 121.894
105.789 85.3612
105.824 63.5699
105.860 49.6419
105.931 33.4439
106.003 24.7330
106.074 19.4912
106.216 13.7178
106.359 10.7248
106.502 8.94457
106.787 6.96501
107.072 5.89806
107.357 5.22630
107.927 4.40489
109.068 3.53331
110.208 3.01457
112.489 2.33098
114.771 1.88131
117.052 1.75554
117.622 1.84041
118.192 2.01959
118.478 2.15962
118.620 2.24598
118.763 2.34501
118.905 2.45851
119.048 2.58823
119.190 2.73659
119.333 2.90598
119.475 3.09968
119.618 3.32117
119.761 3.57468
119.903 3.86503
120.188 4.58257
120.473 5.53775
120.759 6.82701
121.044 8.59598
121.329 11.0775
121.614 14.6571
121.899 20.0109
122.184 28.3958
122.469 42.3888
122.755 67.8636
122.897 89.0469
123.040 120.731
123.182 170.859
123.325 256.296
123.467 418.403
123.539 559.113
123.610 778.194
123.681 1144.08
123.753 1809.74
123.788 2358.32
123.824 3156.53
123.859 4346.84
123.895 6122.18
123.948 9937.58
124.000 12620.7
124.053 10218.4
124.105 6441.30
124.164 3793.99
124.222 2399.74
124.281 1629.75
124.339 1173.71
124.398 883.961
124.456 690.126
124.573 455.281
124.691 324.276
124.808 243.827
125.042 154.061
125.276 107.521
125.510 80.1645
125.744 62.6361
125.979 50.6803
126.447 35.7526
126.915 27.0389
127.384 21.4412
127.852 17.5886
128.789 12.6783
129.726 9.69471
131.599 6.22853
133.473 4.38761
134.409 4.03174
134.878 4.10116
135.346 4.45604
135.580 4.79488
135.697 5.01927
135.814 5.28806
135.932 5.60853
136.049 5.98944
136.107 6.20598
136.166 6.44141
136.224 6.69821
136.283 6.97741
136.400 7.61336
136.517 8.36898
136.634 9.26887
136.751 10.3440
136.985 13.1887
137.220 17.3763
137.454 23.7412
137.688 33.8325
137.922 50.7955
138.039 63.7893
138.156 81.7623
138.273 107.442
138.391 145.652
138.508 205.545
138.625 306.123
138.742 491.801
138.800 648.398
138.859 884.657
138.918 1262.13
138.976 1903.34
139.035 3073.81
139.093 5301.73
139.147 8606.12
139.200 10929.4
139.254 8915.60
139.307 5683.76
139.342 4156.71
139.378 3101.36
139.448 1868.44
139.519 1233.94
139.589 874.798
139.660 653.439
139.730 508.291
139.871 335.626
140.013 240.701
140.154 182.795
140.436 118.315
140.718 84.7507
141.000 64.8538
141.282 51.9664
141.565 43.0668
142.129 31.7364
142.693 24.9171
143.258 20.3839
143.822 17.1429
144.951 12.7727
145.515 11.2592
146.080 10.1904
146.644 10.0010
146.926 10.7487
147.208 12.9933
147.349 15.3047
147.491 19.2022
147.526 20.5620
147.561 22.1329
147.579 23.0124
147.596 23.9553
147.614 24.9730
147.632 26.0727
147.649 27.2696
147.667 28.5596
147.685 29.9676
147.702 31.4897
147.738 34.9644
147.773 39.1022
147.808 44.0978
147.843 50.1691
147.879 57.6247
147.914 66.8597
147.949 78.5206
147.984 93.4379
148.020 112.870
148.055 138.643
148.090 173.896
148.126 223.475
148.161 295.805
148.196 405.797
148.231 583.606
148.267 889.278
148.284 1128.76
148.302 1458.92
148.319 1921.43
148.337 2565.28
148.369 4198.21
148.400 5365.97
148.432 4391.16
148.463 2810.39
148.494 1779.53
148.525 1190.56
148.557 843.284
148.588 628.167
148.619 486.483
148.650 389.286
148.712 267.969
148.775 198.160
148.837 154.258
148.961 103.959
149.086 77.0681
149.211 60.8499
149.335 50.2183
149.460 42.8151
149.709 33.3069
149.958 27.5526
150.207 23.7269
150.456 21.0095
150.955 17.3991
151.453 15.0885
152.450 12.2245
153.446 10.4276
154.443 9.11746
156.436 7.14908
158.429 5.53990
159.426 4.82633
160.423 4.29031
160.921 4.20809
161.419 4.43027
161.668 4.75340
161.918 5.31673
162.042 5.72757
162.104 5.97485
162.167 6.25478
162.229 6.57160
162.291 6.93020
162.354 7.33625
162.416 7.79557
162.478 8.31733
162.540 8.90988
162.603 9.58387
162.665 10.3519
162.790 12.2332
162.914 14.7114
163.039 18.0254
163.163 22.5290
163.288 28.7782
163.412 37.6696
163.537 50.7626
163.662 70.8543
163.786 103.427
163.911 160.248
163.973 205.549
164.035 270.557
164.098 367.841
164.160 521.322
164.222 780.442
164.285 1257.88
164.316 1655.26
164.347 2237.43
164.378 3112.07
164.409 4426.11
164.455 7242.86
164.500 9251.56
164.546 7562.52
164.591 4832.93
164.636 3053.60
164.681 2037.31
164.726 1440.34
164.771 1069.50
164.816 825.702
164.861 658.418
164.951 450.118
165.041 330.246
165.131 255.028
165.311 168.934
165.492 123.028
165.672 95.4255
165.852 77.3937
166.032 64.8835
166.392 48.9226
166.752 39.3598
167.112 33.0749
167.472 28.6639
168.193 22.9083
168.913 19.3595
169.273 18.1735
169.453 17.8016
169.633 17.7450
169.813 18.4658
169.903 19.5491
169.993 21.7989
170.084 26.8157
170.129 31.6653
170.174 39.9022
170.219 55.1257
170.264 86.8873
170.286 116.662
170.309 165.838
170.320 202.769
170.331 251.689
170.342 318.043
170.354 405.749
170.365 523.958
170.377 660.782
170.400 846.786
170.412 809.393
170.423 700.538
170.447 457.082
170.461 346.147
170.475 267.917
170.504 172.878
170.533 122.199
170.562 92.7612
170.591 74.1790
170.620 61.7990
170.677 46.7328
170.735 38.2138
170.793 32.8989
170.908 26.7767
171.024 23.4266
171.139 21.3373
171.370 18.8620
171.601 17.4144
171.832 16.4336
172.294 15.1257
173.217 13.5633
174.141 12.5562
175.988 11.2135
177.835 10.3043
181.529 9.08065
185.223 8.23948
188.918 7.57358
192.612 6.97271
194.459 6.66499
196.306 6.32834
197.230 6.14124
198.153 5.94013
198.615 5.83859
199.077 5.74706
199.538 5.69364
200.000 5.77036
200.194 5.90612
200.388 6.18248
200.581 6.74013
200.775 7.91937
200.872 8.99486
200.969 10.7065
201.066 13.5898
201.163 18.8428
201.259 29.6322
201.284 34.0771
201.308 39.6781
201.320 43.0463
201.332 46.8839
201.344 51.2786
201.356 56.3392
201.369 62.2537
201.381 69.0979
201.393 77.1352
201.405 86.6469
201.429 111.673
201.453 148.785
201.477 206.449
201.490 247.606
201.502 301.027
201.514 371.344
201.526 464.989
201.538 590.404
201.550 756.996
201.575 1234.30
201.600 1574.98
201.613 1498.53
201.625 1288.10
201.650 824.079
201.668 586.504
201.686 429.407
201.705 324.391
201.723 253.197
201.759 166.555
201.795 118.726
201.832 89.7688
201.868 70.9513
201.940 48.7980
202.013 36.6693
202.086 29.2834
202.158 24.4273
202.231 21.0509
202.376 16.7381
202.521 14.1635
202.666 12.4810
202.811 11.3078
203.101 9.79314
203.392 8.86289
203.972 7.77083
204.553 7.12666
205.133 6.67535
206.294 6.01352
206.875 5.73729
207.455 5.48520
208.036 5.27433
208.616 5.18059
208.907 5.24850
209.197 5.49473
209.487 6.11589
209.778 7.60631
209.923 9.05505
210.068 11.4490
210.140 13.2343
210.177 14.3417
210.213 15.6267
210.249 17.1346
210.267 17.9879
210.286 18.9103
210.304 19.9201
210.322 21.0155
210.340 22.2124
210.358 23.5228
210.394 26.5508
210.431 30.2334
210.467 34.7601
210.503 40.3922
210.540 47.4979
210.576 56.6072
210.612 68.5043
210.648 84.3352
210.685 106.074
210.721 136.799
210.757 181.913
210.793 251.105
210.830 364.262
210.866 562.797
210.884 720.537
210.902 941.222
210.920 1255.67
210.939 1701.50
210.969 2786.02
211.000 3560.72
211.031 2913.95
211.062 1865.95
211.087 1273.95
211.112 900.563
211.137 663.424
211.162 507.892
211.213 324.992
211.263 227.525
211.313 169.602
211.364 132.541
211.464 89.3604
211.565 65.9582
211.666 51.7759
211.766 42.4729
211.867 36.0092
212.068 27.7577
212.270 22.8277
212.471 19.6042
212.672 17.3565
213.075 14.4605
213.478 12.6938
213.880 11.5098
214.283 10.6613
215.088 9.51919
215.894 8.77300
217.504 7.80632
219.115 7.12941
219.920 6.82946
220.726 6.53911
221.531 6.27755
221.934 6.19787
222.336 6.24379
222.538 6.38303
222.739 6.69420
222.940 7.35398
223.142 8.79537
223.242 10.1322
223.343 12.2809
223.444 15.9311
223.544 22.6300
223.570 25.1570
223.595 28.2043
223.620 31.9163
223.633 34.0805
223.645 36.4696
223.658 39.1583
223.670 42.1721
223.683 45.5631
223.695 49.3616
223.721 58.6535
223.746 70.8019
223.771 87.1824
223.796 109.797
223.821 142.037
223.846 189.573
223.872 263.521
223.897 383.772
223.922 591.676
223.935 749.841
223.947 957.176
223.974 1566.22
224.000 2004.67
224.027 1644.09
224.053 1054.58
224.081 649.533
224.109 426.811
224.137 299.589
224.165 222.083
224.193 171.764
224.221 137.625
224.277 95.5052
224.333 71.4511
224.389 56.4398
224.501 39.3079
224.614 30.1871
224.726 24.7001
224.838 21.1102
224.950 18.6133
225.174 15.4188
225.398 13.4950
225.622 12.2253
225.847 11.3305
226.295 10.1591
226.743 9.42728
227.192 8.92490
227.640 8.55621
228.537 8.04391
229.434 7.69605
231.227 7.23087
233.021 6.91090
234.814 6.65926
238.402 6.24579
241.989 5.86293
243.782 5.65892
245.576 5.43138
247.369 5.16290
248.266 5.00596
249.163 4.83107
250.060 4.64793
250.508 4.57185
250.957 4.54846
251.405 4.70759
251.629 4.98799
251.853 5.63395
251.965 6.24688
252.078 7.24468
252.190 8.95985
252.302 12.1523
252.414 18.8554
252.442 21.6583
252.470 25.2215
252.484 27.3786
252.498 29.8488
252.512 32.6930
252.526 35.9874
252.540 39.8582
252.554 44.3740
252.568 49.7187
252.582 56.0992
252.596 63.7893
252.610 73.1557
252.624 84.6980
252.638 99.1073
252.652 117.357
252.666 140.841
252.680 171.595
252.694 212.632
252.708 268.449
252.722 345.722
252.736 453.900
252.750 604.411
252.775 984.741
252.800 1255.82
252.813 1194.54
252.825 1026.44
252.850 656.061
252.868 468.248
252.886 343.547
252.904 259.877
252.922 202.998
252.958 133.578
252.994 95.2401
253.029 71.9147
253.065 56.7806
253.137 38.8978
253.209 29.1166
253.280 23.1569
253.424 16.5065
253.567 13.0207
253.711 10.9337
253.997 8.60773
254.284 7.36334
254.571 6.59521
255.145 5.73949
255.431 5.54522
255.718 5.53858
256.005 5.85495
256.292 6.87142
256.435 7.93681
256.579 9.75115
256.650 11.1236
256.722 12.9802
256.758 14.1565
256.794 15.5420
256.830 17.1936
256.848 18.1345
256.865 19.1659
256.883 20.3057
256.901 21.5540
256.919 22.9318
256.937 24.4562
256.973 28.0403
257.009 32.4949
257.045 38.1394
257.081 45.3654
257.116 54.8411
257.152 67.4685
257.188 84.8330
257.224 109.326
257.260 145.413
257.296 200.812
257.332 291.486
257.367 450.066
257.385 576.324
257.403 752.926
257.421 1004.50
257.439 1361.11
257.470 2230.66
257.500 2858.09
257.531 2344.85
257.561 1503.38
257.584 1063.23
257.606 774.063
257.629 582.972
257.652 453.276
257.697 296.351
257.742 210.245
257.787 158.080
257.833 124.274
257.923 84.3629
258.014 62.5118
258.104 49.1720
258.195 40.3776
258.285 34.2453
258.466 26.3862
258.647 21.6731
258.828 18.5813
259.009 16.4219
259.371 13.6320
259.733 11.9243
260.094 10.7761
260.456 9.95042
261.180 8.83355
261.904 8.09735
263.352 7.12585
264.799 6.41947
265.523 6.09848
266.247 5.79209
266.609 5.65637
266.971 5.55698
267.333 5.54977
267.694 5.79005
267.875 6.12935
268.056 6.78295
268.237 8.06045
268.418 10.7028
268.509 13.0802
268.599 16.8250
268.622 18.0904
268.645 19.5259
268.667 21.1681
268.690 23.0557
268.712 25.2369
268.735 27.7713
268.758 30.7347
268.780 34.2234
268.803 38.3813
268.825 43.3347
268.848 49.3148
268.871 56.6099
268.893 65.6582
268.916 76.9303
268.939 91.2421
268.961 109.728
268.984 134.207
269.006 167.079
269.029 212.580
269.052 277.515
269.074 373.443
269.097 520.502
269.119 753.497
269.142 1125.47
269.171 1846.65
269.200 2369.12
269.229 1946.70
269.258 1250.57
269.289 774.020
269.319 509.629
269.350 358.135
269.380 265.867
269.410 205.792
269.441 164.805
269.502 114.220
269.563 85.2589
269.624 67.1422
269.746 46.4256
269.867 35.3500
269.989 28.6744
270.111 24.2930
270.233 21.2421
270.477 17.3273
270.720 14.9655
270.964 13.4045
271.208 12.3040
271.695 10.8642
272.183 9.96801
272.670 9.35650
273.158 8.91144
274.132 8.30264
275.107 7.90041
277.057 7.38785
279.007 7.06217
280.956 6.82797
284.856 6.49690
288.755 6.25896
292.655 6.06863
300.454 5.75797
308.252 5.48245
316.051 5.18908
319.951 5.00786
321.901 4.89693
323.850 4.76181
325.800 4.58627
326.775 4.47469
327.750 4.34100
328.725 4.18513
329.212 4.10819
329.699 4.05867
329.943 4.06615
330.187 4.12635
330.431 4.29935
330.674 4.73587
330.796 5.16754
330.918 5.88578
331.040 7.14581
331.162 9.53112
331.284 14.6329
331.344 19.5335
331.360 21.2158
331.375 23.1356
331.390 25.3524
331.405 27.9280
331.421 30.9621
331.436 34.5159
331.451 38.7681
331.466 43.8350
331.482 50.0143
331.497 57.5345
331.512 66.8555
331.527 78.5685
331.543 93.6274
331.558 113.068
331.573 138.796
331.588 173.560
331.603 221.941
331.619 289.781
331.634 386.811
331.649 524.956
331.675 856.758
331.700 1094.78
331.713 1042.00
331.726 896.627
331.751 574.134
331.767 430.212
331.782 328.656
331.814 205.577
331.845 139.911
331.876 101.725
331.907 77.7332
331.938 61.8256
332.001 42.6491
332.063 31.9398
332.126 25.3532
332.251 17.9505
332.375 14.0780
332.500 11.8097
332.750 9.54450
333.000 9.10047
333.125 9.69050
333.250 11.3661
333.374 15.5577
333.437 19.8349
333.499 27.3644
333.531 33.3860
333.546 37.2779
333.562 41.9697
333.577 47.6822
333.593 54.7150
333.609 63.4818
333.624 74.5643
333.640 88.7962
333.655 107.398
333.671 132.197
333.687 165.979
333.702 213.064
333.718 280.154
333.733 377.269
333.749 517.340
333.775 848.413
333.800 1089.92
333.813 1040.45
333.826 898.215
333.851 579.481
333.881 341.201
333.911 217.969
333.942 150.923
333.972 111.382
334.002 86.3342
334.032 69.5186
334.093 49.0697
334.153 37.5022
334.213 30.3071
334.334 22.0877
334.455 17.6799
334.575 14.9985
334.696 13.2209
334.817 11.9667
335.058 10.3272
335.300 9.31065
335.541 8.62048
335.782 8.12135
336.265 7.44619
336.748 7.00857
337.714 6.46861
338.679 6.14208
339.645 5.91857
341.576 5.62217
343.508 5.42391
345.439 5.27318
349.302 5.03794
353.164 4.83639
357.027 4.62993
358.958 4.50998
359.924 4.44082
360.889 4.36223
361.855 4.27267
362.338 4.22670
362.821 4.19045
363.062 4.18527
363.304 4.20253
363.545 4.26958
363.786 4.45670
363.907 4.64959
364.028 4.97845
364.149 5.56704
364.269 6.70406
364.390 9.18116
364.450 11.5990
364.511 15.7824
364.571 23.8185
364.601 30.8223
364.616 35.6408
364.631 41.6913
364.646 49.5172
364.662 59.7665
364.677 73.4685
364.692 92.2062
364.707 118.456
364.722 156.106
364.737 211.045
364.752 290.341
364.764 375.166
364.776 473.844
364.800 606.351
364.812 578.107
364.824 498.117
364.848 320.502
364.864 237.808
364.879 180.398
364.910 112.197
364.941 76.4521
364.971 56.0103
365.002 43.2658
365.033 34.8580
365.095 24.7631
365.156 19.1394
365.218 15.6765
365.341 11.7783
365.465 9.71812
365.588 8.48291
365.711 7.67429
365.835 7.11061
366.081 6.38557
366.328 5.94506
366.575 5.65094
366.821 5.44113
367.315 5.16056
367.808 4.97932
368.795 4.75079
369.781 4.60289
370.768 4.49111
372.741 4.31487
376.688 4.01643
380.634 3.70027
384.581 3.30066
386.554 3.04149
388.527 2.71716
389.514 2.52187
390.501 2.30041
391.487 2.05530
392.474 1.81284
392.967 1.72353
393.461 1.70605
393.954 1.86632
394.201 2.08765
394.324 2.25914
394.447 2.48786
394.571 2.79232
394.694 3.19735
394.817 3.73898
394.879 4.07664
394.941 4.46893
395.064 5.46480
395.187 6.84188
395.311 8.78516
395.434 11.5973
395.557 15.8047
395.681 22.3594
395.804 33.1640
395.927 52.3911
395.989 67.9688
396.051 90.6309
396.112 125.111
396.174 180.554
396.236 276.981
396.297 461.733
396.328 622.120
396.359 866.453
396.390 1251.98
396.421 1864.96
396.460 3060.94
396.500 3931.77
396.540 3232.10
396.580 2071.42
396.622 1261.65
396.665 819.362
396.708 569.120
396.751 417.729
396.794 320.227
396.836 254.052
396.922 172.744
397.008 126.564
397.093 97.7653
397.264 65.0274
397.435 47.6276
397.607 37.1790
397.778 30.3524
397.949 25.6124
398.291 19.5528
398.634 15.9102
398.976 13.5080
399.318 11.8154
400.003 9.59434
400.688 8.19461
401.372 7.21473
402.057 6.47089
403.426 5.34620
404.111 4.87949
404.795 4.46453
405.138 4.29454
405.480 4.18523
405.822 4.21434
406.165 4.59232
406.336 5.07996
406.507 5.98690
406.678 7.71028
406.764 9.13095
406.807 10.0618
406.849 11.1867
406.892 12.5631
406.935 14.2590
406.956 15.2555
406.978 16.3704
407.021 19.0306
407.063 22.4289
407.106 26.8403
407.149 32.6763
407.192 40.5501
407.235 51.5135
407.277 67.2538
407.320 90.7818
407.363 127.773
407.406 189.794
407.427 237.246
407.449 302.643
407.470 395.103
407.491 529.168
407.513 727.347
407.534 1018.18
407.567 1676.56
407.600 2159.21
407.633 1780.48
407.666 1146.69
407.702 698.447
407.738 454.924
407.774 317.582
407.810 234.784
407.846 181.287
407.883 144.961
407.955 100.303
408.027 74.8202
408.099 58.8916
408.243 40.6615
408.388 30.9024
408.532 24.9957
408.676 21.1070
408.820 18.3870
409.109 14.8739
409.397 12.7335
409.686 11.3041
409.975 10.2862
410.552 8.93318
411.129 8.07165
411.706 7.46969
412.283 7.02073
413.437 6.38373
414.592 5.94000
416.900 5.32699
419.209 4.88653
421.517 4.52323
426.134 3.87406
430.751 3.18874
433.060 2.78781
435.368 2.32203
437.677 1.78527
438.831 1.51502
439.985 1.31908
440.562 1.31074
440.851 1.35439
441.139 1.44902
441.428 1.61822
441.572 1.74145
441.716 1.89827
441.861 2.09694
442.005 2.34773
442.149 2.66415
442.294 3.06374
442.438 3.57099
442.582 4.21829
442.726 5.05097
442.871 6.13335
443.015 7.55901
443.159 9.46803
443.304 12.0773
443.448 15.7336
443.592 21.0336
443.736 29.0400
443.881 41.8209
444.025 63.7977
444.097 81.1700
444.169 105.932
444.241 142.894
444.314 201.028
444.386 299.519
444.458 482.315
444.494 636.254
444.530 865.004
444.566 1216.53
444.602 1756.15
444.651 2843.57
444.700 3629.46
444.749 2963.65
444.798 1871.47
444.833 1324.84
444.868 961.092
444.902 718.730
444.937 553.413
445.006 353.157
445.076 243.067
445.145 176.782
445.215 133.975
445.353 84.0041
445.492 57.1021
445.631 41.0515
445.770 30.8753
445.909 24.3326
446.047 20.4513
446.186 19.0754
446.256 19.5013
446.290 20.0674
446.325 20.9161
446.360 22.0959
446.394 23.6693
446.429 25.7173
446.464 28.3457
446.499 31.6936
446.533 35.9462
446.568 41.3529
446.603 48.2549
446.637 57.1267
446.672 68.6412
446.707 83.7737
446.741 103.974
446.776 131.458
446.811 169.728
446.846 224.520
446.880 305.619
446.915 430.444
446.950 631.180
446.984 967.834
447.019 1541.05
447.060 2594.10
447.100 3388.23
447.141 2830.39
447.181 1856.87
447.222 1201.58
447.262 820.780
447.303 594.142
447.343 451.819
447.383 356.961
447.424 291.034
447.505 207.370
447.586 158.053
447.667 126.392
447.828 89.0237
447.990 68.2314
448.152 55.2400
448.476 40.1184
448.799 31.6961
449.123 26.3671
449.770 20.0281
450.418 16.3864
451.065 14.0168
452.360 11.0930
453.654 9.32425
454.949 8.10198
457.538 6.40438
460.128 5.08550
461.422 4.44422
462.717 3.77591
463.364 3.43415
464.012 3.10767
464.659 2.85416
465.306 2.85206
465.630 3.09901
465.792 3.34688
465.954 3.72414
466.035 3.97851
466.116 4.28848
466.196 4.66641
466.277 5.12758
466.358 5.69139
466.439 6.38285
466.520 7.23443
466.601 8.28892
466.682 9.60523
466.763 11.2576
466.844 13.3542
466.925 16.0452
467.006 19.5464
467.086 24.1757
467.167 30.4161
467.248 39.0267
467.329 51.2679
467.410 69.2483
467.491 96.8813
467.572 141.832
467.653 220.627
467.693 283.537
467.734 373.262
467.774 506.355
467.815 710.117
467.855 1034.03
467.896 1550.32
467.948 2565.68
468.000 3316.17
468.052 2742.85
468.105 1772.06
468.141 1286.31
468.177 956.424
468.214 732.413
468.250 577.001
468.323 384.601
468.395 276.339
468.468 209.674
468.540 165.871
468.686 113.465
468.831 84.3425
468.976 66.3599
469.122 54.3940
469.267 45.9763
469.558 35.0987
469.848 28.4986
470.139 24.1311
470.429 21.0547
471.011 17.0429
471.592 14.5595
472.173 12.8742
472.754 11.6529
473.916 9.98496
475.079 8.87410
477.404 7.39306
479.728 6.29717
480.891 5.77527
482.053 5.21943
483.215 4.58912
483.797 4.24298
484.378 3.91019
484.668 3.78709
484.959 3.75452
485.250 3.94027
485.540 4.68161
485.686 5.52511
485.758 6.16669
485.831 7.02625
485.867 7.56523
485.904 8.19292
485.940 8.92848
485.976 9.79406
486.013 10.8206
486.049 12.0378
486.085 13.4935
486.121 15.2465
486.158 17.3803
486.194 19.9862
486.230 23.2084
486.267 27.2383
486.303 32.3605
486.339 38.9336
486.376 47.5388
486.412 59.0382
486.448 74.8356
486.485 97.0576
486.521 129.516
486.557 179.017
486.594 258.608
486.630 394.984
486.666 645.480
486.684 847.719
486.703 1125.44
486.736 1863.61
486.770 2409.35
486.804 1994.02
486.838 1290.21
486.877 767.177
486.916 492.225
486.955 340.828
486.994 250.950
487.033 193.476
487.073 154.705
487.151 107.299
487.229 80.3526
487.308 63.5239
487.464 44.2531
487.621 33.8913
487.778 27.5939
487.934 23.4238
488.091 20.4917
488.404 16.6768
488.717 14.3249
489.031 12.7347
489.344 11.5844
489.971 10.0101
490.597 8.95411
490.911 8.56693
491.067 8.43599
491.224 8.40815
491.381 8.65800
491.459 9.05339
491.537 9.89970
491.616 11.8392
491.655 13.7516
491.694 17.0353
491.733 23.2084
491.753 28.4337
491.772 36.2650
491.792 48.7019
491.811 69.5045
491.821 85.2156
491.831 106.396
491.841 135.139
491.850 173.399
491.860 224.052
491.870 283.515
491.890 366.092
491.900 351.513
491.910 305.528
491.930 200.935
491.945 142.279
491.961 104.474
491.977 80.0208
491.993 63.7716
492.024 44.3223
492.056 33.7187
492.087 27.3054
492.119 23.1471
492.182 18.2082
492.245 15.4604
492.308 13.7550
492.434 11.7863
492.560 10.6988
492.686 10.0099
492.938 9.17529
493.191 8.67142
493.443 8.32021
493.947 7.83519
494.956 7.22168
495.965 6.79565
497.982 6.15515
500.000 5.62336
502.953 4.86090
504.430 4.43412
505.907 3.94107
506.645 3.66071
507.383 3.35665
508.122 3.04024
508.860 2.76470
509.229 2.69598
509.598 2.75455
509.967 3.10270
510.152 3.49592
510.244 3.78444
510.336 4.15755
510.429 4.64171
510.521 5.27188
510.613 6.09741
510.706 7.18872
510.752 7.86528
510.798 8.64875
510.890 10.6321
510.983 13.3783
511.075 17.2682
511.167 22.9593
511.259 31.6044
511.352 45.4100
511.444 68.9764
511.490 87.3492
511.536 113.084
511.582 150.578
511.629 207.333
511.675 298.237
511.721 452.509
511.767 733.046
511.813 1264.03
511.857 2085.99
511.900 2694.52
511.944 2227.38
511.987 1435.49
512.023 977.193
512.060 690.264
512.096 508.303
512.132 389.251
512.205 249.932
512.278 175.653
512.350 131.462
512.423 103.061
512.568 69.8478
512.714 51.7123
512.859 40.6296
513.005 33.2828
513.150 28.1226
513.441 21.4246
513.731 17.3034
514.022 14.5104
514.313 12.4766
514.894 9.67274
515.185 8.71042
515.475 8.12321
515.766 8.42070
515.911 9.45044
516.057 12.0164
516.129 14.4865
516.166 16.2407
516.202 18.4844
516.220 19.8466
516.239 21.4029
516.257 23.1877
516.275 25.2303
516.293 27.6041
516.311 30.3456
516.329 33.5637
516.347 37.3212
516.384 47.0998
516.420 61.1454
516.456 82.1247
516.493 114.931
516.529 169.466
516.547 210.650
516.565 266.301
516.584 343.965
516.602 453.315
516.620 611.160
516.638 835.512
516.669 1393.59
516.700 1815.06
516.731 1514.15
516.762 988.868
516.797 605.981
516.831 398.972
516.866 282.141
516.901 211.370
516.935 165.623
516.970 134.415
517.039 95.7304
517.108 73.4297
517.177 59.3440
517.316 42.9881
517.454 34.0380
517.593 28.5129
517.731 24.7998
517.870 22.1528
518.147 18.6444
518.423 16.4308
518.977 13.7865
519.531 12.2439
520.085 11.2186
521.192 9.91272
522.300 9.09283
523.407 8.51548
525.622 7.72998
527.838 7.19666
530.053 6.79212
534.483 6.17148
538.913 5.64651
541.128 5.37916
543.343 5.08155
545.558 4.71502
546.666 4.48253
547.773 4.19331
548.327 4.01829
548.881 3.81724
549.435 3.58832
549.989 3.34447
550.265 3.23639
550.542 3.17196
550.819 3.22618
551.096 3.60349
551.235 4.07789
551.373 4.95887
551.442 5.66118
551.511 6.63992
551.546 7.27221
551.581 8.02918
551.615 8.94083
551.650 10.0463
551.685 11.4017
551.719 13.0685
551.754 15.1448
551.788 17.7617
551.823 21.1046
551.858 25.4428
551.892 31.1773
551.927 38.9243
551.961 49.6663
551.996 65.0387
552.031 87.9059
552.065 123.603
552.100 182.814
552.134 288.788
552.152 374.178
552.169 496.085
552.186 672.948
552.204 928.742
552.232 1537.16
552.260 1987.50
552.288 1645.21
552.317 1064.25
552.342 703.971
552.368 486.649
552.394 353.667
552.419 268.777
552.471 171.415
552.522 120.593
552.573 90.6967
552.625 71.6535
552.727 49.4850
552.830 37.4254
552.933 30.0733
553.035 25.2066
553.138 21.7967
553.343 17.3911
553.549 14.7155
553.754 12.9392
553.959 11.6831
554.370 10.0352
554.780 9.00758
555.191 8.30539
555.602 7.79377
556.423 7.09101
557.244 6.62089
558.887 5.99698
560.529 5.55114
561.351 5.35024
562.172 5.14684
562.993 4.92733
563.404 4.80838
563.815 4.68807
564.020 4.63444
564.225 4.59750
564.431 4.60364
564.636 4.72443
564.739 4.88507
564.841 5.18731
564.944 5.76710
565.047 6.94222
565.149 9.59793
565.201 12.2329
565.252 16.8417
565.278 20.5110
565.303 25.7512
565.316 29.2518
565.329 33.5264
565.342 38.8481
565.355 45.5648
565.367 54.2499
565.380 65.4989
565.393 80.4514
565.406 100.745
565.419 129.156
565.432 169.140
565.444 226.610
565.457 308.872
565.468 401.400
565.479 508.567
565.500 655.395
565.511 627.139
565.522 542.680
565.543 351.709
565.567 213.029
565.592 138.990
565.616 97.7525
565.640 73.0343
565.665 57.1949
565.689 46.4701
565.737 33.3191
565.786 25.8138
565.834 21.1218
565.932 15.7369
566.029 12.8413
566.126 11.0798
566.223 9.91408
566.320 9.09377
566.514 8.02663
566.708 7.36859
566.903 6.92379
567.097 6.60267
567.485 6.16677
567.874 5.87986
568.650 5.51007
569.427 5.26543
570.204 5.07836
571.758 4.78259
574.865 4.29066
577.972 3.78625
581.080 3.16704
582.633 2.77681
584.187 2.30840
584.964 2.04334
585.741 1.76798
586.517 1.51773
587.294 1.41096
587.683 1.51746
587.877 1.65461
588.071 1.88109
588.265 2.23818
588.362 2.48452
588.460 2.79016
588.557 3.16936
588.654 3.64054
588.751 4.22775
588.848 4.96283
588.945 5.88844
589.042 7.06271
589.236 10.5131
589.333 13.0682
589.431 16.4768
589.528 21.1144
589.625 27.5776
589.722 36.8553
589.819 50.6754
589.916 72.2560
590.013 108.098
590.110 172.771
590.159 225.869
590.207 303.671
590.256 423.068
590.304 614.411
590.353 937.090
590.402 1489.89
590.456 2462.42
590.510 3187.95
590.564 2640.73
590.619 1702.94
590.660 1200.01
590.701 870.434
590.742 653.331
590.783 507.002
590.865 330.717
590.947 234.016
591.029 175.592
591.111 137.612
591.275 92.7318
591.439 67.9992
591.604 52.7910
591.768 42.6579
591.932 35.5010
592.260 26.1291
592.424 22.9377
592.589 20.4769
592.753 18.9212
592.835 18.7932
592.917 19.6681
592.999 22.9580
593.040 26.7061
593.081 33.5318
593.122 46.8386
593.143 58.2345
593.153 65.9669
593.163 75.4701
593.173 87.5098
593.184 102.642
593.194 122.280
593.204 147.590
593.214 181.262
593.225 225.630
593.235 285.509
593.245 364.142
593.256 477.183
593.268 610.300
593.290 802.901
593.301 777.363
593.313 681.552
593.335 456.239
593.358 297.531
593.382 206.494
593.405 152.884
593.428 119.483
593.451 97.2464
593.475 81.8313
593.521 62.2132
593.568 50.5907
593.614 43.0499
593.707 33.9987
593.800 28.8107
593.893 25.4581
594.079 21.3378
594.265 18.8462
594.451 17.1352
594.823 14.8602
595.195 13.3602
595.568 12.2664
596.312 10.7377
597.056 9.69412
597.800 8.92234
599.288 7.83110
600.777 7.06709
602.265 6.46774
603.009 6.19874
603.753 5.93799
604.125 5.81630
604.311 5.76757
604.497 5.74646
604.684 5.80985
604.777 5.92906
604.870 6.20017
604.963 6.85189
605.009 7.51720
605.056 8.69817
605.102 11.0028
605.125 13.0328
605.149 16.1912
605.172 21.4531
605.195 30.8136
605.218 49.1342
605.230 64.6322
605.242 86.9412
605.251 111.905
605.261 140.853
605.280 180.762
605.299 150.681
605.319 99.5675
605.339 64.1680
605.359 44.4345
605.379 33.0212
605.399 25.9967
605.419 21.3909
605.439 18.2468
605.480 14.3283
605.520 12.0596
605.560 10.6271
605.641 8.96329
605.721 8.05499
605.802 7.49388
605.962 6.84549
606.123 6.48148
606.284 6.24512
606.606 5.94466
606.928 5.74842
607.250 5.59970
607.894 5.36840
609.181 5.00802
610.469 4.69260
613.044 4.07701
615.620 3.39715
616.907 3.00717
618.195 2.57089
619.482 2.08584
620.770 1.58408
621.414 1.37160
622.058 1.26152
622.380 1.28910
622.702 1.41807
622.863 1.53917
623.023 1.71253
623.184 1.95385
623.345 2.28363
623.506 2.73068
623.667 3.33365
623.828 4.14863
623.989 5.25407
624.150 6.76835
624.311 8.86634
624.472 11.8267
624.633 16.0926
624.794 22.4275
624.955 32.1815
625.116 47.9775
625.277 75.2742
625.357 96.7355
625.438 127.062
625.518 171.454
625.599 239.195
625.679 348.448
625.760 536.060
625.840 881.501
625.921 1544.28
625.995 2567.04
626.070 3335.98
626.145 2773.30
626.220 1797.92
626.276 1271.62
626.333 925.359
626.390 697.480
626.447 543.482
626.560 357.393
626.674 255.033
626.787 192.921
626.901 152.450
627.128 104.408
627.355 77.8263
627.582 61.4362
627.809 50.5259
628.036 42.8430
628.490 32.8807
628.944 26.8068
629.399 22.7652
629.853 19.9017
630.761 16.1331
631.669 13.7650
632.577 12.1250
633.486 10.9013
635.302 9.10267
636.210 8.35546
637.119 7.62361
638.027 6.83909
638.481 6.40552
638.935 5.94812
639.162 5.72833
639.389 5.54974
639.616 5.49220
639.843 5.77710
639.957 6.22712
640.071 7.11707
640.184 8.87010
640.241 10.3388
640.269 11.3059
640.298 12.4752
640.326 13.9089
640.354 15.6752
640.383 17.8709
640.411 20.6292
640.440 24.1366
640.468 28.6594
640.496 34.5878
640.525 42.4770
640.553 53.2919
640.581 68.4765
640.610 90.4977
640.638 123.559
640.667 175.940
640.695 263.340
640.723 417.634
640.738 537.310
640.752 696.670
640.781 1162.82
640.810 1516.70
640.839 1267.87
640.868 829.280
640.891 588.699
640.913 431.199
640.936 327.087
640.958 256.909
641.003 171.929
641.048 125.009
641.093 96.4652
641.138 77.7812
641.228 55.5048
641.317 43.0753
641.407 35.3558
641.497 30.1814
641.587 26.5156
641.766 21.7158
641.946 18.7558
642.125 16.7645
642.305 15.3396
642.664 13.4407
643.023 12.2321
643.382 11.3903
643.741 10.7660
644.459 9.88837
645.177 9.28554
646.613 8.46766
648.050 7.88365
648.768 7.62641
649.486 7.37145
650.204 7.10021
650.563 6.95172
650.922 6.79413
651.102 6.71573
651.281 6.64608
651.461 6.60495
651.640 6.64867
651.730 6.74859
651.820 6.96226
651.909 7.40186
651.999 8.33158
652.089 10.4859
652.134 12.6442
652.179 16.4113
652.224 23.6413
652.246 29.8960
652.268 39.4516
652.280 46.2652
652.291 54.9785
652.302 66.3938
652.313 81.6113
652.325 102.257
652.336 130.717
652.347 170.329
652.358 225.132
652.369 292.768
652.379 372.374
652.400 483.321
652.411 464.697
652.421 403.904
652.442 265.487
652.458 189.699
652.474 140.175
652.490 107.545
652.506 85.4290
652.538 58.6973
652.570 43.9308
652.602 34.9478
652.634 29.0695
652.698 22.0600
652.762 18.1538
652.826 15.7345
652.890 14.1139
652.954 12.9652
653.082 11.4627
653.210 10.5362
653.338 9.91180
653.466 9.46445
653.722 8.86549
653.979 8.48075
654.491 8.00619
655.003 7.71374
655.515 7.50678
656.539 7.21582
657.564 7.00563
658.588 6.83645
660.636 6.56278
664.734 6.13306
668.831 5.76023
672.928 5.38136
674.977 5.16833
677.025 4.91986
679.074 4.60590
680.098 4.40673
681.123 4.16223
682.147 3.85154
682.659 3.66501
683.171 3.46290
683.683 3.28825
683.939 3.26832
684.195 3.40778
684.324 3.61888
684.452 4.03096
684.580 4.83786
684.708 6.49460
684.772 7.97229
684.804 8.98925
684.836 10.2723
684.868 11.9130
684.900 14.0442
684.932 16.8645
684.948 18.6226
684.964 20.6795
684.996 25.9781
685.028 33.5777
685.060 44.9177
685.092 62.7000
685.124 92.3951
685.140 115.024
685.156 146.098
685.172 189.831
685.188 252.889
685.204 345.488
685.220 481.205
685.245 793.436
685.270 1023.31
685.295 845.479
685.320 545.889
685.340 378.390
685.361 271.032
685.381 201.942
685.401 156.003
685.441 101.619
685.481 72.2302
685.521 54.6395
685.562 43.2736
685.642 29.9088
685.722 22.5824
685.803 18.0873
685.964 12.9985
686.124 10.2640
686.285 8.58507
686.607 6.69896
686.768 6.19890
686.928 5.97837
687.089 6.17137
687.250 7.18551
687.330 8.31863
687.411 10.2677
687.451 11.7377
687.491 13.7121
687.511 14.9517
687.531 16.4061
687.551 18.1214
687.572 20.1566
687.592 22.5874
687.612 25.5125
687.632 29.0621
687.652 33.4106
687.672 38.7948
687.692 45.5427
687.712 54.1166
687.732 65.1828
687.752 79.7246
687.773 99.2305
687.793 126.019
687.813 163.804
687.833 218.699
687.853 300.918
687.873 427.224
687.893 621.786
687.922 1036.31
687.950 1348.86
687.979 1125.44
688.007 733.872
688.024 559.850
688.041 434.135
688.075 279.140
688.109 194.472
688.144 144.303
688.178 112.362
688.212 90.8082
688.280 64.3734
688.348 49.3019
688.416 39.8260
688.553 28.8860
688.689 22.9337
688.826 19.2685
688.962 16.8136
689.098 15.0665
689.371 12.7591
689.644 11.3111
689.917 10.3183
690.190 9.59374
690.735 8.60050
691.281 7.94268
692.372 7.09346
693.464 6.51963
694.009 6.27333
694.555 6.03279
695.101 5.78685
695.373 5.66498
695.646 5.56242
695.783 5.53566
695.919 5.55108
696.055 5.65969
696.192 5.99101
696.260 6.33859
696.328 6.93120
696.396 7.98238
696.465 9.97262
696.533 14.1475
696.567 18.0452
696.601 24.4801
696.618 29.3475
696.635 35.9412
696.644 40.2041
696.652 45.2272
696.661 51.2583
696.669 58.5620
696.678 67.6047
696.686 78.6469
696.695 92.4079
696.703 109.723
696.712 131.990
696.720 160.135
696.729 196.122
696.737 241.755
696.748 314.413
696.759 399.773
696.780 518.197
696.791 497.821
696.801 432.256
696.823 282.646
696.847 172.463
696.872 113.622
696.896 80.8273
696.920 61.2050
696.945 48.5442
696.969 39.9835
697.018 29.4021
697.067 23.3352
697.115 19.5241
697.213 15.1239
697.310 12.7326
697.408 11.2665
697.505 10.2878
697.602 9.59362
697.797 8.68049
697.992 8.10982
698.187 7.71945
698.382 7.43478
698.772 7.04347
699.161 6.78277
699.941 6.44486
700.720 6.22379
701.500 6.05976
703.059 5.81771
706.177 5.48264
709.294 5.22489
712.412 4.98981
713.971 4.86899
715.530 4.73713
717.089 4.58097
717.869 4.48572
718.648 4.37080
719.038 4.30291
719.428 4.22625
719.817 4.14059
720.207 4.05147
720.402 4.01321
720.597 3.99222
720.792 4.01648
720.987 4.16138
721.084 4.33930
721.181 4.66578
721.279 5.28178
721.376 6.51747
721.474 9.28161
721.522 12.0007
721.571 16.7167
721.596 20.4418
721.608 22.8422
721.620 25.6971
721.632 29.1815
721.644 33.4466
721.656 38.7278
721.669 45.2905
721.681 53.6993
721.693 64.5643
721.705 78.8464
721.717 97.7875
721.729 123.810
721.742 159.925
721.754 210.597
721.766 280.599
721.788 463.425
721.810 599.134
721.821 574.204
721.832 497.577
721.854 323.280
721.868 245.551
721.881 190.119
721.908 121.781
721.934 84.7889
721.961 63.0883
721.988 49.2904
722.014 40.0274
722.068 28.7543
722.121 22.3627
722.174 18.3788
722.281 13.8148
722.388 11.3609
722.494 9.86678
722.601 8.87681
722.708 8.17954
722.921 7.27191
723.135 6.71264
723.348 6.33564
723.561 6.06474
723.988 5.70076
724.415 5.46558
724.842 5.29891
725.269 5.17279
726.122 4.98969
726.976 4.85761
728.683 4.66514
732.097 4.38809
735.512 4.14994
738.926 3.90308
740.633 3.76356
742.340 3.60178
744.047 3.39961
744.901 3.27274
745.754 3.11897
746.181 3.02924
746.608 2.93062
747.035 2.82723
747.462 2.73828
747.675 2.71881
747.888 2.74585
748.102 2.87938
748.315 3.27450
748.422 3.69011
748.529 4.40478
748.635 5.68948
748.689 6.71602
748.742 8.17006
748.769 9.12999
748.795 10.3007
748.822 11.7429
748.849 13.5324
748.875 15.7991
748.902 18.7037
748.929 22.4914
748.955 27.5102
748.982 34.3733
749.009 44.0001
749.036 57.9776
749.062 79.0427
749.089 112.699
749.115 169.381
749.129 213.009
749.142 272.008
749.155 352.978
749.169 463.354
749.194 765.222
749.220 988.735
749.246 819.017
749.271 530.187
749.296 341.197
749.321 231.586
749.346 166.124
749.371 125.233
749.396 98.0792
749.421 79.3507
749.471 55.7896
749.521 42.1118
749.571 33.4455
749.670 23.4338
749.770 18.0168
749.870 14.7239
749.970 12.5474
750.069 11.0235
750.269 9.05448
750.469 7.85725
750.668 7.06067
750.868 6.49572
751.267 5.75057
751.666 5.28150
752.065 4.95741
752.464 4.71813
753.262 4.38244
754.060 4.15064
755.656 3.82963
757.252 3.59369
758.848 3.39253
762.040 3.01606
765.233 2.60111
766.829 2.35192
768.425 2.05338
769.223 1.87862
770.021 1.68381
770.819 1.47169
771.617 1.26548
772.016 1.19123
772.415 1.17918
772.814 1.31858
773.014 1.50737
773.213 1.84609
773.313 2.10236
773.413 2.44237
773.513 2.89545
773.613 3.50309
773.712 4.32862
773.812 5.46430
773.912 7.05964
774.012 9.35063
774.111 12.7504
774.211 17.9893
774.311 26.5130
774.411 41.3665
774.460 53.1678
774.510 70.0193
774.560 95.0412
774.610 133.951
774.660 198.541
774.710 314.170
774.735 407.668
774.760 540.824
774.785 734.333
774.810 1014.93
774.850 1677.31
774.890 2175.57
774.930 1805.75
774.971 1164.81
775.011 732.932
775.052 487.621
775.093 344.664
775.134 256.337
775.175 198.567
775.215 158.896
775.297 109.587
775.378 81.1735
775.460 63.2849
775.623 42.7445
775.786 31.7069
775.949 25.0255
776.113 20.6264
776.276 17.5537
776.602 13.5984
776.928 11.2002
777.255 9.60869
777.581 8.48220
778.234 6.99951
778.886 6.06715
779.539 5.42288
780.191 4.94647
781.497 4.27474
782.802 3.80509
785.412 3.13335
788.023 2.60075
789.328 2.34625
790.633 2.08477
791.938 1.80763
792.591 1.66475
793.243 1.53177
793.896 1.46073
794.222 1.50828
794.549 1.72437
794.712 1.97416
794.875 2.42006
794.956 2.76724
795.038 3.24532
795.120 3.91626
795.201 4.87985
795.242 5.52223
795.283 6.31182
795.324 7.29292
795.364 8.52729
795.405 10.1029
795.446 12.1480
795.487 14.8557
795.527 18.5152
795.568 23.6280
795.609 31.0076
795.650 42.1277
795.691 59.7713
795.731 89.9670
795.752 113.515
795.772 146.561
795.793 194.380
795.813 265.813
795.833 375.425
795.854 543.196
795.882 889.881
795.910 1144.73
795.938 942.010
795.967 603.575
795.993 388.540
796.020 262.901
796.047 187.724
796.073 140.411
796.127 87.3029
796.180 60.1268
796.234 44.3754
796.287 34.4579
796.394 23.0573
796.501 16.9560
796.608 13.2774
796.715 10.8684
796.822 9.19353
797.035 7.04732
797.249 5.75252
797.463 4.89474
797.677 4.28684
798.104 3.47964
798.532 2.96127
799.387 2.30768
800.242 1.88088
801.097 1.55497
802.807 1.05109
804.518 0.728877
804.945 0.705605
805.373 0.729111
805.800 0.825911
806.014 0.914962
806.228 1.04172
806.442 1.21791
806.655 1.45955
806.869 1.78923
807.083 2.23919
807.297 2.85770
807.510 3.71716
807.724 4.93141
807.938 6.68550
808.152 9.30025
808.366 13.3579
808.579 20.0095
808.793 31.7677
808.900 41.2482
809.007 54.9997
809.114 75.8714
809.221 109.413
809.327 167.739
809.434 280.180
809.488 378.232
809.541 529.014
809.595 769.879
809.648 1159.36
809.714 1895.32
809.780 2451.78
809.846 2029.18
809.912 1293.69
809.990 745.382
810.067 463.858
810.145 311.758
810.223 222.918
810.300 167.008
810.378 129.792
810.533 84.8772
810.688 59.7753
810.844 44.2748
811.154 26.7249
811.465 17.5847
811.620 14.9027
811.775 13.6504
811.930 15.1249
811.969 16.3468
812.008 18.1699
812.047 20.8435
812.066 22.6130
812.086 24.7565
812.105 27.3755
812.125 30.5559
812.144 34.4572
812.163 39.2750
812.183 45.2724
812.202 52.8094
812.222 62.3859
812.241 74.7100
812.260 90.8042
812.280 112.176
812.299 141.098
812.319 181.065
812.338 237.542
812.357 319.089
812.377 438.692
812.396 613.556
812.428 1041.07
812.460 1374.22
812.492 1162.44
812.524 772.106
812.548 559.161
812.572 416.888
812.596 321.189
812.620 255.688
812.668 174.982
812.716 129.501
812.763 101.352
812.811 82.6400
812.907 59.8575
813.003 46.8143
813.099 38.4976
813.290 28.6198
813.482 22.9793
813.673 19.3300
814.056 14.8486
814.440 12.1631
814.823 10.3476
815.589 8.00575
816.355 6.52615
817.121 5.48411
818.654 4.06826
820.186 3.10544
821.719 2.37314
824.784 1.28246
826.316 0.884633
827.082 0.732821
827.848 0.625609
828.232 0.594010
828.615 0.581125
828.998 0.591027
829.381 0.628967
829.764 0.701741
830.147 0.818224
830.530 0.990117
830.913 1.23303
831.297 1.56820
831.680 2.02447
832.063 2.64251
832.446 3.48031
832.829 4.62266
833.212 6.19705
833.595 8.40159
833.978 11.5563
834.361 16.2029
834.744 23.3136
835.128 34.7646
835.511 54.5359
835.894 92.2133
836.085 124.848
836.277 175.379
836.468 258.644
836.660 406.673
836.852 695.201
836.947 941.240
837.043 1297.24
837.197 2129.41
837.350 2766.18
837.504 2301.93
837.657 1475.72
837.789 983.569
837.922 680.420
838.054 491.968
838.186 370.257
838.451 230.318
838.715 156.913
838.980 113.845
839.244 86.4042
839.773 54.5385
840.302 37.1992
840.831 26.5276
841.360 19.3449
841.889 14.1743
842.947 7.27775
843.476 5.13769
843.740 4.48124
843.873 4.30084
844.005 4.25019
844.137 4.36455
844.269 4.69293
844.402 5.30556
844.468 5.74783
844.534 6.30176
844.600 6.98842
844.666 7.83014
844.798 10.1088
844.930 13.4785
845.063 18.4802
845.195 26.0171
845.327 37.6360
845.459 56.2248
845.592 87.4246
845.724 143.549
845.790 188.865
845.856 254.076
845.922 350.908
845.988 499.540
846.054 734.280
846.121 1106.78
846.210 1882.60
846.300 2479.51
846.390 2086.74
846.480 1378.69
846.583 842.511
846.687 554.139
846.791 392.183
846.895 294.234
846.999 230.735
847.103 187.309
847.310 133.100
847.518 101.536
847.726 81.3429
848.141 57.4886
848.557 44.1072
848.972 35.6250
849.803 25.4818
850.634 19.5423
851.465 15.5304
853.127 10.1196
854.788 6.20151
855.619 4.53275
856.450 3.17096
856.866 2.76711
857.073 2.70722
857.281 2.79858
857.385 2.92177
857.489 3.11185
857.593 3.38390
857.696 3.75654
857.800 4.25476
857.904 4.90876
858.008 5.76032
858.112 6.86094
858.216 8.28346
858.320 10.1224
858.424 12.5081
858.527 15.6191
858.631 19.7188
858.735 25.1727
858.839 32.5470
858.943 42.6774
859.047 56.9308
859.150 77.4940
859.254 108.227
859.358 156.003
859.462 234.314
859.566 370.572
859.670 624.634
859.722 830.642
859.774 1116.66
859.872 1899.11
859.970 2501.48
860.068 2105.65
860.167 1391.95
860.245 986.302
860.323 721.679
860.401 548.194
860.479 431.189
860.635 289.846
860.792 211.592
860.948 163.745
861.104 132.233
861.417 94.2784
861.729 72.8220
862.042 59.3071
862.667 43.5233
863.292 34.7277
863.917 29.1628
864.543 25.3274
865.168 22.5184
866.418 18.6518
867.668 16.0786
870.169 12.7543
872.669 10.5576
875.170 8.82331
876.420 7.99665
877.046 7.56319
877.671 7.09586
878.296 6.57157
878.608 6.28341
878.921 5.99130
879.077 5.86122
879.234 5.77128
879.390 5.78352
879.546 6.06194
879.624 6.42964
879.702 7.11327
879.781 8.40293
879.859 10.9508
879.898 13.1512
879.937 16.4846
879.956 18.8103
879.976 21.7535
879.995 25.5504
880.015 30.5321
880.035 37.2377
880.054 46.3792
880.074 59.2356
880.093 77.8886
880.113 106.111
880.132 150.049
880.152 221.209
880.171 337.668
880.196 564.576
880.220 738.420
880.232 711.726
880.245 620.269
880.269 408.565
880.286 299.486
880.303 225.410
880.321 174.724
880.338 139.697
880.372 96.0769
880.407 71.3446
880.441 56.0325
880.476 45.8856
880.545 33.6436
880.614 26.7287
880.683 22.3981
880.821 17.3943
880.959 14.6464
881.097 12.9333
881.235 11.7662
881.373 10.9205
881.648 9.76793
881.924 9.00701
882.476 8.02509
883.028 7.37550
883.580 6.87970
884.683 6.10141
886.890 4.84781
889.097 3.66539
891.304 2.42582
892.408 1.80643
893.511 1.30850
894.063 1.21295
894.339 1.24945
894.615 1.37749
894.891 1.64097
895.029 1.84366
895.167 2.10848
895.305 2.45106
895.443 2.89057
895.581 3.45286
895.719 4.17180
895.857 5.09345
895.994 6.27804
896.270 9.81401
896.546 15.9940
896.684 20.8081
896.822 27.5020
896.960 37.0654
897.098 51.1610
897.236 72.8427
897.374 107.950
897.512 168.936
897.650 284.712
897.719 383.360
897.788 531.097
897.857 758.818
897.926 1110.03
898.023 1858.68
898.120 2434.45
898.217 2039.14
898.315 1330.20
898.417 834.018
898.519 555.306
898.621 394.086
898.724 294.813
898.826 229.929
898.928 185.324
899.133 129.642
899.338 97.3833
899.542 76.9053
899.951 53.0815
900.360 40.0336
900.770 31.9668
901.179 26.5424
901.588 22.6627
902.406 17.4807
903.225 14.1444
904.861 9.92626
906.498 7.09225
907.316 5.88661
908.135 4.74538
908.953 3.66832
909.362 3.20033
909.771 2.89361
910.181 3.09406
910.283 3.33704
910.385 3.73004
910.488 4.34735
910.590 5.31021
910.641 5.98345
910.692 6.83190
910.743 7.91343
910.794 9.29987
910.846 11.1056
910.897 13.4826
910.948 16.6804
910.999 21.0600
911.050 27.2448
911.101 36.2376
911.152 49.9234
911.204 71.8016
911.255 109.429
911.280 138.850
911.306 179.987
911.331 239.713
911.357 328.428
911.383 464.716
911.408 673.129
911.444 1113.47
911.480 1446.23
911.516 1201.99
911.552 776.191
911.576 573.778
911.599 432.993
911.646 265.916
911.693 178.873
911.740 128.957
911.787 97.9137
911.833 77.3269
911.927 52.5285
912.021 38.6394
912.115 30.0082
912.302 20.1384
912.490 14.7849
912.677 11.4731
913.053 7.60542
913.428 5.41444
913.803 4.03486
914.178 3.18769
914.366 2.94547
914.553 2.83639
914.741 2.88363
914.928 3.12508
915.022 3.33565
915.116 3.61831
915.210 3.98479
915.303 4.44887
915.397 5.02912
915.491 5.74678
915.678 7.70714
915.866 10.6386
916.054 15.0302
916.241 21.7099
916.429 32.1182
916.616 48.9353
916.804 77.4984
916.991 129.571
917.085 172.136
917.179 233.915
917.273 326.812
917.367 471.429
917.460 703.754
917.554 1079.04
917.677 1841.77
917.800 2431.58
917.923 2050.86
918.046 1359.33
918.133 1001.80
918.220 756.386
918.307 588.197
918.394 470.700
918.568 323.571
918.742 239.296
918.915 186.583
919.089 151.366
919.437 108.345
919.785 83.7505
920.132 68.1600
920.828 49.8742
921.523 39.6706
922.219 33.2186
922.914 28.7761
923.609 25.5183
925.000 20.9808
926.391 17.7634
927.086 16.3220
927.434 15.5788
927.782 14.7825
928.130 13.9007
928.303 13.4328
928.477 12.9980
928.651 12.8036
928.738 13.0274
928.825 13.8768
928.912 16.3884
928.955 19.1572
928.999 24.2019
929.042 34.1235
929.064 42.6999
929.075 48.5492
929.086 55.7707
929.097 64.9527
929.108 76.6710
929.118 91.8170
929.129 111.442
929.140 137.670
929.151 172.431
929.162 219.585
929.173 281.918
929.185 371.607
929.196 478.126
929.220 637.237
929.232 620.723
929.244 547.771
929.267 371.038
929.286 269.039
929.305 202.044
929.324 157.769
929.342 127.641
929.380 90.8802
929.417 70.3848
929.455 57.7137
929.492 49.3291
929.567 39.1251
929.642 33.2781
929.717 29.5535
929.866 25.1383
930.016 22.6236
930.166 20.9988
930.465 18.9964
930.765 17.7758
931.064 16.9257
931.663 15.7619
932.262 14.9511
932.861 14.3206
934.059 13.3477
936.455 11.9575
938.851 10.9209
943.642 9.32096
948.434 7.97525
953.225 6.61699
955.621 5.84577
958.017 4.94020
960.413 3.80858
961.611 3.12325
962.809 2.36316
963.408 1.98464
964.006 1.66646
964.605 1.54344
964.905 1.65312
965.055 1.78483
965.204 1.99007
965.354 2.29348
965.504 2.72847
965.654 3.34333
965.803 4.20565
965.953 5.41715
966.103 7.12757
966.253 9.57240
966.402 13.1292
966.552 18.4356
966.702 26.6042
966.851 39.7442
967.001 62.1519
967.151 103.579
967.226 138.066
967.301 189.108
967.376 268.030
967.450 395.497
967.525 611.504
967.600 983.557
967.685 1655.90
967.770 2176.68
967.855 1829.41
967.940 1199.46
968.033 744.260
968.126 493.039
968.219 349.539
968.312 261.864
968.405 204.824
968.497 165.713
968.683 116.976
968.869 88.7125
969.055 70.7446
969.426 49.7381
969.798 38.1418
970.169 30.8946
970.541 25.9496
970.912 22.3380
971.655 17.2653
972.027 15.3047
972.398 13.5241
972.770 11.8419
972.955 11.0628
973.141 10.4471
973.327 10.4217
973.420 11.0748
973.513 12.9257
973.606 17.8009
973.629 20.0131
973.652 22.8973
973.675 26.7203
973.698 31.8663
973.710 35.1384
973.722 38.9592
973.733 43.4823
973.745 48.8708
973.757 55.3351
973.768 63.1489
973.791 84.3823
973.815 117.155
973.838 169.874
973.849 208.168
973.861 258.064
973.873 323.224
973.884 407.644
973.912 695.502
973.940 924.962
973.954 898.844
973.968 789.872
973.996 530.658
974.020 373.278
974.043 273.054
974.067 208.584
974.090 165.609
974.138 114.333
974.185 86.1868
974.232 68.9980
974.279 57.7021
974.374 44.0409
974.468 36.2471
974.563 31.2896
974.752 25.3899
974.940 22.0074
975.129 19.7994
975.507 17.0380
975.885 15.3191
976.263 14.0989
977.018 12.3874
977.774 11.1537
978.529 10.1519
980.040 8.44335
981.551 6.77842
982.307 5.86393
983.062 4.85907
983.440 4.33381
983.818 3.83293
984.196 3.46044
984.574 3.52454
984.668 3.69598
984.762 3.97696
984.857 4.40966
984.951 5.05310
985.046 5.99719
985.140 7.37355
985.235 9.39074
985.282 10.7370
985.329 12.3832
985.424 16.9178
985.518 23.9752
985.612 35.4293
985.707 55.0139
985.754 70.1826
985.801 91.1696
985.849 121.062
985.896 165.019
985.943 232.091
985.990 338.672
986.037 514.567
986.085 808.471
986.142 1374.79
986.200 1815.93
986.258 1533.74
986.316 1015.57
986.369 682.475
986.423 479.912
986.476 355.003
986.529 274.482
986.636 181.298
986.743 131.704
986.850 102.093
986.957 82.8852
987.171 60.0461
987.385 47.2724
987.599 39.2762
987.812 33.8597
988.026 29.9745
988.454 24.8066
988.881 21.5431
989.309 19.2970
989.737 17.6544
990.592 15.3973
991.447 13.8987
993.158 11.9688
994.868 10.7055
996.579 9.74518
998.290 8.92867
1000.00 8.16132
1001.71 7.35717
1002.57 6.90523
1003.42 6.38728
1004.28 5.76062
1004.71 5.38992
1005.13 4.98109
1005.56 4.58327
1005.77 4.46725
1005.99 4.57139
1006.09 4.82621
1006.20 5.37497
1006.31 6.50294
1006.36 7.47494
1006.42 8.87658
1006.44 9.83707
1006.47 11.0253
1006.50 12.5083
1006.52 14.3003
1006.55 16.6633
1006.58 19.7181
1006.60 23.7309
1006.63 28.8732
1006.66 36.1381
1006.68 46.3392
1006.71 61.1225
1006.74 82.3636
1006.76 116.777
1006.79 171.001
1006.82 267.995
1006.84 432.189
1006.87 724.763
1006.90 951.123
1006.93 798.991
1006.96 524.239
1006.98 353.644
1007.01 249.023
1007.04 184.118
1007.06 143.402
1007.11 94.1009
1007.16 68.3556
1007.22 52.6981
1007.27 42.7684
1007.37 30.9597
1007.47 24.3153
1007.57 20.2043
1007.78 15.3859
1007.98 12.6734
1008.19 10.9093
1008.60 8.65102
1009.01 7.17231
1009.21 6.65670
1009.42 6.43889
1009.62 7.05870
1009.73 8.23273
1009.83 10.8578
1009.86 11.9543
1009.88 13.3219
1009.91 15.0400
1009.93 17.1237
1009.96 19.8862
1009.98 23.3115
1010.01 27.9734
1010.03 33.9346
1010.06 42.3488
1010.09 54.1120
1010.11 71.0368
1010.14 95.0536
1010.16 133.398
1010.19 192.350
1010.21 294.570
1010.24 460.495
1010.27 785.422
1010.30 1030.53
1010.32 992.799
1010.33 867.145
1010.36 577.755
1010.38 434.785
1010.40 338.160
1010.44 217.339
1010.48 152.582
1010.52 114.585
1010.56 90.4948
1010.60 74.2501
1010.67 54.2780
1010.75 42.8132
1010.83 35.5410
1010.99 27.0276
1011.14 22.3000
1011.30 19.3293
1011.45 17.2995
1011.61 15.8346
1011.92 13.8319
1012.23 12.5294
1012.85 10.8947
1013.48 9.87335
1014.10 9.14297
1015.35 8.09767
1016.59 7.30956
1017.84 6.63082
1020.33 5.35215
1022.82 3.95454
1024.07 3.15729
1025.32 2.31082
1025.94 1.91361
1026.56 1.61531
1026.87 1.55099
1027.19 1.59345
1027.34 1.67489
1027.50 1.81234
1027.65 2.02248
1027.81 2.32538
1027.96 2.75508
1028.12 3.35161
1028.28 4.17328
1028.43 5.29472
1028.59 6.85068
1028.74 9.01539
1028.90 12.0662
1029.05 16.4108
1029.21 22.8312
1029.37 32.5723
1029.52 47.9767
1029.68 73.4917
1029.83 119.548
1029.91 156.887
1029.99 210.904
1030.07 291.783
1030.15 417.447
1030.22 619.272
1030.30 940.870
1030.40 1584.15
1030.50 2083.29
1030.60 1748.78
1030.70 1148.08
1030.82 700.122
1030.93 458.350
1031.04 322.441
1031.16 240.821
1031.27 187.499
1031.38 151.357
1031.61 106.102
1031.84 79.7918
1032.06 62.9148
1032.52 42.6945
1032.97 30.7075
1033.20 26.1551
1033.43 22.1748
1033.65 18.8365
1033.77 17.7061
1033.88 17.5983
1033.99 20.2884
1034.05 24.2690
1034.08 27.5224
1034.11 32.1356
1034.12 35.3748
1034.14 39.0292
1034.15 43.4387
1034.16 48.7866
1034.18 55.8298
1034.19 63.9642
1034.21 74.0364
1034.22 86.6137
1034.24 103.749
1034.25 124.289
1034.26 150.737
1034.28 185.160
1034.29 230.418
1034.31 290.386
1034.32 370.051
1034.33 475.038
1034.37 831.984
1034.40 1127.45
1034.42 1100.87
1034.43 978.190
1034.47 670.918
1034.50 445.374
1034.54 317.282
1034.57 238.140
1034.60 189.299
1034.64 155.469
1034.67 132.290
1034.74 102.188
1034.81 83.6576
1034.88 71.5831
1035.02 56.6469
1035.15 47.8498
1035.29 42.1220
1035.56 34.9969
1035.84 30.6517
1036.11 27.6838
1036.66 23.7693
1037.21 21.2168
1037.76 19.3779
1038.86 16.8238
1039.95 15.0753
1041.05 13.7620
1043.24 11.8059
1045.44 10.2322
1046.54 9.45834
1047.63 8.61416
1048.73 7.60062
1049.28 6.98133
1049.83 6.25530
1050.10 5.84931
1050.38 5.43318
1050.65 5.05809
1050.93 4.89447
1051.06 5.04267
1051.20 5.54922
1051.34 6.79511
1051.41 7.94963
1051.47 9.68671
1051.51 10.9197
1051.54 12.4213
1051.58 14.3115
1051.61 16.7111
1051.65 19.8916
1051.68 23.9178
1051.71 29.2215
1051.75 36.3275
1051.78 46.3783
1051.82 60.1198
1051.85 79.9329
1051.89 109.491
1051.92 157.097
1051.95 232.820
1051.99 361.639
1052.02 584.827
1052.06 995.398
1052.10 1319.18
1052.14 1118.09
1052.18 742.343
1052.22 480.850
1052.26 329.921
1052.30 240.615
1052.34 184.617
1052.38 147.470
1052.42 121.612
1052.50 89.1546
1052.58 69.7232
1052.66 57.3498
1052.82 42.5815
1052.98 34.2974
1053.13 29.1430
1053.29 25.6429
1053.45 23.1251
1053.77 19.7527
1054.09 17.6153
1054.41 16.1291
1054.73 15.0369
1055.36 13.5150
1056.00 12.4850
1057.27 11.1164
1058.55 10.1763
1059.82 9.42661
1062.37 8.12941
1064.92 6.77613
1066.19 5.96859
1067.46 4.99504
1068.10 4.42190
1068.74 3.78351
1069.38 3.09610
1070.01 2.45679
1070.33 2.25839
1070.65 2.30013
1070.81 2.49827
1070.97 2.89928
1071.13 3.61908
1071.21 4.15812
1071.29 4.85056
1071.37 5.76148
1071.45 6.94828
1071.53 8.50060
1071.61 10.5149
1071.69 13.2198
1071.76 16.8025
1071.84 21.7420
1071.92 28.5044
1072.00 38.2187
1072.08 52.2103
1072.16 73.6191
1072.24 106.975
1072.32 163.302
1072.40 262.470
1072.44 342.582
1072.48 455.897
1072.52 618.150
1072.56 842.468
1072.63 1438.98
1072.70 1897.57
1072.77 1600.60
1072.84 1062.66
1072.89 809.998
1072.93 631.829
1073.02 408.971
1073.10 287.326
1073.19 215.735
1073.28 169.334
1073.36 137.883
1073.54 99.1966
1073.71 76.7423
1073.88 62.5468
1074.23 45.8898
1074.58 36.6214
1074.92 30.8337
1075.27 26.8854
1075.61 24.0424
1076.31 20.1978
1077.00 17.7073
1077.69 15.9261
1078.39 14.5493
1079.77 12.3929
1080.47 11.4209
1081.16 10.4048
1081.85 9.23569
1082.20 8.55195
1082.55 7.80107
1082.72 7.42061
1082.89 7.09018
1083.07 6.92242
1083.24 7.23568
1083.41 9.05258
1083.46 10.0742
1083.50 11.4845
1083.54 13.4861
1083.59 16.3666
1083.61 18.3213
1083.63 20.7141
1083.65 23.6647
1083.67 27.1489
1083.70 31.7080
1083.72 37.1986
1083.74 44.5473
1083.76 53.6271
1083.78 66.1417
1083.80 83.0140
1083.83 106.246
1083.85 137.239
1083.87 183.774
1083.89 248.879
1083.91 350.755
1083.93 495.459
1083.97 844.664
1084.00 1122.01
1084.03 959.266
1084.07 644.706
1084.09 491.364
1084.11 381.705
1084.16 250.314
1084.20 178.643
1084.24 136.023
1084.29 108.204
1084.33 89.7896
1084.41 66.9001
1084.50 53.4812
1084.59 45.0095
1084.76 34.9904
1084.93 29.3470
1085.10 25.8055
1085.28 23.3666
1085.45 21.6068
1085.80 19.2114
1086.14 17.6662
1086.49 16.5776
1086.83 15.7635
1087.52 14.6113
1088.21 13.8213
1089.59 12.7693
1090.97 12.0667
1092.35 11.5418
1095.11 10.7624
1097.88 10.1581
1100.64 9.60574
1102.02 9.30688
1102.71 9.13712
1103.40 8.94065
1104.09 8.69640
1104.43 8.54487
1104.78 8.36369
1104.95 8.25938
1105.12 8.14748
1105.30 8.03315
1105.47 7.94282
1105.56 7.93016
1105.64 7.97408
1105.73 8.14019
1105.81 8.59010
1105.90 9.80417
1105.94 11.0896
1105.99 13.4147
1106.03 17.9808
1106.05 22.0821
1106.07 28.1178
1106.09 38.3746
1106.11 46.0050
1106.12 55.1638
1106.13 68.6866
1106.14 87.3365
1106.15 113.251
1106.16 145.234
1106.17 191.206
1106.18 240.560
1106.20 315.665
1106.21 305.379
1106.22 270.141
1106.24 182.616
1106.26 124.303
1106.28 89.0909
1106.30 67.5479
1106.32 53.7276
1106.36 37.8591
1106.40 29.4656
1106.44 24.4719
1106.48 21.2391
1106.56 17.3999
1106.64 15.2530
1106.72 13.9059
1106.80 12.9906
1106.88 12.3383
1107.04 11.4512
1107.20 10.8822
1107.52 10.1832
1107.84 9.74755
1108.16 9.43024
1108.80 8.93324
1109.44 8.46543
1109.76 8.20410
1110.08 7.90973
1110.24 7.74985
1110.40 7.59018
1110.56 7.45595
1110.72 7.42576
1110.80 7.51658
1110.88 7.77017
1110.96 8.35533
1111.03 9.64762
1111.11 12.7502
1111.15 15.8690
1111.19 21.2779
1111.21 25.5004
1111.23 31.4007
1111.24 35.2419
1111.25 39.8814
1111.26 45.5336
1111.27 52.4841
1111.28 61.1172
1111.29 71.9543
1111.30 85.7086
1111.31 103.357
1111.32 126.228
1111.33 156.085
1111.34 195.125
1111.35 240.044
1111.37 316.099
1111.38 406.238
1111.40 530.597
1111.41 514.416
1111.42 450.189
1111.45 304.742
1111.47 217.731
1111.49 160.913
1111.50 123.809
1111.52 99.9186
1111.56 69.3288
1111.60 52.8393
1111.64 42.4717
1111.67 35.8251
1111.75 27.7694
1111.82 23.1457
1111.90 20.2412
1111.97 18.2729
1112.05 16.8789
1112.20 15.0033
1112.34 13.8334
1112.49 13.0335
1112.64 12.4530
1112.94 11.6643
1113.24 11.1541
1113.54 10.7921
1113.84 10.5209
1114.43 10.1331
1115.03 9.86235
1116.22 9.49040
1117.42 9.22835
1118.61 9.01993
1121.00 8.67700
1123.39 8.36507
1124.58 8.20157
1125.78 8.01827
1126.97 7.79181
1127.57 7.64770
1128.17 7.46657
1128.47 7.35493
1128.76 7.22422
1129.06 7.06848
1129.36 6.88643
1129.51 6.78856
1129.66 6.69761
1129.81 6.63885
1129.96 6.68772
1130.03 6.81599
1130.11 7.09815
1130.18 7.68745
1130.26 8.91886
1130.33 11.7772
1130.37 14.5521
1130.41 19.2747
1130.43 23.0241
1130.44 28.2552
1130.45 31.8550
1130.46 35.7659
1130.47 40.4795
1130.48 46.2089
1130.49 54.1116
1130.50 63.0251
1130.51 74.1806
1130.52 88.2765
1130.53 108.529
1130.54 132.231
1130.55 162.687
1130.56 201.491
1130.57 267.730
1130.58 339.348
1130.60 441.498
1130.61 425.728
1130.62 373.533
1130.65 252.365
1130.66 194.122
1130.67 152.044
1130.70 101.532
1130.73 72.7345
1130.76 56.2111
1130.78 45.2332
1130.81 38.0543
1130.86 29.1110
1130.92 23.8436
1130.97 20.5553
1131.08 16.6637
1131.19 14.5128
1131.30 13.1718
1131.41 12.2647
1131.52 11.6139
1131.74 10.7470
1131.95 10.1976
1132.17 9.81815
1132.39 9.53961
1132.83 9.15443
1133.26 8.89786
1134.14 8.56536
1135.01 8.34717
1135.88 8.18392
1137.62 7.93602
1141.11 7.56221
1144.60 7.23581
1148.09 6.90710
1151.58 6.54025
1153.33 6.32258
1154.20 6.19678
1155.07 6.05159
1155.94 5.87354
1156.38 5.76454
1156.81 5.63509
1157.03 5.56076
1157.25 5.47990
1157.47 5.39567
1157.69 5.32227
1157.80 5.30379
1157.90 5.31861
1158.01 5.40838
1158.12 5.67801
1158.23 6.43582
1158.29 7.28413
1158.34 8.83858
1158.40 12.0868
1158.42 14.9928
1158.45 19.6389
1158.48 27.9303
1158.49 34.4430
1158.50 42.8303
1158.51 48.6557
1158.52 55.6934
1158.53 64.2512
1158.53 73.0882
1158.54 85.5689
1158.55 100.923
1158.56 139.151
1158.57 182.944
1158.58 229.685
1158.60 299.441
1158.61 288.358
1158.62 253.812
1158.64 169.412
1158.67 105.598
1158.69 71.0228
1158.71 51.5687
1158.74 40.1970
1158.76 32.4689
1158.78 27.3917
1158.83 20.8964
1158.88 17.1299
1158.93 14.7331
1159.02 11.9323
1159.11 10.3895
1159.21 9.43093
1159.30 8.78422
1159.40 8.32097
1159.58 7.70122
1159.77 7.30924
1159.96 7.03601
1160.15 6.83269
1160.53 6.54387
1160.90 6.34229
1161.65 6.05804
1162.41 5.84607
1163.16 5.66531
1164.67 5.33823
1167.68 4.67523
1170.69 3.87656
1172.19 3.38985
1173.70 2.82555
1175.20 2.17496
1176.71 1.47077
1177.46 1.14967
1178.22 0.940814
1178.59 0.931631
1178.97 1.04133
1179.16 1.16277
1179.34 1.34592
1179.53 1.60899
1179.72 1.97632
1179.91 2.48394
1180.10 3.17189
1180.29 4.10556
1180.47 5.37456
1180.66 7.11962
1180.85 9.51647
1181.04 12.8686
1181.23 17.6429
1181.42 24.6501
1181.60 35.1409
1181.79 51.5467
1181.98 78.5437
1182.17 126.042
1182.26 163.768
1182.36 217.302
1182.45 295.496
1182.54 413.172
1182.64 594.694
1182.73 875.439
1182.87 1488.03
1183.00 1964.14
1183.14 1659.95
1183.27 1095.56
1183.43 668.412
1183.58 439.111
1183.74 310.652
1183.89 233.090
1184.05 182.983
1184.21 148.763
1184.52 106.214
1184.83 81.5707
1185.14 65.8782
1185.77 47.4933
1186.39 37.3160
1187.01 30.9544
1187.64 26.6293
1188.26 23.5019
1189.51 19.2078
1190.76 16.1985
1191.38 14.8357
1191.69 14.1232
1192.00 13.3516
1192.32 12.4940
1192.47 12.0466
1192.63 11.6550
1192.78 11.5745
1192.86 11.9242
1192.94 13.0084
1193.02 15.9821
1193.06 19.1424
1193.10 24.7642
1193.12 29.3418
1193.14 35.4490
1193.15 39.6360
1193.16 44.7214
1193.17 50.9487
1193.17 57.7950
1193.18 67.1750
1193.19 78.9769
1193.20 93.9763
1193.21 111.073
1193.22 135.349
1193.23 163.385
1193.24 203.427
1193.25 249.315
1193.26 334.178
1193.28 427.780
1193.30 566.478
1193.31 551.363
1193.33 488.129
1193.35 336.254
1193.37 225.534
1193.40 160.234
1193.42 120.985
1193.45 96.0711
1193.47 79.3753
1193.50 67.6503
1193.55 52.6286
1193.60 43.6505
1193.65 37.7974
1193.75 30.7629
1193.85 26.7572
1193.95 24.1972
1194.05 22.4261
1194.15 21.1279
1194.35 19.3456
1194.55 18.1677
1194.95 16.6709
1195.35 15.7226
1195.75 15.0412
1196.55 14.0799
1197.35 13.3939
1198.15 12.8572
1199.75 12.0362
1202.95 10.9010
1206.15 10.0815
1209.34 9.38752
1210.94 9.04391
1212.54 8.67072
1214.14 8.21869
1214.94 7.93193
1215.74 7.56991
1216.14 7.34464
1216.54 7.07666
1216.94 6.75173
1217.34 6.35524
1217.54 6.13045
1217.74 5.89935
1217.94 5.69770
1218.14 5.63949
1218.24 5.76287
1218.34 6.12334
1218.44 6.97024
1218.54 8.89480
1218.59 10.6816
1218.62 11.9290
1218.64 13.5111
1218.67 15.5388
1218.69 18.1695
1218.72 21.6319
1218.74 26.2672
1218.77 32.5982
1218.79 41.4531
1218.82 54.1923
1218.84 73.1420
1218.87 102.450
1218.89 149.791
1218.92 229.477
1218.94 358.640
1218.97 614.585
1219.00 810.181
1219.02 785.022
1219.03 685.430
1219.06 459.401
1219.09 308.035
1219.11 219.447
1219.14 162.804
1219.17 127.580
1219.22 85.9734
1219.28 64.1389
1219.33 50.8013
1219.39 42.1550
1219.50 31.9445
1219.61 26.1710
1219.72 22.5847
1219.83 20.1502
1219.93 18.4022
1220.15 16.0694
1220.37 14.6015
1220.59 13.5969
1220.81 12.8698
1221.25 11.8779
1221.68 11.2338
1222.12 10.7771
1222.56 10.4331
1223.43 9.93994
1224.31 9.59400
1226.06 9.11459
1227.81 8.77114
1229.56 8.49231
1233.05 8.01763
1236.55 7.56524
1240.05 7.04746
1241.80 6.71317
1242.68 6.50515
1243.55 6.24945
1244.43 5.91239
1244.86 5.69522
1245.30 5.43104
1245.52 5.27867
1245.74 5.11631
1245.96 4.95883
1246.17 4.85907
1246.28 4.87843
1246.39 5.01149
1246.50 5.38580
1246.61 6.31223
1246.72 8.70278
1246.78 11.2277
1246.80 13.1148
1246.83 15.6801
1246.86 19.4033
1246.89 24.5667
1246.90 28.1347
1246.91 32.1979
1246.93 37.6252
1246.94 43.9448
1246.95 52.5980
1246.97 63.8625
1246.98 78.7737
1246.99 97.2158
1247.01 124.147
1247.02 158.514
1247.04 209.894
1247.05 275.637
1247.07 464.611
1247.10 613.610
1247.11 593.992
1247.13 519.459
1247.15 344.044
1247.17 239.165
1247.20 175.114
1247.22 133.501
1247.24 105.561
1247.28 72.0362
1247.32 53.5897
1247.36 42.3628
1247.41 34.9965
1247.49 26.1626
1247.57 21.1536
1247.66 18.0593
1247.74 15.9654
1247.83 14.4671
1248.00 12.4742
1248.16 11.2330
1248.33 10.3801
1248.50 9.76410
1248.84 8.92125
1249.17 8.36512
1249.85 7.64882
1250.52 7.17043
1251.20 6.79502
1252.54 6.15063
1253.89 5.48356
1254.56 5.09279
1255.24 4.63344
1255.57 4.36970
1255.91 4.08291
1256.25 3.78476
1256.58 3.52807
1256.75 3.46601
1256.92 3.52529
1257.09 3.85765
1257.26 4.83501
1257.34 5.86126
1257.39 6.60444
1257.43 7.57580
1257.47 8.85814
1257.51 10.5727
1257.55 12.9016
1257.60 16.1274
1257.64 20.7040
1257.68 27.3936
1257.72 37.5416
1257.76 53.6737
1257.81 80.8891
1257.83 101.725
1257.85 130.373
1257.87 170.672
1257.89 228.627
1257.91 313.342
1257.93 436.893
1257.97 742.179
1258.00 973.520
1258.04 818.191
1258.07 541.981
1258.10 370.981
1258.13 266.985
1258.16 198.732
1258.19 155.310
1258.25 103.186
1258.31 75.0651
1258.36 58.1666
1258.42 47.1745
1258.54 34.0966
1258.66 26.7974
1258.78 22.2386
1258.90 19.1589
1259.01 16.9708
1259.25 14.0370
1259.48 12.1877
1259.95 9.94956
1260.43 8.59868
1260.90 7.63949
1261.84 6.20157
1262.78 4.94340
1263.25 4.30726
1263.72 3.69077
1263.96 3.43664
1264.19 3.29967
1264.43 3.44545
1264.55 3.73998
1264.66 4.30393
1264.78 5.33528
1264.84 6.12544
1264.90 7.18582
1264.96 8.61802
1265.02 10.5719
1265.08 13.2742
1265.14 17.0033
1265.19 22.4523
1265.25 30.5330
1265.31 42.9685
1265.37 63.0319
1265.43 97.4290
1265.46 124.632
1265.49 161.148
1265.52 214.915
1265.55 290.571
1265.58 401.893
1265.61 565.269
1265.65 957.966
1265.70 1267.54
1265.75 1076.74
1265.79 715.393
1265.83 532.910
1265.86 405.531
1265.92 256.595
1265.99 177.217
1266.05 132.024
1266.11 103.165
1266.18 84.1288
1266.30 60.6323
1266.43 47.2064
1266.56 38.7107
1266.81 28.8066
1267.06 23.2788
1267.32 19.8099
1267.57 17.4194
1267.82 15.6792
1268.33 13.2694
1268.84 11.6425
1269.85 9.39680
1270.87 7.61242
1271.37 6.72150
1271.88 5.77936
1272.14 5.29559
1272.39 4.83828
1272.64 4.49909
1272.90 4.54718
1273.02 4.93902
1273.09 5.31776
1273.15 5.87199
1273.21 6.69545
1273.28 7.87438
1273.34 9.58993
1273.40 12.1132
1273.44 13.8371
1273.47 15.9652
1273.50 18.6111
1273.53 21.8130
1273.56 25.9824
1273.59 31.3201
1273.63 38.2438
1273.66 47.0366
1273.69 59.1455
1273.72 75.7016
1273.75 98.8760
1273.78 130.951
1273.82 179.680
1273.85 251.173
1273.88 365.829
1273.91 538.551
1273.96 920.405
1274.00 1224.10
1274.05 1045.24
1274.09 700.327
1274.13 474.268
1274.17 338.643
1274.21 253.830
1274.26 198.457
1274.34 133.700
1274.42 98.8047
1274.50 77.5728
1274.58 63.8958
1274.75 47.4820
1274.91 38.1656
1275.08 32.3251
1275.24 28.3409
1275.41 25.4664
1275.73 21.6084
1276.06 19.1566
1276.39 17.4623
1276.72 16.2229
1277.38 14.5126
1278.04 13.3820
1279.35 11.9445
1280.66 11.0336
1281.98 10.3752
1284.61 9.40696
1287.24 8.59748
1288.55 8.17304
1289.87 7.68153
1291.18 7.04374
1291.84 6.62414
1292.50 6.09267
1292.83 5.76949
1293.15 5.40152
1293.48 4.99455
1293.81 4.59831
1293.98 4.45757
1294.14 4.44260
1294.30 4.72513
1294.47 5.74460
1294.55 6.87891
1294.59 7.71588
1294.63 8.82091
1294.67 10.2916
1294.72 12.2704
1294.76 14.9705
1294.80 18.7199
1294.84 24.0421
1294.88 31.8049
1294.92 43.5171
1294.96 61.9506
1295.00 92.5321
1295.02 116.188
1295.04 146.649
1295.06 190.742
1295.08 249.563
1295.11 337.115
1295.13 454.587
1295.16 780.977
1295.20 1033.07
1295.22 1001.63
1295.24 875.507
1295.28 586.037
1295.31 382.748
1295.35 266.745
1295.39 196.786
1295.42 152.296
1295.46 122.471
1295.50 101.546
1295.57 74.8147
1295.65 58.9293
1295.72 48.6449
1295.87 36.4215
1296.02 29.5792
1296.16 25.2856
1296.31 22.3720
1296.46 20.2792
1296.76 17.4851
1297.05 15.7270
1297.35 14.5190
1297.65 13.6379
1298.24 12.4341
1298.83 11.6467
1299.42 11.0835
1300.02 10.6564
1301.20 10.0349
1302.39 9.58570
1304.76 8.91510
1307.13 8.33291
1308.31 8.01644
1309.50 7.64020
1310.09 7.41146
1310.68 7.13985
1311.27 6.80404
1311.87 6.37371
1312.16 6.10857
1312.46 5.80470
1312.75 5.46364
1313.05 5.11968
1313.20 4.98697
1313.35 4.94860
1313.50 5.13929
1313.64 5.90828
1313.79 8.29183
1313.83 9.45012
1313.87 11.0167
1313.90 13.1650
1313.94 16.1635
1313.98 20.4423
1314.00 23.3538
1314.01 26.7193
1314.03 31.0955
1314.05 36.2520
1314.07 43.1030
1314.09 51.3722
1314.11 62.6609
1314.12 76.7035
1314.14 96.5302
1314.16 122.113
1314.18 159.668
1314.20 210.003
1314.22 286.184
1314.24 389.010
1314.27 664.702
1314.30 875.503
1314.32 847.295
1314.33 743.966
1314.37 500.748
1314.39 371.093
1314.41 284.819
1314.43 224.706
1314.45 182.060
1314.50 126.989
1314.54 95.8578
1314.59 75.8297
1314.63 62.6970
1314.72 46.4005
1314.81 37.0731
1314.90 31.1638
1315.08 24.2809
1315.25 20.4399
1315.43 18.0474
1315.61 16.4119
1315.79 15.2400
1316.14 13.6655
1316.50 12.6620
1316.85 11.9665
1317.21 11.4552
1317.92 10.7492
1318.63 10.2811
1319.34 9.94314
1320.05 9.68433
1321.47 9.30562
1322.89 9.03330
1325.73 8.64473
1328.57 8.35835
1331.41 8.12063
1337.09 7.70338
1342.77 7.28114
1345.62 7.03675
1348.46 6.74083
1351.30 6.34323
1352.72 6.07282
1354.14 5.71584
1354.85 5.48629
1355.56 5.20668
1356.27 4.85687
1356.98 4.40895
1357.33 4.13886
1357.69 3.83766
1358.04 3.52121
1358.40 3.25937
1358.58 3.21782
1358.75 3.33767
1358.93 3.81965
1359.02 4.32944
1359.11 5.15048
1359.20 6.50745
1359.24 7.50506
1359.29 8.77434
1359.33 10.4810
1359.38 12.7018
1359.42 15.6930
1359.46 19.7961
1359.51 25.7074
1359.55 34.0749
1359.60 46.9063
1359.64 66.5213
1359.69 99.6228
1359.73 156.504
1359.75 201.103
1359.77 263.096
1359.80 350.156
1359.82 471.779
1359.86 801.987
1359.90 1064.62
1359.94 903.748
1359.98 599.120
1360.02 423.380
1360.05 309.165
1360.08 234.797
1360.11 186.070
1360.18 125.446
1360.24 92.5048
1360.31 72.0914
1360.38 58.8803
1360.51 42.8602
1360.64 33.8414
1360.77 28.1828
1360.90 24.3536
1361.03 21.6322
1361.29 18.0022
1361.55 15.7325
1361.82 14.1887
1362.08 13.0769
1362.60 11.5708
1363.12 10.5974
1363.65 9.90516
1364.17 9.37929
1365.22 8.59319
1366.26 7.95751
1366.79 7.63672
1367.05 7.46365
1367.31 7.27900
1367.57 7.09039
1367.70 7.01374
1367.84 6.99234
1367.97 7.15606
1368.03 7.43724
1368.10 8.05072
1368.16 9.50778
1368.20 10.9565
1368.23 13.3461
1368.26 17.8543
1368.29 26.6484
1368.31 35.0501
1368.33 47.5087
1368.33 56.3140
1368.34 67.5478
1368.35 81.8983
1368.36 101.123
1368.37 132.257
1368.38 167.244
1368.40 221.442
1368.41 214.080
1368.42 188.787
1368.44 127.927
1368.46 84.8665
1368.48 60.3877
1368.51 45.2591
1368.53 36.2457
1368.55 29.9927
1368.57 25.8484
1368.61 20.4607
1368.66 17.2893
1368.70 15.2472
1368.79 12.8268
1368.87 11.4695
1368.96 10.6114
1369.13 9.59201
1369.30 9.00182
1369.47 8.60850
1369.82 8.09253
1370.16 7.73938
1370.51 7.45532
1371.19 6.95313
1371.88 6.42141
1372.23 6.11123
1372.57 5.76002
1372.74 5.57437
1372.91 5.39852
1373.09 5.27490
1373.26 5.32799
1373.34 5.52373
1373.43 5.96923
1373.52 6.91051
1373.60 8.91812
1373.64 10.7195
1373.69 13.5100
1373.71 15.5303
1373.73 18.0040
1373.75 21.3768
1373.77 25.6321
1373.80 31.6413
1373.82 39.5377
1373.84 51.2346
1373.86 67.4785
1373.88 93.1259
1373.90 131.318
1373.92 192.191
1373.94 289.928
1373.97 492.477
1374.00 654.631
1374.01 635.608
1374.03 557.597
1374.06 371.771
1374.08 278.321
1374.09 213.068
1374.11 167.811
1374.13 135.839
1374.17 95.4304
1374.21 72.0635
1374.25 57.3806
1374.28 47.5354
1374.36 35.6036
1374.44 28.6654
1374.51 24.2763
1374.66 19.1740
1374.81 16.3249
1374.97 14.5510
1375.12 13.3418
1375.27 12.4676
1375.57 11.2870
1375.87 10.5301
1376.18 9.99769
1376.48 9.60224
1377.08 9.04246
1377.69 8.65754
1378.90 8.13516
1380.11 7.76785
1381.32 7.47049
1383.74 6.94808
1386.16 6.39713
1387.37 6.06411
1388.58 5.65193
1389.79 5.09855
1390.40 4.73584
1391.00 4.28987
1391.31 4.03139
1391.61 3.75578
1391.91 3.49009
1392.21 3.32932
1392.37 3.37370
1392.52 3.62168
1392.67 4.30000
1392.74 4.95333
1392.82 5.95826
1392.90 7.56687
1392.93 8.71087
1392.97 10.1806
1393.01 12.0892
1393.05 14.5998
1393.09 17.9538
1393.12 22.3784
1393.16 28.6734
1393.20 37.6663
1393.24 50.9385
1393.27 70.6551
1393.31 103.065
1393.35 158.250
1393.39 257.950
1393.42 437.228
1393.46 739.168
1393.50 977.881
1393.54 831.765
1393.58 552.999
1393.61 373.055
1393.65 265.440
1393.68 198.034
1393.71 154.020
1393.78 102.091
1393.85 74.7232
1393.92 58.0910
1393.99 47.4485
1394.12 34.7456
1394.26 27.5835
1394.40 23.1322
1394.53 20.0959
1394.67 17.9355
1394.94 15.0431
1395.22 13.2226
1395.49 11.9656
1395.76 11.0399
1396.31 9.74405
1396.86 8.84888
1397.95 7.55877
1399.04 6.45175
1399.59 5.85843
1400.13 5.19350
1400.41 4.82821
1400.68 4.45507
1400.95 4.11594
1401.23 3.95379
1401.36 4.06543
1401.50 4.47666
1401.57 4.88938
1401.64 5.51567
1401.70 6.46874
1401.77 7.92429
1401.84 10.2201
1401.88 11.8080
1401.91 13.8240
1401.94 16.4089
1401.98 19.7622
1402.01 24.1729
1402.05 30.0703
1402.08 38.3876
1402.11 49.7148
1402.15 65.9624
1402.18 90.0317
1402.22 127.051
1402.25 186.406
1402.28 285.401
1402.32 452.898
1402.36 774.628
1402.40 1032.61
1402.44 880.186
1402.48 586.941
1402.52 385.499
1402.56 267.267
1402.61 196.410
1402.65 152.454
1402.69 122.228
1402.73 101.100
1402.81 74.4584
1402.89 58.4452
1402.97 48.2134
1403.13 35.9657
1403.30 29.1082
1403.46 24.8016
1403.62 21.8759
1403.79 19.7715
1404.11 16.9634
1404.44 15.1835
1404.76 13.9565
1405.09 13.0611
1405.74 11.8297
1406.39 11.0183
1407.05 10.4364
1407.70 9.99364
1409.00 9.34818
1410.30 8.88365
1412.91 8.20163
1415.52 7.63496
1416.82 7.34106
1418.12 7.00478
1419.43 6.57371
1420.08 6.29094
1420.73 5.93094
1421.06 5.70865
1421.38 5.44960
1421.71 5.14935
1422.04 4.81925
1422.20 4.66376
1422.36 4.55251
1422.52 4.56814
1422.69 4.93290
1422.85 6.33446
1422.93 8.07619
1422.97 9.49766
1423.01 11.4704
1423.05 14.4135
1423.08 16.4478
1423.10 18.8441
1423.12 21.9889
1423.14 25.7732
1423.16 30.5884
1423.18 36.8017
1423.20 45.4190
1423.22 56.4595
1423.24 71.5222
1423.26 92.5519
1423.28 124.476
1423.30 169.529
1423.32 236.991
1423.34 337.885
1423.37 572.062
1423.40 758.296
1423.43 647.608
1423.46 433.248
1423.50 264.386
1423.54 174.602
1423.57 124.711
1423.61 95.3861
1423.65 75.8699
1423.68 62.5827
1423.76 46.2655
1423.83 36.6685
1423.90 30.6317
1424.05 23.5197
1424.20 19.5405
1424.34 17.0677
1424.49 15.3784
1424.64 14.1720
1424.93 12.5502
1425.22 11.5238
1425.52 10.8136
1425.81 10.2914
1426.40 9.56835
1426.98 9.08525
1428.15 8.45505
1429.33 8.03476
1430.50 7.70915
1432.85 7.16689
1435.19 6.62519
1436.37 6.30740
1437.54 5.91954
1438.71 5.40388
1439.30 5.06524
1439.88 4.64595
1440.18 4.39854
1440.47 4.12910
1440.76 3.85419
1441.06 3.64234
1441.20 3.62533
1441.35 3.76174
1441.50 4.23599
1441.64 5.48648
1441.72 6.74993
1441.79 8.80930
1441.83 10.3489
1441.86 12.3283
1441.90 15.0587
1441.94 18.6875
1441.97 23.8983
1442.01 31.4129
1442.05 42.6216
1442.08 59.4626
1442.12 87.5821
1442.16 134.673
1442.18 173.233
1442.19 223.617
1442.21 293.114
1442.23 388.393
1442.27 664.321
1442.30 876.785
1442.32 849.532
1442.34 741.536
1442.37 494.470
1442.41 314.044
1442.45 214.489
1442.48 154.781
1442.52 118.711
1442.56 94.3006
1442.60 77.8504
1442.67 57.0039
1442.75 44.5814
1442.82 36.7074
1442.97 27.3378
1443.12 22.0974
1443.27 18.8448
1443.42 16.6384
1443.57 15.0517
1443.86 12.9248
1444.16 11.5730
1444.46 10.6298
1444.76 9.92745
1445.36 8.92671
1445.95 8.21565
1447.15 7.14934
1448.34 6.18520
1448.94 5.65161
1449.53 5.03904
1449.83 4.69349
1450.13 4.32807
1450.43 3.96778
1450.73 3.71615
1450.88 3.72430
1451.03 3.95516
1451.17 4.65950
1451.25 5.35825
1451.32 6.44538
1451.40 8.19850
1451.44 9.43054
1451.47 11.0099
1451.51 13.1173
1451.55 15.8144
1451.58 19.3982
1451.62 24.2417
1451.66 31.1360
1451.70 40.6712
1451.73 54.5639
1451.77 75.5395
1451.81 109.720
1451.85 165.183
1451.88 261.736
1451.92 433.803
1451.96 745.138
1452.00 987.155
1452.04 837.565
1452.08 560.127
1452.12 380.220
1452.15 272.051
1452.19 204.046
1452.23 159.484
1452.30 107.217
1452.37 79.0033
1452.44 61.8128
1452.52 50.7693
1452.66 37.5372
1452.80 30.0422
1452.95 25.3614
1453.09 22.1575
1453.24 19.8689
1453.53 16.8017
1453.82 14.8539
1454.10 13.5050
1454.39 12.5134
1454.97 11.1229
1455.55 10.1666
1456.70 8.81691
1457.86 7.70006
1458.44 7.11102
1459.01 6.44085
1459.30 6.05819
1459.59 5.63903
1459.88 5.19412
1460.17 4.78617
1460.32 4.66173
1460.46 4.69107
1460.60 5.07284
1460.75 6.29182
1460.82 7.59915
1460.86 8.54726
1460.89 9.78605
1460.93 11.4178
1460.97 13.5903
1461.00 16.5218
1461.04 20.5435
1461.07 26.1748
1461.11 34.2589
1461.15 46.2235
1461.18 64.6038
1461.22 94.1450
1461.25 144.210
1461.29 233.867
1461.31 304.102
1461.33 399.124
1461.36 689.153
1461.40 915.692
1461.42 889.823
1461.44 779.605
1461.48 524.395
1461.50 395.562
1461.53 304.687
1461.58 195.787
1461.63 138.038
1461.67 104.850
1461.72 83.3292
1461.77 69.0737
1461.87 51.2602
1461.97 40.9742
1462.07 34.4146
1462.27 26.6880
1462.47 22.3541
1462.67 19.6387
1462.86 17.7819
1463.06 16.4361
1463.46 14.6157
1463.85 13.4460
1464.25 12.6263
1464.65 12.0167
1465.44 11.1610
1466.23 10.5799
1467.82 9.80824
1469.40 9.27582
1470.99 8.81935
1471.78 8.57171
1472.18 8.42785
1472.57 8.25824
1472.97 8.04682
1473.17 7.92116
1473.37 7.78655
1473.56 7.67891
1473.66 7.68209
1473.76 7.81490
1473.86 8.32445
1473.91 8.95368
1473.96 10.1530
1474.01 12.7260
1474.03 15.0995
1474.06 18.7329
1474.08 25.1190
1474.11 36.7933
1474.12 46.7644
1474.13 59.9719
1474.15 78.9227
1474.15 91.3014
1474.16 107.652
1474.17 139.774
1474.18 180.526
1474.20 238.350
1474.21 231.621
1474.22 205.858
1474.24 139.387
1474.26 98.6688
1474.28 72.4597
1474.30 56.0165
1474.32 45.2671
1474.36 32.6907
1474.39 25.9160
1474.43 21.8361
1474.47 19.1717
1474.55 15.9800
1474.62 14.1803
1474.70 13.0453
1474.77 12.2721
1474.85 11.7209
1475.00 10.9722
1475.15 10.4982
1475.30 10.1674
1475.46 9.92520
1475.76 9.58723
1476.06 9.36103
1476.67 9.06582
1477.28 8.87091
1477.88 8.72513
1479.09 8.50559
1481.52 8.18382
1483.94 7.90832
1486.37 7.61463
1487.58 7.43729
1488.79 7.21515
1489.40 7.07533
1490.01 6.90554
1490.61 6.69083
1491.22 6.40654
1491.52 6.22553
1491.83 6.01060
1492.13 5.75455
1492.43 5.46023
1492.58 5.31087
1492.73 5.18727
1492.89 5.14774
1493.04 5.35688
1493.11 5.68751
1493.19 6.34008
1493.27 7.61534
1493.34 10.1467
1493.38 12.3661
1493.42 15.7272
1493.44 18.0581
1493.45 21.0105
1493.47 24.7981
1493.49 29.7288
1493.51 36.2559
1493.53 45.0636
1493.55 57.2112
1493.57 74.3830
1493.59 99.3175
1493.61 136.518
1493.63 193.214
1493.64 274.124
1493.67 470.880
1493.70 622.725
1493.72 602.736
1493.73 528.881
1493.76 355.805
1493.78 239.538
1493.81 171.370
1493.84 128.906
1493.86 101.259
1493.91 69.0191
1493.97 51.7002
1494.02 41.1313
1494.07 34.3940
1494.18 26.3283
1494.28 21.7542
1494.38 18.9095
1494.49 16.9763
1494.59 15.5873
1494.80 13.7327
1495.01 12.5713
1495.22 11.7734
1495.43 11.1978
1495.84 10.4166
1496.26 9.91458
1496.68 9.56295
1497.10 9.30183
1497.93 8.93646
1498.76 8.68978
1500.43 8.36739
1502.10 8.15559
1503.77 7.99774
1507.11 7.75983
1510.45 7.56625
1513.78 7.37403
1515.45 7.25871
1516.29 7.18762
1517.12 7.09909
1517.96 6.97790
1518.37 6.89565
1518.79 6.78904
1519.21 6.64572
1519.42 6.55670
1519.62 6.46166
1519.83 6.39357
1519.94 6.41297
1520.04 6.55104
1520.15 7.03930
1520.20 7.61806
1520.25 8.73719
1520.30 11.0855
1520.33 13.2440
1520.35 16.7202
1520.38 22.6568
1520.39 27.2404
1520.41 33.5799
1520.42 42.5521
1520.43 55.5395
1520.44 64.9045
1520.44 74.6636
1520.45 88.5001
1520.46 104.371
1520.47 135.493
1520.48 174.865
1520.50 230.232
1520.51 223.251
1520.52 197.940
1520.54 133.173
1520.56 102.661
1520.57 80.1490
1520.60 53.8342
1520.63 39.2280
1520.65 30.9847
1520.68 25.5627
1520.71 22.0390
1520.76 17.6697
1520.82 15.1032
1520.87 13.4772
1520.98 11.5895
1521.09 10.5332
1521.20 9.87850
1521.42 9.10994
1521.64 8.67978
1521.86 8.40599
1522.29 8.07693
1522.73 7.88438
1523.17 7.75603
1524.05 7.59095
1524.92 7.48440
1525.80 7.40608
1527.55 7.29065
1531.05 7.12681
1534.56 6.99510
1541.57 6.75625
1548.57 6.50914
1555.58 6.21375
1559.09 6.02662
1562.59 5.78808
1566.09 5.45197
1567.84 5.21563
1569.60 4.89585
1570.47 4.68672
1571.35 4.42818
1572.22 4.09976
1573.10 3.67123
1573.54 3.40792
1573.98 3.10846
1574.41 2.78275
1574.85 2.48583
1575.07 2.40597
1575.29 2.46013
1575.51 2.82352
1575.62 3.24135
1575.73 3.93834
1575.84 5.11589
1575.89 5.98272
1575.95 7.09700
1576.00 8.59717
1576.06 10.6091
1576.11 13.3486
1576.17 17.0683
1576.22 22.4300
1576.28 30.2600
1576.33 42.1071
1576.39 60.4141
1576.44 91.4264
1576.49 145.509
1576.52 190.239
1576.55 251.133
1576.58 337.599
1576.60 459.784
1576.65 784.387
1576.70 1037.03
1576.75 881.184
1576.80 588.495
1576.83 423.873
1576.87 316.399
1576.91 244.101
1576.94 194.256
1577.01 132.838
1577.09 98.1832
1577.16 76.7515
1577.23 62.5365
1577.37 45.3178
1577.52 35.5058
1577.66 29.3792
1577.81 25.2245
1577.95 22.2497
1578.24 18.3056
1578.53 15.8535
1578.82 14.1856
1579.11 12.9904
1579.68 11.3901
1580.26 10.3724
1580.84 9.66804
1581.41 9.15118
1582.57 8.43587
1583.72 7.95798
1584.87 7.60750
1586.03 7.33224
1588.33 6.89946
1590.64 6.51753
1591.80 6.30306
1592.37 6.17544
1592.95 6.02185
1593.53 5.82307
1593.81 5.69749
1594.10 5.55086
1594.39 5.39412
1594.54 5.33703
1594.68 5.35065
1594.75 5.42647
1594.82 5.60512
1594.90 5.98921
1594.97 6.81782
1595.04 8.73092
1595.08 10.6158
1595.11 13.8334
1595.15 19.7420
1595.17 24.6109
1595.18 31.7426
1595.19 36.5686
1595.20 42.5687
1595.21 50.1032
1595.22 59.6578
1595.23 71.8825
1595.24 87.6270
1595.25 107.941
1595.26 134.276
1595.27 178.677
1595.28 227.511
1595.30 298.435
1595.31 288.163
1595.32 252.728
1595.35 170.578
1595.37 106.497
1595.40 72.9521
1595.42 53.7407
1595.45 41.9534
1595.47 34.2483
1595.50 28.9396
1595.55 22.2776
1595.60 18.3834
1595.65 15.8878
1595.75 12.9465
1595.85 11.3099
1595.95 10.2851
1596.05 9.58953
1596.15 9.08909
1596.35 8.41986
1596.55 7.99342
1596.75 7.69720
1596.95 7.47833
1597.35 7.17232
1597.75 6.96494
1598.55 6.68796
1599.35 6.49685
1600.15 6.34522
1601.75 6.08892
1603.35 5.83858
1604.15 5.69767
1604.95 5.53208
1605.75 5.31978
1606.15 5.18404
1606.55 5.01793
1606.75 4.92040
1606.95 4.81454
1607.15 4.70616
1607.35 4.62061
1607.45 4.61070
1607.55 4.65816
1607.65 4.83132
1607.75 5.29896
1607.85 6.54391
1607.90 7.87802
1607.95 10.3046
1608.00 15.1080
1608.03 19.3355
1608.04 22.3725
1608.05 25.9058
1608.07 30.8001
1608.08 36.6566
1608.09 45.0249
1608.10 55.3772
1608.12 70.6945
1608.13 90.2828
1608.14 120.017
1608.15 158.575
1608.17 208.732
1608.18 268.967
1608.20 352.661
1608.21 341.483
1608.22 297.803
1608.25 199.895
1608.27 144.444
1608.28 107.642
1608.30 83.2456
1608.32 67.3953
1608.35 47.2092
1608.39 35.8321
1608.42 28.8003
1608.46 24.1380
1608.53 18.4922
1608.60 15.2925
1608.67 13.2775
1608.74 11.9110
1608.81 10.9319
1608.95 9.63532
1609.09 8.82300
1609.23 8.26941
1609.37 7.86863
1609.65 7.32489
1609.93 6.97303
1610.49 6.53321
1611.05 6.25679
1611.61 6.05673
1612.73 5.76025
1613.85 5.52214
1614.97 5.30211
1617.21 4.84183
1618.33 4.57316
1619.46 4.25714
1620.58 3.86997
1621.70 3.37769
1622.26 3.07799
1622.82 2.73831
1623.38 2.36530
1623.94 2.01240
1624.22 1.89964
1624.50 1.91822
1624.64 2.02457
1624.78 2.24399
1624.92 2.64122
1625.06 3.32500
1625.20 4.48621
1625.27 5.34621
1625.34 6.47879
1625.41 7.98360
1625.48 10.0064
1625.55 12.7661
1625.62 16.6011
1625.69 22.0538
1625.76 30.0302
1625.83 42.1193
1625.90 61.2753
1625.97 93.3800
1626.04 151.075
1626.07 197.474
1626.11 263.412
1626.14 358.414
1626.18 494.841
1626.24 846.658
1626.30 1123.85
1626.36 954.404
1626.42 634.911
1626.47 444.425
1626.52 323.940
1626.57 244.331
1626.62 192.147
1626.72 129.005
1626.82 94.6474
1626.92 73.5127
1627.01 59.6644
1627.21 43.1291
1627.41 33.7794
1627.61 27.9444
1627.80 23.9914
1628.00 21.1605
1628.40 17.4041
1628.79 15.0527
1629.19 13.4515
1629.58 12.2958
1630.37 10.7302
1631.16 9.71587
1631.95 8.99430
1632.74 8.44359
1634.32 7.61382
1635.11 7.26346
1635.89 6.91827
1636.68 6.54020
1637.08 6.32041
1637.47 6.06483
1637.67 5.91812
1637.87 5.75917
1638.07 5.59259
1638.26 5.44425
1638.36 5.40295
1638.46 5.42354
1638.56 5.58386
1638.66 6.07037
1638.76 7.44553
1638.81 8.92986
1638.85 11.6368
1638.88 13.8819
1638.90 17.1338
1638.93 22.0029
1638.94 25.2100
1638.95 29.2198
1638.97 34.7749
1638.98 41.4200
1638.99 50.0718
1639.00 61.5070
1639.02 78.3520
1639.03 99.7701
1639.04 129.150
1639.05 171.565
1639.06 227.082
1639.08 291.221
1639.10 385.676
1639.11 375.415
1639.12 330.872
1639.15 221.015
1639.17 157.995
1639.19 116.063
1639.21 88.9642
1639.23 70.8579
1639.27 49.2349
1639.31 37.3790
1639.35 30.1699
1639.39 25.4371
1639.47 19.7481
1639.55 16.5371
1639.63 14.5147
1639.71 13.1400
1639.79 12.1517
1639.95 10.8346
1640.11 10.0012
1640.27 9.42716
1640.43 9.00701
1640.75 8.42951
1641.07 8.04602
1641.71 7.55380
1642.35 7.23459
1642.99 6.99874
1644.27 6.64816
1646.83 6.13495
1649.38 5.68400
1651.94 5.18787
1653.22 4.88648
1654.50 4.51460
1655.78 4.01914
1656.42 3.69682
1657.06 3.30501
1657.38 3.08091
1657.70 2.84619
1658.02 2.62924
1658.34 2.52464
1658.50 2.59759
1658.66 2.87086
1658.74 3.14253
1658.82 3.56243
1658.90 4.20608
1658.98 5.19724
1659.06 6.74749
1659.14 9.23823
1659.18 11.0429
1659.22 13.4039
1659.26 16.5402
1659.30 20.7830
1659.34 26.6487
1659.38 34.9732
1659.42 47.1656
1659.46 65.7193
1659.50 95.2838
1659.54 144.997
1659.58 233.371
1659.62 389.691
1659.66 665.669
1659.70 880.439
1659.74 745.719
1659.78 496.013
1659.81 377.267
1659.84 292.064
1659.89 189.300
1659.94 133.206
1659.99 99.9012
1660.04 78.2860
1660.09 63.9669
1660.19 46.2663
1660.30 35.9855
1660.40 29.5305
1660.60 21.9469
1660.81 17.7587
1661.01 15.1456
1661.22 13.3744
1661.42 12.0999
1661.83 10.3915
1662.24 9.29555
1662.65 8.52604
1663.06 7.95000
1663.88 7.11832
1664.70 6.51647
1666.34 5.58925
1667.98 4.72369
1668.80 4.23547
1669.62 3.66754
1670.03 3.34390
1670.44 2.99576
1670.85 2.64416
1671.26 2.37340
1671.46 2.34708
1671.67 2.50893
1671.77 2.72222
1671.87 3.07967
1671.98 3.66698
1672.08 4.60109
1672.18 6.12465
1672.28 8.61090
1672.34 10.4786
1672.39 12.9026
1672.44 16.1494
1672.49 20.5765
1672.54 26.8884
1672.59 35.7748
1672.64 48.9045
1672.69 69.0770
1672.75 101.580
1672.80 156.985
1672.85 257.221
1672.90 444.664
1672.95 756.165
1673.00 1006.16
1673.05 859.103
1673.10 572.207
1673.16 346.311
1673.22 228.134
1673.28 161.283
1673.34 121.788
1673.41 95.9128
1673.47 78.5652
1673.59 56.8066
1673.71 44.2070
1673.83 36.1775
1674.07 26.7524
1674.31 21.5190
1674.55 18.2392
1674.80 16.0071
1675.04 14.3996
1675.52 12.2187
1676.01 10.7998
1676.49 9.78148
1676.97 8.99241
1677.94 7.74747
1678.42 7.18582
1678.91 6.60689
1679.39 5.96499
1679.63 5.61671
1679.87 5.28245
1680.00 5.15375
1680.12 5.10554
1680.24 5.24722
1680.36 5.85637
1680.48 7.74352
1680.54 9.90377
1680.57 11.5681
1680.60 13.8697
1680.63 17.2479
1680.66 22.0111
1680.69 29.1347
1680.71 34.0365
1680.72 40.2139
1680.74 48.0972
1680.75 58.2970
1680.77 71.6932
1680.78 89.5681
1680.80 113.801
1680.81 147.117
1680.83 193.303
1680.84 256.958
1680.87 442.871
1680.90 587.829
1680.92 571.720
1680.93 500.995
1680.96 337.956
1680.98 257.607
1681.00 200.228
1681.04 130.453
1681.07 92.9142
1681.11 70.8030
1681.15 56.7294
1681.19 47.2028
1681.26 35.5438
1681.34 28.6953
1681.41 24.3303
1681.57 19.2140
1681.72 16.3298
1681.87 14.5190
1682.02 13.2682
1682.17 12.3640
1682.47 11.1294
1682.78 10.3239
1683.38 9.31923
1683.99 8.69927
1684.60 8.26447
1685.81 7.66757
1687.02 7.25064
1688.23 6.92391
1690.65 6.40064
1693.08 5.94035
1694.29 5.70433
1695.50 5.44439
1696.71 5.13081
1697.32 4.93614
1697.92 4.69819
1698.23 4.55547
1698.53 4.39222
1698.83 4.20605
1699.14 4.00365
1699.29 3.90799
1699.44 3.83847
1699.59 3.84179
1699.74 4.04512
1699.82 4.32373
1699.89 4.85055
1699.97 5.85404
1700.04 7.81557
1700.08 9.52453
1700.12 12.1076
1700.16 16.1691
1700.18 19.0864
1700.20 22.6657
1700.21 27.6460
1700.23 34.3920
1700.25 43.7459
1700.27 57.0661
1700.29 76.6016
1700.31 106.137
1700.33 151.926
1700.35 218.520
1700.37 369.769
1700.40 490.751
1700.41 474.690
1700.43 417.400
1700.45 277.339
1700.48 198.687
1700.50 146.823
1700.52 112.638
1700.54 90.3708
1700.58 61.8328
1700.62 46.3188
1700.66 36.5609
1700.70 30.2792
1700.79 22.5981
1700.87 18.2637
1700.95 15.5407
1701.04 13.6965
1701.12 12.3762
1701.28 10.6283
1701.45 9.53294
1701.62 8.78580
1701.78 8.24422
1702.11 7.50988
1702.45 7.03096
1703.11 6.42917
1703.77 6.04871
1704.44 5.77117
1705.77 5.35851
1708.42 4.72733
1711.08 4.12058
1713.73 3.40384
1715.06 2.96216
1716.39 2.43671
1717.72 1.81707
1718.38 1.49683
1719.04 1.24806
1719.37 1.21333
1719.71 1.32569
1719.87 1.48119
1720.04 1.74533
1720.20 2.17273
1720.37 2.85229
1720.54 3.93557
1720.62 4.70655
1720.70 5.69633
1720.79 6.98014
1720.87 8.66720
1720.95 10.9207
1721.03 13.9929
1721.12 18.2898
1721.20 24.4975
1721.28 33.8466
1721.37 48.7141
1721.45 74.1410
1721.53 122.147
1721.57 163.821
1721.62 225.551
1721.66 322.015
1721.70 474.395
1721.80 981.870
1721.85 806.436
1721.90 503.936
1721.95 306.849
1722.00 194.972
1722.05 130.418
1722.10 91.9029
1722.15 66.8915
1722.20 50.9100
1722.25 40.3598
1722.30 34.2079
1722.33 32.4554
1722.35 31.6197
1722.38 31.7439
1722.40 32.9236
1722.43 35.3184
1722.45 39.1703
1722.48 44.8329
1722.50 52.4429
1722.52 63.3370
1722.55 78.2914
1722.57 98.8250
1722.60 125.844
1722.62 164.731
1722.65 219.179
1722.67 295.586
1722.70 396.711
1722.75 720.390
1722.80 984.562
1722.85 860.778
1722.90 600.045
1722.97 382.590
1723.03 262.320
1723.09 193.013
1723.15 150.548
1723.21 121.823
1723.27 101.714
1723.40 76.0267
1723.52 60.3501
1723.64 50.0618
1723.89 37.4197
1724.14 30.0110
1724.38 25.1984
1724.88 19.3682
1725.37 15.9691
1725.86 13.7520
1726.85 11.0101
1727.84 9.35075
1728.83 8.20211
1730.80 6.59844
1732.77 5.33751
1733.76 4.71083
1734.75 4.02755
1735.73 3.24033
1736.23 2.80548
1736.72 2.38925
1736.97 2.23569
1737.22 2.19467
1737.46 2.41907
1737.59 2.73280
1737.71 3.29322
1737.83 4.27508
1737.96 5.97042
1738.02 7.27038
1738.08 8.99461
1738.14 11.3915
1738.20 14.6743
1738.26 19.4262
1738.33 26.4078
1738.39 37.0394
1738.45 53.6318
1738.51 81.9499
1738.57 132.074
1738.60 173.062
1738.63 231.542
1738.66 316.157
1738.69 433.494
1738.75 739.080
1738.80 985.873
1738.85 840.562
1738.91 557.934
1738.96 375.211
1739.00 263.876
1739.05 195.208
1739.10 150.886
1739.20 99.6945
1739.30 72.6818
1739.40 56.3573
1739.49 45.8657
1739.69 33.2971
1739.88 26.2583
1740.08 21.8419
1740.27 18.8443
1740.47 16.6894
1740.86 13.8064
1741.25 11.9785
1741.64 10.7097
1742.03 9.77190
1742.81 8.45845
1743.59 7.56044
1745.15 6.33842
1746.71 5.46537
1748.27 4.74011
1751.39 3.42917
1752.95 2.77193
1754.52 2.09590
1756.08 1.42430
1757.64 0.878578
1758.03 0.801435
1758.42 0.771756
1758.81 0.810587
1759.20 0.949390
1759.59 1.23658
1759.78 1.45675
1759.98 1.74411
1760.17 2.11468
1760.37 2.58896
1760.76 3.96259
1761.15 6.20048
1761.54 9.88537
1761.93 16.1638
1762.32 27.4219
1762.51 36.4180
1762.71 49.2056
1762.90 67.9316
1763.10 96.3596
1763.29 141.421
1763.49 216.512
1763.68 348.175
1763.88 584.885
1764.09 1005.18
1764.30 1344.14
1764.51 1148.29
1764.72 765.505
1764.90 530.112
1765.08 381.635
1765.26 286.414
1765.44 223.743
1765.80 149.287
1766.17 108.738
1766.53 84.1498
1766.89 68.0108
1767.61 48.5506
1768.33 37.4544
1769.05 30.3357
1769.78 25.3511
1770.50 21.6004
1771.94 16.0001
1772.66 13.6162
1773.39 11.2395
1774.11 8.68049
1774.47 7.30274
1774.83 5.94766
1775.19 5.06666
1775.37 5.32754
1775.46 5.89354
1775.55 6.98249
1775.64 8.95172
1775.69 10.4181
1775.73 12.3511
1775.78 14.9067
1775.82 18.3052
1775.87 22.8634
1775.91 29.0469
1775.96 37.7798
1776.00 49.7925
1776.05 66.9889
1776.09 92.2302
1776.14 130.349
1776.18 189.669
1776.23 284.351
1776.27 435.913
1776.34 775.508
1776.40 1050.62
1776.46 908.981
1776.53 624.176
1776.59 413.928
1776.66 292.638
1776.73 219.559
1776.79 172.946
1776.86 141.527
1776.92 119.326
1777.06 90.6358
1777.19 73.1824
1777.32 61.7818
1777.59 47.8781
1777.85 39.7863
1778.11 34.5459
1778.64 28.0896
1779.17 24.1276
1779.70 21.2170
1779.96 19.8863
1780.10 19.2152
1780.23 18.5331
1780.36 17.8887
1780.43 17.6549
1780.49 17.6283
1780.56 18.1982
1780.59 19.0437
1780.62 20.7420
1780.66 24.2279
1780.69 31.8737
1780.71 39.3105
1780.72 50.5596
1780.74 70.4133
1780.75 84.1264
1780.76 103.142
1780.77 133.050
1780.78 171.990
1780.80 235.429
1780.81 233.673
1780.82 210.552
1780.84 151.547
1780.86 118.753
1780.88 95.0725
1780.89 78.7549
1780.91 67.8840
1780.94 53.1005
1780.97 44.7260
1781.00 39.2016
1781.03 35.5482
1781.09 30.9176
1781.16 28.1001
1781.22 26.2623
1781.34 23.9439
1781.47 22.5293
1781.59 21.5526
1781.84 20.2403
1782.09 19.3510
1782.34 18.6761
1782.84 17.6649
1783.84 16.2835
1784.84 15.3066
1786.84 13.9253
1788.84 12.9489
1792.85 11.5915
1796.85 10.6388
1800.85 9.87982
1804.85 9.18288
1806.85 8.79997
1807.85 8.57620
1808.85 8.30744
1809.85 7.95234
1810.35 7.71551
1810.85 7.40989
1811.10 7.21919
1811.35 6.99415
1811.60 6.72768
1811.85 6.42090
1811.97 6.26332
1812.10 6.12625
1812.22 6.06357
1812.35 6.22397
1812.47 7.07256
1812.53 8.19798
1812.60 10.4246
1812.63 12.4087
1812.66 15.2989
1812.69 19.7627
1812.71 23.0257
1812.72 26.9517
1812.74 32.4069
1812.75 39.6913
1812.77 49.6037
1812.78 62.3683
1812.80 81.4803
1812.82 107.081
1812.83 146.680
1812.85 200.661
1812.86 267.979
1812.87 343.564
1812.90 461.962
1812.91 450.001
1812.93 398.679
1812.95 269.850
1812.99 168.235
1813.02 114.932
1813.05 84.5653
1813.08 65.9697
1813.11 53.4917
1813.14 45.1949
1813.20 34.7286
1813.27 28.4847
1813.33 24.5286
1813.45 19.7857
1813.58 17.1202
1813.70 15.4359
1813.83 14.2838
1813.95 13.4493
1814.20 12.3246
1814.45 11.6022
1814.70 11.0978
1814.95 10.7253
1815.45 10.2032
1815.95 9.85062
1816.95 9.38683
1817.95 9.07840
1818.95 8.84503
1820.95 8.48729
1824.94 7.94004
1828.94 7.44686
1832.94 6.91345
1834.94 6.60080
1836.93 6.22797
1838.93 5.74720
1839.93 5.43652
1840.93 5.04594
1841.93 4.52535
1842.43 4.18997
1842.93 3.78900
1843.18 3.56404
1843.43 3.33384
1843.68 3.13134
1843.93 3.06005
1844.05 3.16203
1844.18 3.47744
1844.30 4.22922
1844.37 4.91756
1844.43 5.94449
1844.49 7.55324
1844.55 10.0580
1844.58 11.9121
1844.62 14.2454
1844.65 17.3078
1844.68 21.3943
1844.71 27.1663
1844.74 34.9978
1844.77 46.2192
1844.80 62.8315
1844.83 88.3783
1844.86 129.366
1844.90 197.846
1844.93 314.082
1844.96 535.676
1845.00 715.150
1845.04 610.703
1845.07 406.525
1845.10 290.567
1845.13 214.160
1845.16 163.842
1845.19 130.708
1845.25 88.9085
1845.30 66.0375
1845.36 51.7438
1845.42 42.4694
1845.53 31.2223
1845.65 24.7832
1845.76 20.7242
1845.99 15.9933
1846.22 13.3373
1846.45 11.6563
1846.68 10.4838
1846.91 9.61870
1847.37 8.39354
1847.83 7.53141
1848.75 6.26123
1849.66 5.16369
1850.12 4.59286
1850.58 3.98655
1851.04 3.39979
1851.27 3.21292
1851.50 3.31335
1851.62 3.62821
1851.73 4.32501
1851.79 4.92357
1851.85 5.76709
1851.90 6.98014
1851.96 8.74627
1852.02 11.4234
1852.07 15.4483
1852.10 18.3066
1852.13 21.8111
1852.16 26.4809
1852.19 32.3640
1852.22 40.4535
1852.25 51.4604
1852.28 66.7855
1852.30 87.7884
1852.33 119.566
1852.36 165.633
1852.39 239.036
1852.42 348.142
1852.46 597.175
1852.50 792.682
1852.54 677.035
1852.58 455.165
1852.62 300.787
1852.67 209.228
1852.71 153.985
1852.75 118.874
1852.79 95.3538
1852.83 78.8616
1852.91 57.8023
1852.99 45.2863
1853.08 37.1757
1853.24 27.5518
1853.40 22.0888
1853.57 18.6467
1853.89 14.5335
1854.22 12.1375
1854.55 10.5312
1855.20 8.34476
1855.86 6.67151
1856.18 5.88484
1856.51 5.12169
1856.84 4.52655
1857.00 4.49448
1857.17 5.02518
1857.25 5.76775
1857.33 7.15730
1857.37 8.24975
1857.41 9.74795
1857.45 11.8229
1857.49 14.6536
1857.53 18.7879
1857.57 24.8460
1857.62 33.9977
1857.66 48.3617
1857.70 72.0028
1857.74 113.200
1857.76 146.198
1857.78 189.521
1857.80 249.242
1857.82 331.051
1857.86 576.103
1857.90 771.626
1857.92 751.117
1857.94 661.978
1857.98 448.131
1858.03 277.350
1858.08 185.561
1858.13 134.037
1858.17 103.325
1858.22 82.8779
1858.27 68.8490
1858.36 51.4100
1858.46 41.0635
1858.55 34.4617
1858.74 26.5758
1858.94 22.0846
1859.13 19.2356
1859.32 17.2553
1859.51 15.8116
1859.89 13.8219
1860.27 12.5041
1861.03 10.8173
1861.79 9.72290
1862.56 8.90118
1864.08 7.58549
1865.60 6.32073
1866.37 5.59942
1867.13 4.75510
1867.51 4.27215
1867.89 3.75402
1868.27 3.23214
1868.65 2.83349
1868.84 2.79920
1869.03 3.04350
1869.13 3.36092
1869.23 3.88813
1869.32 4.73656
1869.42 6.08318
1869.51 8.25525
1869.56 9.80338
1869.61 11.7434
1869.65 14.3010
1869.70 17.5663
1869.75 21.9702
1869.80 27.7480
1869.84 35.7989
1869.89 47.0551
1869.94 63.1980
1869.99 86.4468
1870.04 122.584
1870.08 178.387
1870.13 271.341
1870.18 421.010
1870.24 733.193
1870.30 984.073
1870.36 844.531
1870.42 570.397
1870.47 404.506
1870.53 296.955
1870.58 227.059
1870.63 180.092
1870.73 123.578
1870.83 92.2921
1870.93 73.1080
1871.04 60.4198
1871.24 45.0843
1871.44 36.2811
1871.65 30.6895
1871.85 26.8617
1872.05 24.1053
1872.46 20.3874
1872.87 18.0248
1873.28 16.3902
1873.68 15.1912
1874.50 13.5421
1875.31 12.4537
1876.13 11.6699
1876.94 11.0717
1878.57 10.1945
1880.20 9.55562
1883.46 8.59221
1886.72 7.74389
1888.35 7.27794
1889.97 6.72060
1890.79 6.38082
1891.60 5.97698
1892.42 5.47857
1893.23 4.84240
1893.64 4.45340
1894.05 4.01088
1894.45 3.52148
1894.86 3.04456
1895.07 2.87649
1895.27 2.85916
1895.47 3.19888
1895.58 3.64096
1895.68 4.40456
1895.78 5.71912
1895.88 7.97262
1895.93 9.66671
1895.98 11.9314
1896.03 14.9974
1896.08 19.1179
1896.13 24.9930
1896.19 33.4303
1896.24 45.9070
1896.29 65.0271
1896.34 95.6142
1896.39 147.041
1896.44 237.967
1896.49 398.267
1896.55 687.292
1896.60 923.532
1896.66 795.637
1896.71 536.603
1896.76 366.133
1896.81 262.731
1896.86 196.786
1896.91 154.611
1897.01 104.699
1897.11 77.9873
1897.21 61.6715
1897.31 51.0860
1897.52 38.2728
1897.72 31.0119
1897.92 26.4162
1898.12 23.2773
1898.32 21.0110
1898.72 17.9764
1899.12 16.0482
1899.53 14.7181
1899.93 13.7454
1900.73 12.4150
1901.54 11.5421
1902.34 10.9192
1903.14 10.4474
1904.75 9.76611
1906.36 9.28215
1909.58 8.58983
1912.79 8.04737
1914.40 7.78506
1916.01 7.50223
1917.62 7.16205
1918.42 6.94733
1919.23 6.67588
1919.63 6.50641
1920.03 6.30313
1920.43 6.05246
1920.83 5.73533
1921.04 5.54544
1921.24 5.33435
1921.44 5.11250
1921.64 4.92582
1921.74 4.89060
1921.84 4.95988
1921.94 5.26244
1922.04 6.09935
1922.14 8.35989
1922.19 10.7366
1922.22 12.5372
1922.24 14.9763
1922.27 18.5041
1922.29 23.3319
1922.32 30.3537
1922.33 35.2843
1922.34 40.9142
1922.36 48.5421
1922.37 57.4381
1922.38 69.7668
1922.39 84.4822
1922.41 105.347
1922.42 130.753
1922.43 167.236
1922.44 214.050
1922.47 364.819
1922.50 491.898
1922.52 478.367
1922.53 422.193
1922.56 285.264
1922.59 192.684
1922.61 136.027
1922.64 101.606
1922.67 80.2509
1922.70 65.2567
1922.72 54.7221
1922.78 41.4225
1922.84 33.3245
1922.89 28.1533
1923.00 21.9074
1923.11 18.3899
1923.22 16.1714
1923.33 14.6592
1923.45 13.5687
1923.67 12.1091
1923.89 11.1809
1924.11 10.5393
1924.33 10.0705
1924.78 9.42215
1925.22 8.99213
1926.11 8.44210
1927.00 8.08692
1927.88 7.82387
1929.66 7.42209
1931.43 7.08078
1933.21 6.72215
1934.09 6.50118
1934.54 6.36639
1934.98 6.20370
1935.43 5.99602
1935.65 5.86917
1935.87 5.72888
1936.09 5.60040
1936.20 5.57883
1936.31 5.66323
1936.42 6.06895
1936.48 6.59879
1936.53 7.64113
1936.59 9.93455
1936.62 12.0934
1936.65 15.4731
1936.67 21.5188
1936.69 26.2565
1936.70 32.3325
1936.71 41.5911
1936.73 55.1636
1936.74 64.2698
1936.74 75.4219
1936.76 104.577
1936.77 138.051
1936.78 176.720
1936.80 234.206
1936.81 228.530
1936.82 202.131
1936.84 136.241
1936.86 104.349
1936.87 81.0278
1936.90 53.9281
1936.93 39.0415
1936.96 30.6542
1936.99 25.1622
1937.02 21.5865
1937.08 17.0974
1937.14 14.5141
1937.20 12.8700
1937.32 10.9475
1937.43 9.86147
1937.55 9.17549
1937.79 8.36367
1938.02 7.89331
1938.26 7.58425
1938.73 7.18867
1939.20 6.93135
1939.67 6.73898
1940.61 6.44167
1942.49 5.95879
1944.37 5.46637
1946.26 4.85663
1947.20 4.46422
1948.14 3.97342
1948.61 3.67647
1949.08 3.33776
1949.55 2.95500
1950.02 2.55515
1950.26 2.38152
1950.49 2.28313
1950.73 2.37655
1950.84 2.57737
1950.96 2.96763
1951.08 3.68802
1951.20 4.98881
1951.26 5.99866
1951.31 7.37825
1951.37 9.28789
1951.43 11.9233
1951.49 15.7713
1951.55 21.4673
1951.61 30.2041
1951.67 43.9224
1951.73 67.5266
1951.78 110.600
1951.81 146.398
1951.84 196.076
1951.87 268.002
1951.90 371.794
1951.95 637.278
1952.00 847.450
1952.05 724.162
1952.10 485.550
1952.14 347.039
1952.18 255.620
1952.22 195.382
1952.25 155.401
1952.33 105.480
1952.41 78.0479
1952.49 60.9840
1952.56 49.8603
1952.72 36.3801
1952.87 28.6797
1953.03 23.8478
1953.18 20.5354
1953.34 18.1662
1953.65 14.9826
1953.96 12.9680
1954.26 11.5713
1954.57 10.5389
1955.19 9.08596
1955.81 8.07446
1957.05 6.60336
1958.28 5.33826
1958.90 4.66914
1959.52 3.93179
1959.83 3.53622
1960.14 3.14311
1960.45 2.80677
1960.76 2.69984
1960.91 2.87985
1961.07 3.40990
1961.14 3.91178
1961.22 4.65473
1961.30 5.76163
1961.37 7.42054
1961.45 9.98417
1961.53 13.9379
1961.61 20.3146
1961.68 31.0996
1961.72 39.4437
1961.76 50.9033
1961.80 67.0181
1961.84 89.5868
1961.88 123.904
1961.92 174.950
1961.95 257.117
1961.99 383.049
1962.05 658.881
1962.10 884.317
1962.15 761.112
1962.21 511.883
1962.27 323.993
1962.33 219.155
1962.39 158.755
1962.45 121.545
1962.51 97.1360
1962.57 80.2643
1962.69 58.9985
1962.81 46.4930
1962.93 38.4327
1963.17 28.8870
1963.41 23.4915
1963.65 20.0910
1963.89 17.7491
1964.13 16.0538
1964.60 13.7467
1965.08 12.2432
1966.04 10.3589
1967.00 9.16759
1967.96 8.28767
1969.87 6.89828
1971.79 5.56869
1972.75 4.81028
1973.71 3.92615
1974.19 3.42648
1974.66 2.89702
1975.14 2.38192
1975.62 2.03866
1975.86 2.07399
1976.10 2.44498
1976.22 2.85924
1976.34 3.52396
1976.46 4.56524
1976.58 6.17037
1976.64 7.29381
1976.70 8.70607
1976.82 12.7633
1976.94 19.4652
1977.06 30.9362
1977.12 39.8784
1977.18 52.2539
1977.24 69.7952
1977.30 95.3575
1977.36 133.796
1977.42 193.551
1977.48 289.173
1977.54 439.843
1977.62 762.421
1977.70 1026.87
1977.78 885.112
1977.86 597.207
1977.95 385.165
1978.04 265.203
1978.12 193.821
1978.21 149.715
1978.30 120.123
1978.38 99.7423
1978.55 73.6606
1978.73 58.1960
1978.90 48.1727
1979.25 36.2057
1979.59 29.4495
1979.94 25.1697
1980.28 22.2375
1980.63 20.1114
1981.32 17.2426
1982.01 15.3972
1982.71 14.1068
1983.40 13.1503
1984.78 11.8087
1986.16 10.8951
1988.93 9.66674
1991.70 8.78632
1994.47 7.98861
1995.85 7.54418
1997.23 6.99185
1997.93 6.63263
1998.62 6.17069
1998.96 5.88084
1999.31 5.53615
1999.66 5.12588
2000.00 4.66745
2000.14 4.49364
2000.28 4.37725
2000.43 4.41429
2000.57 4.85767
2000.71 6.48015
2000.78 8.42379
2000.81 9.95245
2000.85 12.0899
2000.89 15.2410
2000.92 19.7403
2000.96 26.7621
2000.97 31.6674
2000.99 37.5289
2001.01 45.4860
2001.03 55.9067
2001.05 69.7746
2001.06 87.3429
2001.08 112.729
2001.10 145.892
2001.12 194.936
2001.13 259.194
2001.17 447.074
2001.20 602.318
2001.22 588.449
2001.23 519.350
2001.27 350.296
2001.30 252.239
2001.32 189.455
2001.35 147.432
2001.37 118.538
2001.43 82.4695
2001.48 62.5569
2001.53 49.9820
2001.58 41.7763
2001.69 31.7349
2001.79 25.9230
2001.90 22.2603
2002.00 19.7274
2002.11 17.9141
2002.31 15.4714
2002.52 13.9194
2002.73 12.8487
2002.94 12.0653
2003.36 10.9894
2003.78 10.2812
2004.61 9.37965
2005.45 8.80058
2006.29 8.37213
2007.96 7.71214
2009.63 7.13395
2010.47 6.83306
2011.30 6.49871
2012.14 6.09701
2012.56 5.85263
2012.98 5.56181
2013.40 5.20757
2013.60 5.00721
2013.81 4.81274
2013.92 4.73963
2014.02 4.71758
2014.13 4.81500
2014.23 5.20117
2014.34 6.38701
2014.39 7.70734
2014.44 10.1533
2014.47 12.2449
2014.49 15.1787
2014.52 19.5617
2014.55 26.3725
2014.56 31.2159
2014.57 37.4805
2014.58 45.7059
2014.60 56.6791
2014.61 71.5537
2014.62 92.0046
2014.64 120.361
2014.65 159.807
2014.66 211.412
2014.68 273.744
2014.70 362.570
2014.71 352.741
2014.73 309.102
2014.75 208.985
2014.78 131.391
2014.81 88.9723
2014.84 64.8938
2014.87 50.6160
2014.90 40.9226
2014.92 34.2701
2014.98 26.0537
2015.04 21.1537
2015.10 18.0587
2015.21 14.3735
2015.33 12.2786
2015.44 10.9599
2015.67 9.37460
2015.90 8.44527
2016.13 7.82320
2016.59 6.99365
2017.04 6.40858
2017.50 5.92352
2018.42 5.02511
2018.88 4.55293
2019.34 4.04310
2019.79 3.49001
2020.25 2.92973
2020.48 2.69507
2020.71 2.57377
2020.94 2.73135
2021.05 3.02998
2021.17 3.59470
2021.28 4.61826
2021.40 6.41591
2021.46 7.81770
2021.51 9.68202
2021.57 12.2286
2021.63 15.7609
2021.68 20.8612
2021.74 28.1485
2021.80 39.0368
2021.86 55.9253
2021.91 83.9687
2021.97 131.467
2022.03 217.853
2022.06 287.815
2022.08 380.079
2022.14 657.742
2022.20 886.444
2022.26 763.113
2022.32 513.133
2022.35 392.315
2022.39 305.473
2022.46 199.039
2022.54 141.291
2022.61 107.429
2022.69 85.4158
2022.76 70.6370
2022.91 52.1127
2023.05 41.3381
2023.20 34.4295
2023.49 26.2419
2023.79 21.6322
2024.08 18.7044
2024.38 16.6858
2024.67 15.2083
2025.26 13.1733
2025.85 11.8158
2026.43 10.8119
2027.02 10.0055
2028.20 8.65448
2028.79 7.99697
2029.38 7.27533
2029.96 6.41354
2030.26 5.90468
2030.55 5.35216
2030.70 5.08510
2030.85 4.87215
2030.99 4.81809
2031.14 5.20157
2031.29 6.86440
2031.36 8.95086
2031.40 10.6412
2031.43 12.9561
2031.47 16.3668
2031.51 21.3958
2031.54 29.0377
2031.58 40.6918
2031.60 49.5054
2031.62 60.3711
2031.64 75.5288
2031.65 94.7858
2031.67 122.493
2031.69 158.716
2031.71 208.637
2031.73 276.970
2031.76 481.953
2031.80 645.852
2031.82 630.393
2031.84 557.859
2031.87 381.284
2031.91 248.816
2031.95 174.092
2031.99 128.572
2032.03 100.683
2032.07 81.6056
2032.10 68.6093
2032.18 51.7698
2032.26 41.7429
2032.34 35.2224
2032.49 27.4073
2032.64 22.9743
2032.80 20.1543
2032.95 18.2144
2033.11 16.8022
2033.41 14.8855
2033.72 13.6423
2034.03 12.7657
2034.34 12.1096
2034.95 11.1802
2035.57 10.5386
2036.80 9.67045
2038.03 9.06780
2039.27 8.58824
2041.73 7.77088
2044.19 6.93360
2045.42 6.43120
2046.66 5.80742
2047.27 5.42240
2047.89 4.96652
2048.50 4.41714
2049.12 3.75398
2049.43 3.38371
2049.74 3.01108
2050.04 2.70279
2050.35 2.66204
2050.51 2.91246
2050.66 3.57089
2050.74 4.16583
2050.81 5.04415
2050.89 6.33968
2050.97 8.26512
2051.04 11.1712
2051.12 15.6623
2051.20 22.8376
2051.28 34.8292
2051.31 44.0059
2051.35 56.1141
2051.39 73.3051
2051.43 97.0121
2051.47 132.360
2051.51 183.650
2051.54 261.157
2051.58 378.222
2051.64 654.739
2051.70 882.267
2051.76 761.864
2051.82 514.854
2051.86 378.040
2051.91 286.729
2051.95 224.409
2051.99 180.912
2052.08 126.079
2052.16 95.0810
2052.25 75.4585
2052.34 62.4680
2052.51 46.5005
2052.68 37.2519
2052.85 31.3863
2053.03 27.3405
2053.20 24.4317
2053.54 20.5229
2053.89 18.0431
2054.23 16.3369
2054.58 15.0929
2055.27 13.3986
2055.96 12.2924
2056.65 11.5062
2057.34 10.9119
2058.72 10.0537
2060.10 9.43807
2062.86 8.52285
2065.62 7.72116
2067.00 7.27915
2068.38 6.74822
2069.07 6.42391
2069.76 6.03760
2070.45 5.56154
2071.14 4.95464
2071.49 4.58605
2071.83 4.16817
2072.18 3.71107
2072.52 3.27813
2072.69 3.13809
2072.87 3.15270
2073.04 3.52550
2073.12 3.97849
2073.21 4.75232
2073.30 6.07062
2073.38 8.27672
2073.43 9.91781
2073.47 12.0950
2073.51 15.0189
2073.56 19.0052
2073.60 24.6938
2073.64 32.6229
2073.69 44.2012
2073.73 61.6703
2073.77 89.0662
2073.81 133.946
2073.86 210.648
2073.90 343.965
2073.95 595.292
2074.00 802.484
2074.05 693.891
2074.10 469.749
2074.14 343.447
2074.18 258.138
2074.21 200.758
2074.25 162.055
2074.33 112.788
2074.40 85.1840
2074.48 67.7549
2074.55 56.2672
2074.70 42.1034
2074.86 33.9703
2075.01 28.7883
2075.16 25.2370
2075.31 22.6693
2075.61 19.2300
2075.91 17.0471
2076.21 15.5443
2076.52 14.4509
2077.12 12.9542
2077.72 11.9760
2078.33 11.2759
2078.93 10.7427
2080.14 9.94849
2081.34 9.31102
2081.95 8.98346
2082.25 8.79893
2082.55 8.58773
2082.85 8.33360
2083.00 8.18831
2083.15 8.04119
2083.31 7.94537
2083.38 7.98029
2083.46 8.18465
2083.53 8.86347
2083.57 9.64271
2083.61 11.0453
2083.65 13.8940
2083.68 19.9465
2083.70 25.8682
2083.72 35.7324
2083.73 43.5545
2083.74 52.9258
2083.75 65.2614
2083.76 81.5881
2083.77 107.081
2083.78 138.208
2083.80 183.453
2083.81 179.757
2083.82 159.119
2083.84 110.911
2083.86 87.9372
2083.87 71.0583
2083.89 50.4072
2083.92 38.6527
2083.94 31.4516
2083.97 26.7376
2083.99 23.4790
2084.04 19.3634
2084.09 16.9318
2084.14 15.3557
2084.24 13.4671
2084.35 12.3834
2084.45 11.6972
2084.65 10.8698
2084.85 10.3830
2085.05 10.0599
2085.45 9.64128
2085.85 9.36786
2086.25 9.16312
2087.05 8.84769
2087.85 8.57635
2088.25 8.43691
2088.66 8.28213
2089.06 8.09590
2089.26 7.98319
2089.46 7.85467
2089.66 7.71777
2089.76 7.66494
2089.86 7.66366
2089.96 7.83479
2090.01 8.09978
2090.06 8.66547
2090.11 9.93335
2090.13 11.1391
2090.16 13.1186
2090.18 16.5533
2090.21 22.9534
2090.23 35.9387
2090.25 47.8540
2090.26 65.0430
2090.27 84.5329
2090.28 107.129
2090.30 143.693
2090.31 140.288
2090.32 125.018
2090.34 87.1330
2090.36 61.5604
2090.38 46.2196
2090.40 36.2116
2090.42 30.0558
2090.46 22.6749
2090.50 18.7915
2090.54 16.3771
2090.57 14.7995
2090.65 12.9213
2090.73 11.8381
2090.81 11.1576
2090.96 10.3429
2091.12 9.87757
2091.27 9.57584
2091.58 9.20403
2091.89 8.97634
2092.20 8.81827
2092.82 8.60127
2093.44 8.44903
2094.06 8.32932
2095.30 8.13911
2097.77 7.84409
2100.25 7.59163
2102.73 7.34607
2105.20 7.07439
2106.44 6.90639
2107.06 6.80405
2107.68 6.67922
2108.30 6.51481
2108.61 6.40740
2108.92 6.27439
2109.23 6.10733
2109.38 6.01410
2109.54 5.93225
2109.69 5.92763
2109.77 6.02904
2109.85 6.32636
2109.93 7.15411
2109.96 8.04820
2110.00 9.61333
2110.04 12.7224
2110.08 19.2284
2110.10 25.7432
2110.11 30.4824
2110.12 36.0018
2110.13 44.0385
2110.14 53.5899
2110.15 67.6803
2110.16 85.6545
2110.17 110.874
2110.18 142.970
2110.20 191.859
2110.21 187.297
2110.22 165.259
2110.24 113.093
2110.26 85.1330
2110.27 66.3809
2110.29 53.3868
2110.30 44.2068
2110.34 32.3064
2110.37 25.6811
2110.40 21.3809
2110.43 18.5909
2110.49 15.1023
2110.55 13.0984
2110.61 11.8231
2110.73 10.3298
2110.85 9.48460
2110.97 8.94965
2111.22 8.31539
2111.46 7.94786
2111.70 7.70685
2112.19 7.39992
2112.68 7.20340
2113.17 7.05852
2114.14 6.84036
2116.09 6.50003
2118.03 6.16473
2119.98 5.75192
2120.95 5.48117
2121.93 5.13072
2122.41 4.90885
2122.90 4.64183
2123.39 4.31415
2123.87 3.90933
2124.12 3.67510
2124.36 3.43021
2124.61 3.20419
2124.85 3.10207
2124.97 3.18784
2125.09 3.49052
2125.21 4.24116
2125.28 4.93180
2125.34 5.96464
2125.40 7.58398
2125.46 10.1502
2125.52 14.3645
2125.55 17.4256
2125.58 21.4848
2125.61 27.1782
2125.64 34.8148
2125.67 46.0422
2125.70 61.9510
2125.73 86.8753
2125.76 124.757
2125.79 185.769
2125.82 284.898
2125.86 493.264
2125.90 659.652
2125.92 643.280
2125.94 565.151
2125.98 380.930
2126.00 294.544
2126.03 231.507
2126.08 152.791
2126.12 109.288
2126.17 83.6450
2126.22 66.7145
2126.27 55.3775
2126.36 41.0515
2126.46 32.6344
2126.55 27.3068
2126.74 21.0057
2126.93 17.4639
2127.12 15.2464
2127.31 13.7325
2127.50 12.6378
2127.88 11.1625
2128.26 10.2200
2128.64 9.56153
2129.02 9.07557
2129.79 8.39585
2130.55 7.93566
2132.07 7.32286
2133.59 6.89626
2135.11 6.53768
2135.88 6.35651
2136.64 6.14958
2137.02 6.02293
2137.40 5.87371
2137.59 5.80492
2137.68 5.79220
2137.78 5.83003
2137.87 6.01706
2137.92 6.26022
2137.97 6.73237
2138.02 7.75983
2138.04 8.71492
2138.06 10.1811
2138.09 12.7748
2138.11 17.5460
2138.14 27.0983
2138.15 35.3657
2138.16 47.3291
2138.17 61.1449
2138.18 77.5566
2138.20 102.141
2138.22 88.5019
2138.24 61.0089
2138.25 47.7007
2138.27 38.7474
2138.29 27.4923
2138.31 21.2161
2138.34 17.4289
2138.36 14.9783
2138.39 13.3000
2138.43 11.2021
2138.48 9.97655
2138.53 9.18891
2138.63 8.25342
2138.72 7.72082
2138.82 7.38527
2139.01 6.98093
2139.40 6.58045
2139.78 6.36648
2140.55 6.10533
2141.32 5.92132
2142.86 5.61823
2144.40 5.33063
2145.93 5.01853
2146.70 4.83966
2147.47 4.63275
2148.24 4.37686
2148.63 4.21922
2149.01 4.03308
2149.40 3.81453
2149.59 3.70341
2149.78 3.62269
2149.88 3.62068
2149.97 3.68277
2150.07 3.88112
2150.17 4.39148
2150.26 5.70671
2150.31 7.08657
2150.36 9.55270
2150.38 11.5230
2150.41 14.3274
2150.43 18.4453
2150.45 24.7257
2150.47 29.1262
2150.48 34.7537
2150.49 42.0511
2150.50 51.6525
2150.51 64.4679
2150.53 81.7878
2150.54 105.361
2150.55 139.117
2150.56 183.005
2150.58 233.675
2150.60 312.238
2150.61 302.208
2150.63 265.658
2150.65 177.901
2150.67 123.341
2150.69 89.7000
2150.71 68.2135
2150.73 53.9751
2150.78 36.8200
2150.82 27.7557
2150.86 22.1544
2150.90 18.5842
2150.99 14.2920
2151.07 11.8460
2151.16 10.3261
2151.24 9.28069
2151.33 8.53776
2151.50 7.53436
2151.67 6.90085
2151.83 6.46109
2152.00 6.13595
2152.34 5.67946
2152.68 5.36725
2153.36 4.94064
2154.03 4.63599
2154.71 4.38584
2156.06 3.95309
2158.77 3.13323
2161.48 2.23038
2162.83 1.73320
2164.19 1.22536
2165.54 0.775370
2166.22 0.629302
2166.55 0.597082
2166.89 0.606109
2167.06 0.630973
2167.23 0.672383
2167.57 0.817544
2167.91 1.07386
2168.25 1.48502
2168.59 2.12030
2168.92 3.07630
2169.26 4.50953
2169.60 6.66755
2169.94 9.97296
2170.28 15.1211
2170.62 23.4594
2170.95 37.5134
2171.29 62.8815
2171.46 83.2487
2171.63 112.369
2171.80 155.172
2171.97 219.910
2172.14 320.158
2172.31 475.807
2172.55 827.088
2172.80 1117.40
2173.05 963.354
2173.29 648.391
2173.56 417.650
2173.82 286.270
2174.09 208.816
2174.35 160.627
2174.61 128.575
2174.88 106.340
2175.40 78.0332
2175.93 61.2601
2176.46 50.3931
2177.51 37.4219
2178.56 30.0960
2179.62 25.4489
2180.67 22.2558
2181.73 19.9305
2183.83 16.7438
2185.94 14.5918
2186.99 13.6949
2188.05 12.7992
2188.58 12.2895
2188.84 11.9928
2189.10 11.6487
2189.37 11.2301
2189.50 10.9885
2189.63 10.7412
2189.76 10.5611
2189.83 10.5883
2189.89 10.8527
2189.96 11.7694
2189.99 12.8162
2190.02 14.7353
2190.06 18.4465
2190.09 26.2427
2190.11 33.6326
2190.12 44.6151
2190.13 52.3633
2190.14 62.2203
2190.15 74.7683
2190.16 91.9798
2190.17 121.658
2190.18 156.597
2190.20 211.572
2190.21 209.232
2190.22 188.061
2190.24 131.841
2190.27 91.8283
2190.29 68.3422
2190.31 53.4177
2190.33 44.2858
2190.36 37.8337
2190.38 33.4719
2190.42 27.7838
2190.47 24.2530
2190.51 21.9757
2190.60 19.1620
2190.69 17.5328
2190.78 16.4769
2190.96 15.1887
2191.14 14.4202
2191.31 13.9048
2191.67 13.2290
2192.03 12.7800
2192.38 12.4428
2193.10 11.9316
2194.52 11.1801
2195.95 10.5542
2197.37 9.93468
2198.08 9.59142
2198.80 9.19292
2199.51 8.68415
2199.86 8.35636
2200.22 7.94749
2200.40 7.70168
2200.58 7.42295
2200.75 7.11387
2200.93 6.80372
2201.02 6.68207
2201.11 6.63575
2201.20 6.77020
2201.29 7.34793
2201.38 9.11130
2201.42 11.0951
2201.47 14.6212
2201.49 17.5820
2201.51 21.6090
2201.53 27.4346
2201.56 36.1106
2201.57 42.6539
2201.58 50.2425
2201.59 59.8439
2201.60 72.1086
2201.61 87.9125
2201.62 108.412
2201.63 135.055
2201.64 171.579
2201.66 226.273
2201.67 295.565
2201.70 403.323
2201.71 395.896
2201.73 350.923
2201.76 241.144
2201.78 170.362
2201.81 124.764
2201.83 95.9364
2201.86 76.9576
2201.91 54.5461
2201.96 42.3270
2202.01 34.8884
2202.06 29.9832
2202.16 24.0345
2202.26 20.6294
2202.36 18.4542
2202.46 16.9556
2202.56 15.8645
2202.76 14.3859
2202.96 13.4302
2203.16 12.7590
2203.35 12.2612
2203.75 11.5562
2204.15 11.0740
2204.95 10.4247
2205.75 9.97667
2206.55 9.62256
2208.15 9.03327
2209.75 8.47017
2210.55 8.15707
2211.35 7.78855
2212.14 7.31162
2212.54 7.00031
2212.94 6.61092
2213.14 6.37584
2213.34 6.10957
2213.54 5.81606
2213.74 5.52920
2213.84 5.42307
2213.94 5.39848
2214.04 5.56688
2214.14 6.20629
2214.24 8.10844
2214.29 10.2099
2214.32 11.8290
2214.34 14.0444
2214.37 17.1310
2214.39 21.5275
2214.42 27.9598
2214.44 37.6790
2214.46 44.7173
2214.47 52.9350
2214.48 64.3306
2214.49 77.9309
2214.51 97.1959
2214.52 120.605
2214.53 151.170
2214.54 191.164
2214.56 255.044
2214.57 332.757
2214.60 446.931
2214.62 437.444
2214.63 385.908
2214.66 263.958
2214.69 182.838
2214.71 133.929
2214.74 101.828
2214.77 81.5011
2214.82 56.9699
2214.87 43.6225
2214.92 35.5143
2214.98 30.1791
2215.08 23.7724
2215.19 20.0768
2215.29 17.7448
2215.40 16.1269
2215.50 14.9635
2215.72 13.3788
2215.93 12.3662
2216.14 11.6590
2216.35 11.1351
2216.77 10.4022
2217.19 9.90696
2218.04 9.25263
2218.88 8.81136
2219.73 8.47164
2221.42 7.93157
2224.79 7.02486
2228.17 6.07331
2229.86 5.51559
2231.55 4.86360
2233.24 4.07646
2234.93 3.10449
2235.77 2.53785
2236.62 1.92936
2237.46 1.33124
2237.88 1.08466
2238.31 0.934457
2238.73 0.981698
2238.94 1.13607
2239.15 1.42891
2239.36 1.92211
2239.57 2.70940
2239.78 3.93653
2240.00 5.83719
2240.21 8.81777
2240.42 13.5304
2240.63 21.2318
2240.84 34.3660
2241.05 58.1326
2241.16 77.4103
2241.26 104.723
2241.37 145.226
2241.47 205.754
2241.58 299.995
2241.68 444.085
2241.84 778.549
2242.00 1055.76
2242.16 913.112
2242.32 618.761
2242.44 445.338
2242.57 331.532
2242.70 256.159
2242.82 204.745
2243.07 141.898
2243.33 106.551
2243.58 84.6387
2243.83 70.0299
2244.33 52.1624
2244.84 41.8651
2245.34 35.2976
2245.85 30.7787
2246.35 27.4974
2247.36 23.0700
2248.37 20.2346
2249.38 18.2587
2250.38 16.7942
2252.40 14.7221
2254.42 13.2089
2255.43 12.4982
2255.93 12.1136
2256.43 11.6754
2256.94 11.1303
2257.19 10.7866
2257.44 10.3674
2257.57 10.1217
2257.69 9.85090
2257.82 9.56521
2257.95 9.31148
2258.07 9.27745
2258.14 9.54077
2258.20 10.3252
2258.26 12.4118
2258.29 14.6108
2258.32 18.2832
2258.36 25.1819
2258.37 30.7821
2258.39 38.2163
2258.40 49.7221
2258.42 67.0112
2258.43 78.8247
2258.44 93.4784
2258.45 131.195
2258.46 176.046
2258.48 226.854
2258.50 310.174
2258.51 305.405
2258.53 273.863
2258.55 190.811
2258.57 133.448
2258.60 99.4044
2258.62 77.8840
2258.64 63.6867
2258.69 46.8487
2258.74 37.6054
2258.78 31.9405
2258.83 28.1814
2258.92 23.5854
2259.01 20.9044
2259.10 19.1979
2259.20 18.0114
2259.29 17.1402
2259.47 15.9410
2259.66 15.1594
2259.84 14.6002
2260.03 14.1805
2260.40 13.5777
2260.76 13.1558
2261.50 12.5762
2262.24 12.1704
2262.98 11.8510
2264.45 11.3400
2265.93 10.8982
2266.67 10.6766
2267.40 10.4361
2268.14 10.1475
2268.51 9.96738
2268.88 9.74353
2269.25 9.44668
2269.43 9.25627
2269.62 9.03313
2269.80 8.79367
2269.90 8.70585
2269.99 8.72071
2270.08 9.07188
2270.13 9.59039
2270.17 10.6702
2270.22 13.0227
2270.24 15.2019
2270.26 18.6888
2270.29 24.5309
2270.30 29.1593
2270.31 34.8875
2270.32 43.4729
2270.33 54.4210
2270.34 71.2059
2270.36 92.9023
2270.37 124.197
2270.38 159.325
2270.40 213.634
2270.41 209.534
2270.42 186.860
2270.45 131.083
2270.46 95.6976
2270.48 72.7332
2270.50 57.8099
2270.52 48.2173
2270.56 36.1467
2270.59 29.3711
2270.63 25.1699
2270.67 22.3653
2270.74 18.9255
2270.82 16.9163
2270.89 15.6460
2271.04 14.1258
2271.19 13.2505
2271.34 12.6890
2271.63 12.0006
2271.93 11.5899
2272.23 11.3112
2272.82 10.9442
2273.41 10.6991
2274.01 10.5139
2275.19 10.2312
2277.57 9.80876
2279.94 9.44469
2282.32 9.06609
2283.51 8.84666
2284.69 8.58157
2285.88 8.22600
2286.47 7.98458
2287.07 7.66707
2287.36 7.46391
2287.66 7.21791
2287.96 6.91427
2288.25 6.53731
2288.40 6.31718
2288.55 6.08560
2288.70 5.86636
2288.85 5.75076
2289.00 6.05065
2289.07 6.66402
2289.15 8.08766
2289.18 9.40452
2289.22 11.4640
2289.26 14.7815
2289.29 20.3530
2289.31 24.6912
2289.33 30.2544
2289.35 38.3698
2289.37 49.2199
2289.39 65.7988
2289.40 89.0530
2289.42 126.145
2289.44 181.318
2289.46 240.540
2289.47 315.319
2289.50 426.508
2289.52 417.869
2289.53 372.555
2289.56 253.883
2289.59 172.767
2289.62 124.474
2289.64 94.6578
2289.67 75.3482
2289.73 52.8867
2289.78 40.7998
2289.84 33.3944
2289.90 28.6355
2290.01 22.8826
2290.12 19.5762
2290.23 17.4910
2290.35 16.0567
2290.46 15.0145
2290.68 13.6022
2290.91 12.6966
2291.13 12.0664
2291.36 11.6034
2291.81 10.9587
2292.26 10.5284
2292.71 10.2141
2293.15 9.97075
2294.05 9.60499
2294.95 9.32770
2296.75 8.88223
2298.55 8.45539
2299.45 8.20878
2300.34 7.90640
2300.79 7.71867
2301.24 7.49319
2301.69 7.21082
2302.14 6.84353
2302.37 6.61371
2302.59 6.34429
2302.82 6.03110
2303.04 5.68900
2303.15 5.52751
2303.27 5.41442
2303.38 5.43187
2303.49 5.79772
2303.60 7.17667
2303.66 8.81191
2303.69 10.1101
2303.72 11.9210
2303.74 14.4919
2303.77 18.2239
2303.80 23.7949
2303.83 32.4027
2303.84 38.4773
2303.86 46.2733
2303.87 56.4063
2303.88 69.7514
2303.90 87.5536
2303.91 111.561
2303.93 144.119
2303.94 190.183
2303.96 254.753
2303.97 330.809
2304.00 447.351
2304.02 439.241
2304.03 390.345
2304.06 265.602
2304.09 178.126
2304.12 126.946
2304.15 95.8120
2304.18 75.8624
2304.21 62.0252
2304.24 52.6179
2304.30 40.4756
2304.36 33.0691
2304.42 28.3128
2304.54 22.5376
2304.67 19.2573
2304.79 17.1726
2304.91 15.7419
2305.03 14.7113
2305.27 13.3089
2305.51 12.4099
2305.75 11.7846
2305.99 11.3253
2306.48 10.6871
2306.96 10.2627
2307.44 9.95510
2307.93 9.71845
2308.89 9.36904
2309.86 9.11380
2311.79 8.73755
2313.73 8.44385
2315.66 8.18351
2319.53 7.67553
2323.39 7.08535
2325.33 6.71330
2327.26 6.24375
2329.19 5.60148
2330.16 5.16933
2331.13 4.61574
2331.61 4.27369
2332.09 3.87616
2332.58 3.41442
2333.06 2.89915
2333.30 2.64527
2333.54 2.44054
2333.79 2.38706
2333.91 2.48936
2334.03 2.75612
2334.15 3.31285
2334.27 4.38729
2334.39 6.44125
2334.45 8.09761
2334.51 10.4448
2334.57 13.9033
2334.63 18.9578
2334.69 26.8508
2334.75 39.2748
2334.81 60.6046
2334.87 98.4015
2334.90 128.648
2334.93 171.367
2334.96 232.406
2334.99 319.241
2335.05 550.788
2335.10 742.631
2335.15 642.040
2335.21 432.993
2335.25 320.132
2335.29 244.128
2335.32 191.702
2335.36 154.814
2335.44 107.890
2335.51 81.2267
2335.59 64.2596
2335.67 53.0205
2335.82 39.1116
2335.97 31.1015
2336.13 25.9882
2336.43 19.9321
2336.74 16.5039
2337.04 14.3019
2337.66 11.6043
2338.27 9.94968
2338.88 8.75702
2340.10 6.91899
2340.72 6.07635
2341.33 5.20787
2341.94 4.27743
2342.55 3.29265
2342.86 2.82148
2343.16 2.45213
2343.47 2.38105
2343.62 2.59828
2343.77 3.14475
2343.93 4.26353
2344.00 5.17505
2344.08 6.41708
2344.16 8.15749
2344.23 10.5475
2344.31 13.9536
2344.39 18.7531
2344.46 25.8388
2344.54 36.2911
2344.62 52.6441
2344.69 78.5590
2344.77 122.747
2344.85 199.733
2344.92 339.020
2345.00 573.530
2345.05 762.488
2345.10 875.212
2345.15 840.859
2345.20 706.380
2345.26 531.520
2345.33 396.699
2345.39 303.054
2345.45 238.668
2345.57 160.917
2345.69 118.595
2345.81 92.7470
2345.93 75.9900
2346.18 55.8360
2346.42 44.5000
2346.66 37.3691
2346.91 32.5225
2347.15 29.0371
2347.63 24.3902
2348.12 21.4506
2348.61 19.4297
2349.09 17.9560
2350.06 15.9476
2351.04 14.6361
2352.01 13.7046
2352.98 13.0014
2354.92 11.9840
2356.87 11.2245
2357.84 10.8663
2358.33 10.6730
2358.81 10.4538
2359.30 10.1822
2359.54 10.0109
2359.78 9.80107
2360.03 9.53856
2360.15 9.38813
2360.27 9.24617
2360.39 9.19208
2360.45 9.28887
2360.51 9.61737
2360.57 10.5620
2360.61 11.5951
2360.64 13.3652
2360.67 16.8003
2360.70 23.5542
2360.71 29.5079
2360.73 38.6349
2360.74 52.9741
2360.75 63.7879
2360.76 76.7417
2360.77 99.3070
2360.78 128.424
2360.80 174.726
2360.81 172.360
2360.82 154.025
2360.84 108.592
2360.86 81.0797
2360.88 63.2346
2360.90 51.2799
2360.91 43.0495
2360.95 32.6691
2360.98 26.9765
2361.02 23.3259
2361.05 20.9537
2361.12 17.9876
2361.19 16.2701
2361.26 15.1655
2361.39 13.8501
2361.53 13.0892
2361.67 12.5997
2361.94 11.9968
2362.22 11.6351
2362.49 11.3885
2363.04 11.0619
2363.60 10.8435
2364.15 10.6794
2365.25 10.4340
2367.45 10.0917
2369.65 9.83777
2374.05 9.44829
2378.45 9.13750
2382.85 8.86247
2387.26 8.59311
2389.46 8.44707
2391.66 8.27458
2392.76 8.16395
2393.86 8.01126
2394.41 7.89878
2394.96 7.73120
2395.23 7.61042
2395.51 7.46727
2395.65 7.42879
2395.72 7.46153
2395.78 7.59733
2395.85 8.01781
2395.89 8.49664
2395.92 9.34936
2395.96 11.0725
2395.99 14.6934
2396.01 18.0892
2396.03 23.6150
2396.04 32.9753
2396.05 40.4370
2396.06 49.4654
2396.07 64.6504
2396.08 81.8199
2396.10 108.099
2396.12 95.4870
2396.14 66.7668
2396.16 48.4642
2396.18 36.6393
2396.20 29.2890
2396.22 24.7198
2396.25 19.1579
2396.29 16.1342
2396.33 14.2582
2396.36 13.0616
2396.44 11.6107
2396.51 10.7718
2396.59 10.2446
2396.74 9.61652
2397.03 9.02372
2397.33 8.73736
2397.92 8.44193
2398.52 8.27361
2399.71 8.04413
2400.90 7.84370
2402.09 7.61212
2402.68 7.46406
2403.27 7.27357
2403.87 7.00662
2404.17 6.82528
2404.46 6.59456
2404.76 6.30212
2404.91 6.14003
2405.06 6.00536
2405.21 6.03191
2405.28 6.24855
2405.35 6.84441
2405.43 8.43652
2405.47 10.0792
2405.50 12.9572
2405.52 15.2756
2405.54 18.3297
2405.56 22.9256
2405.58 29.2981
2405.60 39.4766
2405.61 54.5431
2405.62 66.4503
2405.63 80.2165
2405.64 97.6933
2405.65 121.385
2405.66 160.804
2405.68 206.896
2405.70 281.204
2405.71 274.898
2405.73 244.215
2405.75 167.694
2405.77 130.588
2405.78 102.910
2405.81 69.0537
2405.85 50.7271
2405.88 39.8749
2405.91 32.9333
2405.94 28.2127
2406.00 22.4112
2406.07 18.9671
2406.13 16.7864
2406.26 14.1677
2406.39 12.6800
2406.51 11.7433
2406.64 11.0986
2406.77 10.6287
2407.02 9.98806
2407.28 9.57365
2407.53 9.28081
2407.78 9.06114
2408.29 8.74802
2408.80 8.53015
2409.82 8.22774
2410.84 8.00658
2411.85 7.81875
2413.89 7.46150
2415.92 7.04205
2416.94 6.76914
2417.96 6.41371
2418.46 6.18647
2418.97 5.91010
2419.48 5.56289
2419.99 5.11563
2420.24 4.84113
2420.50 4.53002
2420.75 4.18855
2421.01 3.86290
2421.13 3.75476
2421.26 3.76020
2421.39 4.02570
2421.52 4.91569
2421.58 5.87036
2421.64 7.45660
2421.71 10.2437
2421.74 12.3816
2421.77 15.1931
2421.80 19.2053
2421.83 24.9026
2421.87 33.2107
2421.90 45.2408
2421.93 64.5097
2421.96 95.8774
2421.99 149.031
2422.02 239.014
2422.06 416.108
2422.10 562.707
2422.14 489.215
2422.18 331.059
2422.21 229.444
2422.25 166.631
2422.28 126.804
2422.31 100.521
2422.38 69.1003
2422.45 52.2677
2422.52 41.8923
2422.59 35.1694
2422.72 27.0194
2422.86 22.3365
2423.00 19.3613
2423.13 17.3216
2423.27 15.8525
2423.54 13.8569
2423.82 12.5802
2424.09 11.6846
2424.36 11.0216
2424.91 10.0839
2425.46 9.42980
2426.01 8.91959
2426.55 8.48228
2427.65 7.65883
2428.19 7.20196
2428.74 6.65755
2429.01 6.33089
2429.29 5.95632
2429.56 5.52267
2429.83 5.04305
2429.97 4.80807
2430.11 4.62156
2430.24 4.58129
2430.38 4.94162
2430.52 6.48051
2430.59 8.36359
2430.62 9.87296
2430.65 11.9894
2430.69 15.1135
2430.72 19.5600
2430.76 26.2223
2430.79 36.5512
2430.82 53.2466
2430.84 65.4686
2430.86 81.5870
2430.88 103.117
2430.89 132.188
2430.91 171.658
2430.93 227.090
2430.96 394.982
2431.00 539.830
2431.02 528.726
2431.04 469.409
2431.07 321.083
2431.11 227.872
2431.14 168.697
2431.17 129.281
2431.20 103.776
2431.26 72.6383
2431.32 55.6574
2431.39 45.0417
2431.45 38.0186
2431.58 29.5330
2431.70 24.6253
2431.83 21.5164
2431.95 19.3750
2432.08 17.8185
2432.33 15.7114
2432.58 14.3675
2432.83 13.4311
2433.08 12.7459
2433.58 11.8006
2434.08 11.1796
2434.58 10.7363
2435.08 10.4013
2436.09 9.92230
2437.09 9.59020
2439.09 9.14301
2441.10 8.84018
2443.10 8.60918
2447.11 8.25072
2451.12 7.94630
2455.13 7.62952
2457.14 7.43438
2458.14 7.31346
2459.14 7.16280
2460.14 6.95626
2460.65 6.81494
2461.15 6.62853
2461.65 6.36651
2461.90 6.19087
2462.15 5.97654
2462.40 5.73047
2462.52 5.62429
2462.65 5.59795
2462.78 5.86549
2462.84 6.31918
2462.90 7.30227
2462.96 9.60226
2462.99 11.7956
2463.03 15.4319
2463.04 18.2540
2463.06 22.0893
2463.07 27.4113
2463.09 34.4131
2463.10 45.1632
2463.12 59.9898
2463.14 83.7315
2463.15 118.703
2463.16 157.180
2463.18 202.132
2463.20 274.448
2463.21 268.130
2463.23 238.031
2463.25 163.139
2463.27 122.964
2463.28 95.7257
2463.30 76.7545
2463.32 63.2945
2463.35 46.1764
2463.39 36.1910
2463.42 29.7141
2463.46 25.4835
2463.52 20.2433
2463.59 17.1655
2463.66 15.2255
2463.80 12.9201
2463.93 11.6108
2464.07 10.7854
2464.21 10.2131
2464.34 9.79907
2464.62 9.23353
2464.89 8.86547
2465.16 8.60496
2465.43 8.40915
2465.98 8.12958
2466.53 7.93366
2467.62 7.66012
2468.71 7.45860
2469.80 7.28690
2471.99 6.96168
2474.17 6.58572
2475.26 6.34462
2476.36 6.03296
2476.90 5.83408
2477.45 5.59201
2478.00 5.28741
2478.54 4.89080
2478.81 4.64535
2479.09 4.36180
2479.36 4.04167
2479.63 3.71449
2479.77 3.58362
2479.91 3.53291
2480.04 3.67843
2480.18 4.31091
2480.25 5.04043
2480.32 6.29579
2480.38 8.52057
2480.42 10.2499
2480.45 12.6312
2480.49 16.0893
2480.52 20.9378
2480.56 28.1021
2480.59 39.0598
2480.62 56.5286
2480.66 85.7459
2480.69 137.043
2480.71 176.520
2480.73 229.603
2480.76 400.280
2480.80 539.118
2480.82 527.706
2480.84 465.423
2480.88 316.514
2480.91 214.169
2480.95 153.527
2480.98 115.829
2481.02 91.3051
2481.09 62.6807
2481.16 47.2506
2481.23 37.9310
2481.30 31.8223
2481.44 24.4639
2481.58 20.2844
2481.72 17.6323
2481.86 15.8162
2482.00 14.5017
2482.28 12.7353
2482.56 11.6071
2482.84 10.8248
2483.12 10.2494
2483.68 9.45376
2484.24 8.92433
2485.36 8.23916
2486.48 7.78566
2487.60 7.43559
2489.84 6.84572
2492.08 6.23294
2493.20 5.85864
2494.32 5.38897
2494.88 5.09648
2495.44 4.74824
2496.00 4.32366
2496.56 3.79868
2496.84 3.49432
2497.12 3.17004
2497.40 2.85848
2497.68 2.67113
2497.82 2.72286
2497.96 3.00811
2498.10 3.77767
2498.17 4.50319
2498.24 5.62015
2498.31 7.35598
2498.38 10.1086
2498.45 14.6145
2498.49 17.9337
2498.52 22.3347
2498.56 28.2688
2498.59 36.4285
2498.63 47.9075
2498.66 64.4861
2498.70 89.1451
2498.73 126.971
2498.77 186.543
2498.80 280.781
2498.85 486.255
2498.90 657.786
2498.95 570.835
2499.00 386.799
2499.04 276.494
2499.08 205.642
2499.12 157.795
2499.16 126.168
2499.24 87.1932
2499.31 65.4499
2499.39 52.0550
2499.47 43.1690
2499.63 32.3609
2499.79 26.1784
2499.95 22.2428
2500.10 19.5435
2500.26 17.5984
2500.58 14.9619
2500.89 13.2728
2501.21 12.0946
2501.52 11.2225
2502.16 9.98834
2502.79 9.12791
2504.05 7.87621
2505.31 6.78579
2505.95 6.18432
2506.58 5.47831
2506.89 5.06482
2507.21 4.60166
2507.52 4.09277
2507.84 3.58816
2508.00 3.39212
2508.16 3.32239
2508.31 3.55467
2508.39 3.90120
2508.47 4.52710
2508.55 5.61242
2508.63 7.48194
2508.71 10.7574
2508.75 13.3156
2508.79 16.7217
2508.83 21.5763
2508.87 28.2882
2508.91 38.3048
2508.95 52.9368
2508.99 76.2437
2509.02 112.887
2509.06 173.750
2509.10 275.939
2509.15 482.035
2509.20 655.309
2509.25 571.323
2509.30 390.145
2509.36 244.736
2509.41 165.573
2509.47 120.741
2509.53 93.7597
2509.59 75.7771
2509.64 63.5603
2509.76 47.9651
2509.87 38.7478
2509.99 32.7726
2510.22 25.6181
2510.45 21.5550
2510.68 18.9649
2510.91 17.1795
2511.14 15.8776
2511.60 14.1086
2512.06 12.9615
2512.52 12.1546
2512.98 11.5535
2513.90 10.7095
2514.82 10.1379
2516.66 9.39041
2518.50 8.90062
2520.34 8.53691
2524.02 7.98692
2527.70 7.52652
2529.54 7.29449
2531.38 7.04009
2533.23 6.73356
2534.15 6.54259
2535.07 6.30556
2535.99 5.98736
2536.45 5.77587
2536.91 5.50667
2537.14 5.34161
2537.37 5.15032
2537.60 4.92976
2537.83 4.68732
2538.06 4.48356
2538.17 4.47643
2538.29 4.68947
2538.40 5.54306
2538.46 6.60050
2538.52 8.61424
2538.54 10.3344
2538.57 12.8754
2538.60 16.7497
2538.63 22.6324
2538.65 27.1685
2538.66 32.7036
2538.67 40.5885
2538.69 50.5278
2538.70 65.1767
2538.72 84.2474
2538.73 110.793
2538.75 147.852
2538.76 196.627
2538.77 255.911
2538.80 342.584
2538.81 335.003
2538.83 295.093
2538.86 201.216
2538.88 145.212
2538.90 108.322
2538.92 84.0410
2538.94 67.5727
2538.99 47.5803
2539.03 36.6201
2539.07 29.6778
2539.12 25.1659
2539.20 19.5876
2539.29 16.3890
2539.38 14.3489
2539.47 12.9469
2539.55 11.9289
2539.73 10.5470
2539.90 9.66087
2540.25 8.56678
2540.60 7.88737
2540.95 7.39515
2541.64 6.62706
2541.99 6.27002
2542.34 5.89678
2542.69 5.48169
2543.04 5.00644
2543.21 4.74349
2543.39 4.47760
2543.56 4.24358
2543.73 4.15547
2543.91 4.60115
2544.00 5.40214
2544.04 6.13048
2544.08 7.19662
2544.13 8.85206
2544.17 11.3572
2544.21 15.4539
2544.26 22.1206
2544.28 27.2357
2544.30 34.1569
2544.32 43.7098
2544.34 56.4681
2544.37 75.6219
2544.39 103.939
2544.41 146.557
2544.43 207.453
2544.47 360.328
2544.50 489.739
2544.52 479.503
2544.54 425.969
2544.57 289.728
2544.59 219.069
2544.62 169.362
2544.67 110.945
2544.71 79.2261
2544.76 61.0475
2544.81 49.2447
2544.86 41.4203
2544.95 31.6028
2545.05 25.8996
2545.14 22.2395
2545.33 17.9072
2545.52 15.4433
2545.71 13.8755
2545.90 12.7948
2546.09 12.0093
2546.47 10.9326
2546.85 10.2323
2547.23 9.73525
2547.61 9.36327
2548.37 8.83484
2549.12 8.47049
2550.64 7.98125
2552.16 7.64802
2553.68 7.39060
2556.71 6.98252
2559.75 6.63025
2562.79 6.27437
2564.30 6.07222
2565.06 5.95617
2565.82 5.82159
2566.58 5.65381
2566.96 5.54803
2567.34 5.41840
2567.72 5.25185
2567.91 5.15108
2568.10 5.04302
2568.29 4.95585
2568.38 4.95853
2568.48 5.06437
2568.57 5.47229
2568.62 5.97475
2568.67 6.92725
2568.72 8.95691
2568.74 10.8138
2568.76 13.6257
2568.79 18.5127
2568.81 26.7902
2568.82 33.6012
2568.83 43.1889
2568.85 56.8269
2568.86 74.4299
2568.87 97.3542
2568.88 125.198
2568.90 167.498
2568.91 163.813
2568.92 145.021
2568.94 98.9009
2568.97 63.6198
2568.99 44.2308
2569.02 33.1803
2569.04 26.4196
2569.07 22.0048
2569.09 18.9623
2569.14 15.1941
2569.19 12.9269
2569.24 11.4928
2569.34 9.76440
2569.44 8.78981
2569.54 8.17167
2569.74 7.43732
2569.94 7.01402
2570.13 6.73851
2570.53 6.39119
2570.93 6.17064
2571.32 6.01001
2572.12 5.77088
2573.70 5.40637
2575.29 5.06095
2576.87 4.65785
2577.67 4.40683
2578.46 4.09612
2578.85 3.90653
2579.25 3.68599
2579.65 3.42513
2580.04 3.12093
2580.24 2.95694
2580.44 2.80162
2580.64 2.69247
2580.84 2.74051
2581.03 3.30788
2581.13 4.13344
2581.23 5.87669
2581.28 7.44477
2581.33 9.80225
2581.38 13.6309
2581.43 19.8910
2581.46 24.7084
2581.48 31.2704
2581.51 40.4159
2581.53 52.8769
2581.55 71.8397
2581.58 100.583
2581.60 145.265
2581.63 213.616
2581.66 364.970
2581.70 493.136
2581.72 481.609
2581.74 423.887
2581.77 284.873
2581.81 184.138
2581.85 125.808
2581.89 91.7386
2581.92 70.5704
2581.96 56.6124
2582.00 46.9337
2582.07 34.8265
2582.15 27.5832
2582.23 22.9718
2582.38 17.4534
2582.53 14.3433
2582.68 12.3990
2582.83 11.0715
2582.98 10.1113
2583.28 8.81437
2583.59 7.98236
2583.89 7.39591
2584.19 6.95848
2584.80 6.33332
2585.40 5.89200
2586.61 5.25713
2587.82 4.75000
2588.43 4.50305
2589.03 4.24082
2589.64 3.94225
2589.94 3.76998
2590.24 3.57968
2590.54 3.38385
2590.70 3.31025
2590.85 3.31059
2591.00 3.55574
2591.07 3.93902
2591.15 4.75468
2591.22 6.65218
2591.26 8.51499
2591.30 11.5724
2591.32 13.9627
2591.34 17.2505
2591.36 21.8883
2591.38 28.6244
2591.39 38.7381
2591.41 54.4710
2591.43 79.7215
2591.45 118.135
2591.46 156.841
2591.48 199.864
2591.50 266.760
2591.51 258.943
2591.53 228.561
2591.55 152.973
2591.57 105.804
2591.59 77.3698
2591.62 58.4107
2591.64 46.4688
2591.68 31.9654
2591.72 24.2352
2591.76 19.4277
2591.81 16.3480
2591.89 12.5928
2591.98 10.4507
2592.06 9.11636
2592.23 7.54597
2592.40 6.65493
2592.57 6.08547
2592.91 5.38314
2593.26 4.95295
2593.60 4.64872
2594.28 4.21644
2595.64 3.61515
2597.00 3.11960
2598.37 2.64127
2599.73 2.14433
2600.41 1.88144
2601.09 1.61507
2601.43 1.50190
2601.60 1.47135
2601.77 1.49336
2601.95 1.66293
2602.03 1.88985
2602.12 2.35106
2602.20 3.36998
2602.24 4.36846
2602.29 6.02277
2602.33 9.15253
2602.35 11.7097
2602.37 15.5052
2602.39 21.7497
2602.41 31.6097
2602.42 39.3239
2602.43 48.6376
2602.45 62.3404
2602.46 80.0033
2602.48 132.523
2602.50 171.540
2602.51 165.063
2602.52 143.602
2602.54 92.8967
2602.56 63.8477
2602.58 45.1392
2602.60 33.4023
2602.62 25.7497
2602.66 16.8605
2602.70 12.2296
2602.73 9.39019
2602.77 7.60533
2602.85 5.46610
2602.92 4.27150
2603.00 3.54109
2603.15 2.69345
2603.30 2.21482
2603.45 1.90631
2603.75 1.51438
2604.35 1.06783
2604.95 0.788505
2605.55 0.601306
2606.15 0.509364
2606.75 0.550703
2607.06 0.644119
2607.36 0.804447
2607.66 1.05356
2607.96 1.41974
2608.26 1.94289
2608.56 2.67659
2608.86 3.70674
2609.16 5.14510
2609.46 7.18095
2609.76 10.0785
2610.06 14.3053
2610.36 20.6054
2610.66 30.2995
2610.96 45.7763
2611.26 71.9927
2611.56 119.082
2611.72 157.185
2611.87 210.867
2612.02 287.868
2612.17 397.937
2612.43 691.190
2612.70 936.841
2612.97 811.226
2613.24 544.947
2613.53 346.881
2613.82 235.286
2614.11 170.134
2614.40 129.858
2614.69 103.206
2614.98 84.7683
2615.56 61.3862
2616.14 47.5049
2616.72 38.4844
2617.88 27.6112
2619.04 21.2948
2620.21 17.1057
2622.53 11.5568
2624.85 7.45696
2626.01 5.53517
2627.17 3.61981
2628.34 1.90142
2628.63 1.60352
2628.92 1.43482
2629.21 1.47590
2629.50 1.86473
2629.64 2.26208
2629.79 2.84717
2629.93 3.68403
2630.08 4.85822
2630.22 6.48995
2630.37 8.75118
2630.51 11.8929
2630.66 16.2900
2630.80 22.5678
2630.95 31.5525
2631.09 44.7591
2631.24 64.6803
2631.38 95.6638
2631.53 145.501
2631.67 228.120
2631.82 365.956
2632.01 658.339
2632.20 902.157
2632.39 787.925
2632.58 542.904
2632.72 411.509
2632.85 319.132
2632.99 254.634
2633.12 208.719
2633.39 149.962
2633.66 115.334
2633.93 93.1458
2634.20 77.9732
2634.74 58.8828
2635.28 47.5222
2635.82 40.0255
2636.90 30.6479
2637.98 24.6761
2638.52 22.2194
2639.06 19.8396
2639.60 17.2732
2639.87 15.8023
2640.14 14.1132
2640.41 12.1524
2640.55 11.1204
2640.68 10.2464
2640.82 10.1732
2640.88 11.0752
2640.95 13.5501
2640.98 15.9672
2641.02 19.7632
2641.05 25.7872
2641.09 35.1825
2641.10 42.1467
2641.12 51.2094
2641.14 63.1149
2641.15 77.8466
2641.17 98.6194
2641.19 126.600
2641.20 164.350
2641.22 211.788
2641.24 293.519
2641.26 390.206
2641.30 544.792
2641.32 540.705
2641.34 487.105
2641.38 348.123
2641.42 242.361
2641.46 179.576
2641.51 139.773
2641.55 114.472
2641.59 96.6831
2641.63 84.2291
2641.71 67.7576
2641.80 57.4285
2641.88 50.5702
2642.04 41.9538
2642.21 36.7984
2642.37 33.4008
2642.70 29.1356
2643.03 26.5142
2643.36 24.7091
2644.02 22.2951
2644.69 20.6782
2645.35 19.4715
2646.67 17.6946
2649.31 15.2795
2651.95 13.4310
2654.59 11.6358
2655.91 10.6116
2657.24 9.37621
2657.90 8.62661
2658.56 7.74740
2659.22 6.69002
2659.88 5.40888
2660.21 4.67901
2660.54 3.92185
2660.87 3.22748
2661.20 2.88392
2661.36 3.08692
2661.53 3.85529
2661.61 4.61023
2661.69 5.73826
2661.78 7.44114
2661.86 9.94236
2661.94 13.7302
2662.02 19.4046
2662.11 28.3059
2662.19 42.3350
2662.27 65.8754
2662.35 106.198
2662.44 180.400
2662.52 316.330
2662.61 571.580
2662.70 785.198
2662.79 688.947
2662.88 479.450
2662.96 351.013
2663.03 266.355
2663.10 209.697
2663.17 170.668
2663.32 122.106
2663.47 94.5822
2663.61 77.1721
2663.76 65.5074
2664.05 51.0059
2664.35 42.4741
2664.64 36.9375
2664.93 33.0790
2665.22 30.2544
2665.81 26.3802
2666.39 23.8636
2666.98 22.0899
2667.57 20.7727
2668.74 18.9310
2669.91 17.6923
2672.25 16.0973
2674.59 15.0806
2676.93 14.3524
2681.61 13.3293
2686.30 12.5885
2690.98 11.9492
2693.32 11.6106
2694.49 11.4157
2695.66 11.1833
2696.84 10.8753
2697.42 10.6668
2698.01 10.3909
2698.30 10.2122
2698.59 9.99239
2698.89 9.71333
2699.18 9.34835
2699.32 9.11948
2699.47 8.85538
2699.62 8.55461
2699.76 8.23997
2699.84 8.10467
2699.91 8.03406
2699.98 8.11936
2700.06 8.59161
2700.13 10.0945
2700.17 11.7957
2700.20 14.7781
2700.22 17.2771
2700.24 20.6027
2700.26 25.3280
2700.27 32.2001
2700.29 43.1661
2700.31 59.3027
2700.32 70.5376
2700.33 84.6780
2700.34 102.468
2700.35 124.970
2700.36 169.342
2700.37 220.089
2700.40 300.076
2700.41 295.864
2700.43 264.681
2700.45 186.058
2700.48 126.140
2700.51 91.9862
2700.54 70.5911
2700.56 57.4352
2700.59 48.2319
2700.62 41.9644
2700.67 33.8082
2700.73 28.7716
2700.78 25.4625
2700.89 21.4765
2701.00 19.1606
2701.11 17.6858
2701.22 16.6621
2701.33 15.9123
2701.55 14.8856
2701.77 14.2214
2701.98 13.7518
2702.20 13.4035
2702.64 12.9134
2703.08 12.5803
2703.95 12.1401
2704.83 11.8431
2705.70 11.6123
2707.45 11.2273
2709.20 10.8388
2710.07 10.6049
2710.94 10.3086
2711.38 10.1203
2711.82 9.88913
2712.26 9.59340
2712.69 9.19598
2712.91 8.93935
2713.13 8.63021
2713.35 8.25042
2713.57 7.79187
2713.68 7.53519
2713.79 7.28350
2713.89 7.08526
2714.00 7.08719
2714.11 7.76703
2714.17 8.80347
2714.22 10.9211
2714.25 12.8287
2714.28 15.5800
2714.30 19.7661
2714.33 26.3352
2714.35 31.2105
2714.36 37.5633
2714.37 45.9480
2714.39 56.2462
2714.40 71.1098
2714.41 89.7723
2714.43 117.115
2714.44 153.224
2714.46 203.789
2714.47 268.251
2714.50 371.123
2714.52 366.743
2714.53 327.454
2714.56 228.436
2714.58 179.973
2714.60 145.163
2714.63 100.815
2714.67 75.1701
2714.71 60.0002
2714.74 49.8181
2714.78 42.9770
2714.85 34.2743
2714.92 29.0268
2715.00 25.6531
2715.14 21.5496
2715.29 19.1860
2715.43 17.6812
2715.58 16.6381
2715.72 15.8744
2716.01 14.8298
2716.30 14.1534
2716.59 13.6774
2716.88 13.3231
2717.46 12.8273
2718.04 12.4941
2718.62 12.2506
2719.20 12.0631
2720.37 11.7860
2721.53 11.5849
2723.85 11.2954
2726.17 11.0800
2728.49 10.9002
2733.14 10.5821
2737.78 10.2538
2740.11 10.0574
2742.43 9.80958
2743.59 9.65161
2744.75 9.45624
2745.91 9.20219
2747.07 8.84973
2747.65 8.61335
2748.23 8.31510
2748.82 7.92413
2749.40 7.39139
2749.69 7.04510
2749.98 6.62791
2750.27 6.12190
2750.56 5.52220
2750.70 5.20076
2750.85 4.90659
2750.99 4.72716
2751.14 4.90962
2751.28 6.21202
2751.36 7.98016
2751.39 9.41719
2751.43 11.4555
2751.46 14.4837
2751.50 18.8218
2751.54 25.3349
2751.57 35.4178
2751.61 52.2001
2751.65 79.8201
2751.66 100.578
2751.68 128.328
2751.70 165.570
2751.72 217.120
2751.76 385.626
2751.80 529.035
2751.84 466.073
2751.88 321.484
2751.91 238.428
2751.95 181.370
2751.98 142.945
2752.01 117.087
2752.07 83.8488
2752.14 65.1377
2752.20 53.2017
2752.26 45.2949
2752.39 35.4328
2752.52 29.6974
2752.64 26.0029
2752.77 23.4476
2752.90 21.5983
2753.15 19.0769
2753.41 17.4625
2753.66 16.3449
2753.91 15.5300
2754.42 14.4145
2754.93 13.6915
2755.43 13.1837
2755.94 12.8068
2756.96 12.2825
2757.97 11.9333
2758.99 11.6816
2760.00 11.4902
2760.00 20.9586
3000.00 20.3427
3500.00 19.2706
4000.00 18.4075
5000.00 17.0903
6000.00 16.1203
7200.00 15.2370
8500.00 14.5018
10000.0 13.8404
12500.0 13.0179
13000.0 12.8829
15000.0 12.4128
17000.0 12.0289
20000.0 11.5658
23000.0 11.1969
25000.0 10.9888
30000.0 10.5625
33000.0 10.3541
35000.0 10.2301
40000.0 9.96070
43000.0 9.82139
53000.0 9.44175
63000.0 9.15044
73000.0 8.91539
77000.0 8.83674
80000.0 8.77775
83000.0 8.71876
90000.0 8.60046
93000.0 8.54975
100000 8.44591
103000 8.40140
113000 8.26900
120000 8.18519
123000 8.14927
123000 8.14985
123877 8.14351
123877 8.14351
150000 7.95432
200000 7.69399
250000 7.46632
300000 7.37289
350000 7.32399
373431 7.30882
373431 7.30882
400000 7.29161
495000 7.28657
495000 7.28657
500000 7.28630
600000 7.28099
650000 7.28187
680000 7.28240
685120 7.28249
685121 7.28249
700000 7.28275
722363 7.28136
722363 7.28136
800000 7.27653
820000 7.27528
820834 7.27523
820834 7.27523
850000 7.27341
900000 7.27030
1.00000E+06 7.27253
1.00279E+06 7.27222
1.00279E+06 7.27222
1.05000E+06 7.26696
1.05446E+06 7.26647
1.05446E+06 7.26647
1.07000E+06 7.26474
1.10000E+06 7.26140
1.13518E+06 7.25748
1.13518E+06 7.25748
1.14332E+06 7.25657
1.14333E+06 7.25656
1.15000E+06 7.25583
1.15197E+06 7.25561
1.15197E+06 7.25561
1.17000E+06 7.25360
1.18984E+06 7.25139
1.18984E+06 7.25139
1.19377E+06 7.25095
1.20000E+06 7.25026
1.22000E+06 7.23875
1.24108E+06 7.22662
1.24108E+06 7.22662
1.24942E+06 7.22182
1.24943E+06 7.22181
1.25000E+06 7.22148
1.25984E+06 7.21582
1.25984E+06 7.21582
1.26239E+06 7.21435
1.26615E+06 7.21219
1.27000E+06 7.20998
1.27207E+06 7.20879
1.27207E+06 7.20879
1.27496E+06 7.20713
1.27713E+06 7.20588
1.28537E+06 7.20114
1.28537E+06 7.20114
1.29438E+06 7.19595
1.29529E+06 7.19543
1.30000E+06 7.19272
1.30267E+06 7.19075
1.30267E+06 7.19075
1.30416E+06 7.18965
1.30416E+06 7.18965
1.30429E+06 7.18956
1.30429E+06 7.18955
1.31000E+06 7.18535
1.31714E+06 7.18009
1.32000E+06 7.17798
1.32204E+06 7.17648
1.32430E+06 7.17481
1.32944E+06 7.17102
1.33000E+06 7.17061
1.33137E+06 7.16960
1.34000E+06 7.16324
1.34002E+06 7.16323
1.35000E+06 7.15587
1.35727E+06 7.15051
1.36851E+06 7.14223
1.37000E+06 7.14113
1.37040E+06 7.14084
1.37395E+06 7.13822
1.37395E+06 7.13822
1.37485E+06 7.13755
1.37485E+06 7.13755
1.37570E+06 7.13693
1.37577E+06 7.13688
1.38003E+06 7.13374
1.38732E+06 7.12836
1.39118E+06 7.12552
1.39893E+06 7.11981
1.40000E+06 7.11902
1.40669E+06 7.11189
1.40669E+06 7.11189
1.40925E+06 7.10916
1.41330E+06 7.10484
1.41330E+06 7.10483
1.41469E+06 7.10335
1.42000E+06 7.09769
1.42370E+06 7.09375
1.42370E+06 7.09375
1.42507E+06 7.09228
1.42617E+06 7.09111
1.42745E+06 7.08975
1.42745E+06 7.08974
1.43059E+06 7.08640
1.43463E+06 7.08209
1.44194E+06 7.07430
1.44194E+06 7.07429
1.44483E+06 7.07121
1.44725E+06 7.06863
1.45000E+06 7.06570
1.45065E+06 7.06501
1.45365E+06 7.06181
1.46841E+06 7.04607
1.47000E+06 7.04437
1.47229E+06 7.04193
1.47415E+06 7.03995
1.47464E+06 7.03942
1.47498E+06 7.03906
1.47730E+06 7.03659
1.47844E+06 7.03537
1.48260E+06 7.03094
1.50000E+06 7.01238
1.60000E+06 6.95145
1.70000E+06 6.89052
1.80000E+06 6.83647
1.90000E+06 6.78241
2.00000E+06 6.72836
2.20000E+06 6.59227
2.50000E+06 6.40736
2.70000E+06 6.30061
3.00000E+06 6.14047
3.20000E+06 6.03372
3.50000E+06 5.86913
3.70000E+06 5.75941
4.00000E+06 5.57757
4.50000E+06 5.35110
5.00000E+06 5.18781
5.50000E+06 5.05703
6.00000E+06 4.95513
6.50000E+06 4.90443
7.00000E+06 4.88323
7.11130E+06 4.88224
7.50000E+06 4.87878
7.67799E+06 4.88005
7.80000E+06 4.88092
8.00000E+06 4.88235
8.50000E+06 4.89386
8.95228E+06 4.90427
8.95228E+06 4.90427
9.00000E+06 4.90537
9.50000E+06 4.92834
1.00000E+07 4.95246
1.02000E+07 4.96211
1.05000E+07 4.97608
1.10000E+07 5.00358
1.15000E+07 5.03108
1.20000E+07 5.05859
1.25000E+07 5.08609
1.30000E+07 5.11359
1.35000E+07 5.12856
1.40000E+07 5.14352
1.45000E+07 5.15371
1.50000E+07 5.16391
1.52402E+07 5.16880
1.52402E+07 5.16881
1.55000E+07 5.17410
1.60000E+07 5.16821
1.62840E+07 5.16487
1.65000E+07 5.16233
1.70000E+07 5.15644
1.80000E+07 5.11787
1.82000E+07 5.11015
1.89000E+07 5.08315
1.90000E+07 5.07844
1.91000E+07 5.07322
1.92000E+07 5.06800
2.00000E+07 5.02624