Gd-155(n,tot) ENDF/B-VII.1
Energy(eV) XS(b)
1.00000E-05 2.46480E+06
1.26000E-05 2.19590E+06
1.58000E-05 1.96105E+06
2.00000E-05 1.74312E+06
2.51000E-05 1.55610E+06
3.16000E-05 1.38698E+06
3.98000E-05 1.23602E+06
5.00000E-05 1.10292E+06
5.01000E-05 1.10182E+06
5.05063E-05 1.09739E+06
5.09125E-05 1.09301E+06
5.17250E-05 1.08440E+06
5.33500E-05 1.06778E+06
5.66000E-05 1.03672E+06
6.31000E-05 981967
7.94000E-05 875596
0.000100000 780447
0.000126000 695539
0.000158000 621413
0.000200000 552660
0.000251000 493694
0.000316000 440413
0.000398000 392897
0.000500000 351056
0.000501000 350711
0.000505063 349318
0.000509125 347942
0.000517250 345239
0.000533500 340020
0.000566000 330269
0.000631000 313090
0.000794000 279765
0.00100000 250027
0.00126000 223570
0.00158000 200558
0.00200000 179315
0.00251000 161201
0.00316000 144950
0.00398000 130583
0.00500000 118061
0.00501000 117958
0.00505063 117544
0.00509125 117135
0.00517250 116332
0.00533500 114783
0.00566000 111895
0.00631000 106832
0.00794000 97095.4
0.0100000 88496.9
0.0125900 80893.1
0.0158500 74034.3
0.0199500 67606.4
0.0200000 67537.3
0.0201600 67317.4
0.0203200 67099.1
0.0206400 66667.6
0.0212800 65822.9
0.0225600 64198.8
0.0251200 61152.8
0.0253000 60946.7
0.0256750 60520.1
0.0260500 60097.2
0.0268000 59261.3
0.0292100 56650.3
0.0316200 54126.0
0.0398100 45961.5
0.0500000 36646.6
0.0501200 36543.9
0.0505256 36198.1
0.0509313 35854.5
0.0517425 35173.7
0.0533650 33839.0
0.0566100 31281.9
0.0631000 26639.8
0.0712650 21704.2
0.0794300 17705.9
0.0808520 17095.9
0.0856390 15211.3
0.0904260 13564.2
0.100000 10868.4
0.106473 9415.35
0.112945 8199.30
0.119418 7177.60
0.125890 6315.32
0.134040 5413.04
0.142190 4674.15
0.150340 4064.33
0.158490 3557.16
0.168750 3033.61
0.179010 2610.00
0.189270 2263.70
0.199530 1977.87
0.200000 1966.01
0.201600 1926.36
0.203199 1887.81
0.206399 1813.87
0.212798 1677.67
0.225595 1445.18
0.238393 1255.55
0.251190 1099.25
0.267450 937.785
0.283710 808.181
0.299970 702.850
0.316230 616.283
0.336700 527.815
0.357170 456.832
0.377640 399.151
0.398110 351.745
0.423583 303.793
0.449055 265.222
0.500000 207.953
0.501190 206.860
0.505245 203.203
0.509301 199.651
0.517411 192.847
0.533633 180.340
0.566075 159.083
0.630960 127.711
0.794330 85.2896
1.00000 64.6549
1.25893 60.5006
1.42191 67.4388
1.58489 86.8557
1.67687 110.402
1.76885 159.083
1.81483 206.897
1.86082 294.208
1.88382 367.978
1.90681 479.842
1.92981 656.607
1.94130 781.999
1.95280 939.753
1.96342 1116.49
1.97403 1317.61
1.99526 1691.46
2.00000 1741.46
2.00800 1776.00
2.02180 1679.97
2.03560 1449.23
2.06320 963.739
2.09123 657.550
2.11925 497.669
2.14728 417.579
2.17530 381.940
2.23135 387.290
2.28740 470.950
2.34345 658.898
2.37148 820.703
2.39950 1062.63
2.42753 1439.23
2.45555 2056.45
2.48358 3125.43
2.49759 3942.60
2.51160 5026.23
2.51189 5051.80
2.51277 5129.94
2.51364 5209.26
2.51540 5371.38
2.51890 5709.70
2.52592 6437.96
2.53995 8014.03
2.56800 9957.05
2.59620 7941.67
2.62440 4954.59
2.64121 3688.91
2.65802 2791.69
2.69164 1707.31
2.72525 1131.95
2.75887 800.015
2.79249 593.930
2.82611 458.175
2.89334 297.060
2.96058 209.243
3.02781 156.410
3.16228 99.2558
3.25946 77.6301
3.35664 65.2256
3.45382 62.3151
3.50241 68.3881
3.55100 88.4610
3.61600 130.753
3.68100 81.1927
3.71851 59.8989
3.75602 48.3671
3.83104 37.2899
3.98107 28.7359
4.23580 23.1359
4.49054 20.8567
4.74527 20.3795
5.00000 21.6326
5.01187 21.7427
5.05031 22.1380
5.08875 22.5966
5.16564 23.7324
5.31940 27.1637
5.47317 33.0771
5.62694 43.8455
5.78070 65.7886
5.85759 86.2124
5.93447 120.512
6.01135 184.430
6.04979 239.155
6.08823 323.575
6.12668 462.649
6.14590 567.839
6.16512 711.756
6.18434 913.913
6.20356 1205.35
6.22278 1633.89
6.24200 2262.37
6.27100 3617.13
6.30000 4523.81
6.30957 4405.94
6.33379 3385.49
6.35800 2273.48
6.37877 1603.59
6.39954 1160.61
6.42032 867.515
6.44109 668.671
6.48263 429.314
6.52418 298.780
6.56572 220.809
6.60726 170.894
6.69035 113.506
6.77344 83.5234
6.85653 66.4627
7.02270 50.9904
7.18888 50.0921
7.27196 55.3457
7.35505 67.1003
7.43814 91.7525
7.47968 113.763
7.52123 148.313
7.56277 205.891
7.60431 309.828
7.64586 516.900
7.66663 697.254
7.68740 962.328
7.70305 1228.99
7.71870 1534.50
7.75000 1919.55
7.78130 1542.18
7.81260 971.473
7.84527 592.982
7.87794 385.769
7.91061 268.327
7.94328 197.335
8.00607 122.926
8.06885 85.4299
8.13164 64.0162
8.19442 50.6456
8.31999 35.4670
8.44556 27.4497
8.57113 22.6755
8.69670 19.5989
8.94784 16.0667
9.19898 14.4532
9.45012 14.4550
9.57569 15.6131
9.70126 19.1276
9.76405 23.3366
9.82683 32.2461
9.85822 40.7471
9.88962 55.1149
9.92101 81.1399
9.95240 130.224
10.0000 243.846
10.0100 251.145
10.0390 203.173
10.0680 130.937
10.0899 93.8135
10.1117 69.8611
10.1336 54.3379
10.1554 43.9748
10.1992 31.7050
10.2429 25.1260
10.3303 18.8068
10.4178 16.0895
10.5926 14.2459
10.7675 14.4458
10.9424 16.3546
11.0298 18.3598
11.1173 21.7460
11.2047 27.9327
11.2921 41.0133
11.3359 53.8653
11.3796 76.7779
11.4233 122.513
11.4452 162.826
11.4670 222.893
11.4985 347.851
11.5300 433.093
11.5615 353.996
11.5930 233.912
11.6143 178.165
11.6356 141.646
11.6783 104.079
11.7209 92.5051
11.7635 97.2160
11.8061 118.881
11.8488 168.713
11.8701 213.324
11.8914 281.525
11.9127 388.078
11.9340 554.262
11.9480 703.527
11.9620 873.926
11.9900 1087.86
12.0180 878.522
12.0460 558.580
12.0800 320.050
12.1139 200.276
12.1479 136.574
12.1818 99.6929
12.2158 76.6720
12.2497 61.4194
12.3176 43.1410
12.3855 33.0286
12.4534 26.8523
12.5893 20.0154
12.7060 16.9215
12.8227 15.0654
13.0562 13.2630
13.2897 12.9556
13.5231 13.9952
13.7566 17.3632
13.8733 20.9528
13.9901 27.4461
14.1068 40.5766
14.1652 52.6754
14.2235 72.7226
14.2819 109.246
14.3111 139.727
14.3403 185.500
14.3695 258.092
14.3986 380.895
14.4132 475.093
14.4278 604.084
14.4424 782.451
14.4570 1027.22
14.4835 1644.65
14.5100 2061.74
14.5365 1659.67
14.5630 1046.03
14.5831 726.064
14.6032 519.161
14.6233 384.808
14.6434 295.068
14.6836 188.613
14.7238 131.329
14.7639 97.3286
14.8041 75.6136
14.8845 50.5478
14.9649 37.2008
15.0452 29.2596
15.2060 20.6677
15.3667 16.3558
15.5275 13.8913
15.8489 11.3648
16.3142 10.0218
16.7795 10.0786
17.0121 10.8083
17.2447 12.8909
17.3611 15.4453
17.4774 21.3732
17.5355 27.8160
17.5937 40.6814
17.6228 52.4004
17.6519 71.3699
17.6809 103.806
17.7100 160.640
17.7400 251.307
17.7700 312.067
17.8000 252.624
17.8300 162.405
17.8618 101.723
17.8936 68.8067
17.9254 50.3295
17.9572 39.2718
18.0209 27.5690
18.0845 22.0081
18.2117 17.4040
18.3389 16.0009
18.5934 16.5458
18.8479 19.8798
19.1023 27.3901
19.2296 34.4366
19.3568 46.3511
19.4840 69.1469
19.5476 89.5093
19.6112 122.692
19.6749 182.510
19.7067 232.318
19.7385 307.264
19.7703 426.939
19.8021 632.269
19.8339 1014.46
19.8657 1764.55
19.8929 2807.98
19.9200 3502.80
19.9363 3214.27
19.9526 2579.52
19.9743 1763.53
20.0000 1123.19
20.0304 705.881
20.0608 481.160
20.0912 351.287
20.1217 271.286
20.1521 219.481
20.1825 184.744
20.2433 144.506
20.3041 126.075
20.3650 120.347
20.4258 123.946
20.4866 136.350
20.5474 159.204
20.6083 196.833
20.6691 258.314
20.7299 362.904
20.7603 443.560
20.7907 555.699
20.8211 717.044
20.8516 959.169
20.8820 1342.02
20.9124 1985.97
20.9428 3145.13
20.9732 5314.07
21.0016 8560.45
21.0300 10779.3
21.0584 8692.23
21.0868 5479.88
21.1065 3919.59
21.1262 2869.93
21.1459 2164.72
21.1656 1680.16
21.2050 1088.35
21.2444 760.261
21.2838 561.588
21.3232 432.764
21.4020 281.776
21.4808 200.070
21.5596 150.867
21.7172 96.9350
21.8748 69.4698
22.0324 53.5980
22.1900 43.6830
22.3476 37.2360
22.6628 30.6937
22.8204 30.0761
22.9780 31.8869
23.1356 38.4315
23.2144 45.5136
23.2932 58.1128
23.3720 82.4398
23.4114 103.595
23.4508 136.440
23.4902 190.690
23.5296 287.663
23.5493 365.964
23.5690 478.169
23.5887 641.839
23.6084 879.787
23.6238 1127.53
23.6392 1412.80
23.6700 1780.02
23.6854 1684.27
23.7008 1440.60
23.7316 914.362
23.7533 655.248
23.7750 481.809
23.7966 365.796
23.8183 286.372
23.8617 189.618
23.9050 136.072
23.9484 103.634
23.9917 82.5729
24.0784 57.7812
24.1651 44.2408
24.2518 35.9859
24.4252 26.7273
24.5986 21.8093
24.7721 18.8116
25.1189 15.3832
25.7159 12.6479
26.3129 11.6444
26.6114 11.7736
26.9099 12.9563
27.0592 14.7149
27.1338 16.3776
27.2084 19.1670
27.2830 24.3138
27.3577 35.2615
27.3950 45.9003
27.4323 64.3241
27.4696 98.9875
27.5069 167.925
27.5385 263.958
27.5700 329.299
27.6016 267.073
27.6331 171.885
27.6627 113.472
27.6922 79.4556
27.7217 59.2350
27.7513 46.6051
27.8104 32.6352
27.8694 25.6578
27.9876 19.4612
28.1058 17.1649
28.3421 16.5498
28.5785 18.8171
28.8148 24.8051
28.9330 30.5755
29.0511 40.3062
29.1693 58.5701
29.2284 74.4950
29.2875 99.8184
29.3466 144.030
29.3761 179.798
29.4056 232.298
29.4352 313.528
29.4647 447.338
29.4943 683.060
29.5238 1114.33
29.5519 1761.77
29.5800 2195.76
29.6081 1772.02
29.6362 1135.20
29.6617 758.952
29.6873 541.640
29.7128 416.614
29.7384 344.376
29.7639 304.305
29.7894 286.010
29.8150 284.564
29.8405 298.424
29.8660 328.712
29.8916 379.375
29.9171 458.359
29.9427 580.276
29.9682 772.378
29.9937 1086.34
30.0193 1621.67
30.0320 2023.78
30.0448 2549.59
30.0724 4108.14
30.1000 5191.43
30.1138 4918.60
30.1276 4211.81
30.1552 2676.70
30.1781 1809.77
30.2011 1269.60
30.2240 929.716
30.2469 707.686
30.2928 449.739
30.3387 313.077
30.3845 232.444
30.4304 180.960
30.5221 121.247
30.6138 89.0967
30.7056 69.7576
30.8890 48.7329
31.0724 38.8067
31.2559 35.5061
31.3476 37.0315
31.4393 43.3597
31.4852 50.5469
31.5311 63.7748
31.5769 90.1738
31.5999 113.494
31.6228 149.503
31.6416 194.205
31.6604 259.092
31.6753 327.599
31.6902 406.727
31.7200 509.635
31.7498 416.947
31.7796 271.417
31.8000 201.105
31.8204 153.375
31.8611 98.5900
31.9019 70.9143
31.9427 55.3524
32.0242 39.5265
32.1058 32.0608
32.2688 25.5942
32.4319 23.5158
32.5950 24.0646
32.7581 28.7363
32.8396 35.0116
32.9211 49.1796
32.9619 63.6500
33.0027 90.1992
33.0231 112.315
33.0434 145.022
33.0638 194.742
33.0842 270.519
33.1121 421.342
33.1400 523.248
33.1679 426.095
33.1958 278.661
33.2278 175.586
33.2598 124.925
33.2918 101.173
33.3238 92.7434
33.3557 96.0642
33.3877 112.931
33.4197 151.739
33.4517 231.233
33.4809 350.831
33.5100 432.075
33.5392 351.719
33.5683 229.584
33.5868 174.492
33.6053 136.028
33.6422 90.3644
33.6792 66.5109
33.7161 52.8635
33.7900 38.9767
33.8640 32.7488
34.0118 28.8017
34.1596 30.5470
34.3074 38.2045
34.3813 46.0012
34.4553 59.0839
34.5292 82.6012
34.6031 129.822
34.6400 172.692
34.6770 241.568
34.7140 358.018
34.7509 559.103
34.7905 891.478
34.8300 1118.28
34.8696 904.306
34.9091 576.009
34.9404 399.236
34.9717 287.604
35.0030 216.927
35.0344 170.995
35.0970 119.712
35.1596 97.3073
35.2222 92.9512
35.2849 109.024
35.3162 130.556
35.3475 169.968
35.3788 243.459
35.4101 382.150
35.4251 481.366
35.4401 595.797
35.4700 743.168
35.5000 605.523
35.5299 391.848
35.5539 274.624
35.5779 200.204
35.6019 152.568
35.6259 120.988
35.6739 83.6446
35.7218 63.4239
35.7698 51.2681
35.8178 43.3812
35.9138 34.1109
36.0097 29.1706
36.1057 26.4364
36.2976 24.8335
36.4895 27.9626
36.5855 32.4711
36.6815 41.1165
36.7774 58.8464
36.8254 75.0355
36.8734 101.372
36.9214 147.793
36.9693 239.279
36.9933 320.865
37.0173 449.602
37.0413 661.785
37.0653 1016.94
37.0927 1634.24
37.1200 2058.02
37.1474 1663.49
37.1747 1053.33
37.2023 655.736
37.2299 432.790
37.2575 304.037
37.2851 225.138
37.3127 173.947
37.3403 139.068
37.3954 96.1487
37.4506 71.8212
37.5058 56.7213
37.6162 39.7045
37.7265 30.8089
37.8369 25.5777
38.0576 20.0947
38.2783 17.8907
38.4991 18.3894
38.6094 20.6940
38.6646 23.1042
38.7198 27.2456
38.7750 34.8385
38.8301 50.3149
38.8577 64.4662
38.8853 87.2836
38.9129 125.915
38.9405 192.664
38.9703 304.141
39.0000 381.150
39.0298 310.548
39.0595 200.538
39.0830 141.008
39.1065 103.045
39.1299 78.6980
39.1534 62.5674
39.2004 43.5522
39.2473 33.3385
39.2943 27.2552
39.3412 23.3383
39.4351 18.7409
39.5290 16.2132
39.6229 14.6490
39.8107 12.8427
40.0628 11.5910
40.3148 10.8899
40.8189 10.1936
41.3229 10.0486
41.8270 10.4983
42.3311 12.1521
42.5831 14.0412
42.8352 17.6344
43.0872 25.3266
43.2132 32.7737
43.3392 45.7098
43.4653 70.8784
43.5283 93.2990
43.5913 129.213
43.6543 191.455
43.6858 240.857
43.7173 311.437
43.7488 416.172
43.7803 577.925
43.8118 837.268
43.8433 1257.32
43.8817 2025.72
43.9200 2553.66
43.9584 2062.62
43.9967 1303.21
44.0286 876.578
44.0604 611.734
44.0923 445.711
44.1242 337.661
44.1879 212.809
44.2516 147.223
44.3153 108.868
44.3791 84.6038
44.5065 56.8533
44.6340 42.2399
44.7614 33.6773
45.0163 24.8947
45.2712 21.6651
45.5261 22.9951
45.6536 27.0367
45.7173 31.0928
45.7810 37.9401
45.8447 50.3818
45.9085 75.7890
45.9403 99.2859
45.9722 137.781
46.0040 204.633
46.0359 324.151
46.0519 411.981
46.0680 512.826
46.1000 642.013
46.1321 521.531
46.1641 335.710
46.1845 251.706
46.2049 193.476
46.2458 125.320
46.2866 90.8438
46.3274 72.2415
46.4091 56.7991
46.4907 56.5601
46.5724 69.9303
46.6132 84.8071
46.6540 109.997
46.6948 154.649
46.7152 190.181
46.7357 240.758
46.7561 315.172
46.7765 428.462
46.7969 606.461
46.8173 887.713
46.8305 1139.01
46.8437 1428.66
46.8700 1804.36
46.8832 1709.44
46.8964 1464.11
46.9227 931.601
46.9462 614.234
46.9697 423.534
46.9932 307.082
47.0167 232.784
47.0637 148.436
47.1107 104.782
47.1577 79.4507
47.2047 63.5152
47.2988 45.5264
47.3928 36.6989
47.4868 33.3485
47.5338 34.0645
47.5808 37.8998
47.6278 49.1287
47.6513 61.0934
47.6748 81.2904
47.7024 117.618
47.7300 142.409
47.7576 118.260
47.7852 81.2177
47.8198 52.8333
47.8544 38.6806
47.8890 31.0805
47.9236 26.5684
47.9928 21.6180
48.0621 18.9916
48.2005 16.2115
48.3389 14.7059
48.6158 13.0777
48.8926 12.2865
49.4463 12.1387
49.7232 12.8428
50.0000 14.4416
50.1187 15.5811
50.4180 20.8562
50.5676 26.0444
50.7173 35.1115
50.8669 52.9492
50.9417 69.1224
51.0165 95.6815
51.0914 143.801
51.1288 183.950
51.1662 244.415
51.2036 340.914
51.2410 506.284
51.2784 813.390
51.3158 1414.15
51.3479 2253.76
51.3800 2817.06
51.4121 2262.20
51.4442 1423.98
51.4635 1064.29
51.4829 810.357
51.5215 505.707
51.5602 346.620
51.5989 257.425
51.6375 204.985
51.6762 174.002
51.7148 157.064
51.7535 150.733
51.7922 153.956
51.8308 167.629
51.8695 194.987
51.8888 215.779
51.9082 243.097
51.9275 279.046
51.9468 326.632
51.9662 390.367
51.9855 477.001
52.0048 596.757
52.0241 765.026
52.0435 1003.99
52.0628 1341.01
52.0964 2176.84
52.1300 2775.67
52.1468 2643.74
52.1636 2277.49
52.1972 1467.53
52.2215 1053.84
52.2458 777.439
52.2701 592.862
52.2944 466.545
52.3429 312.435
52.3915 226.851
52.4401 174.836
52.4887 141.072
52.5858 102.034
52.6830 83.0963
52.7801 77.7476
52.8287 81.8220
52.8773 95.2979
52.9258 131.718
52.9501 170.045
52.9744 234.900
53.0022 348.577
53.0300 425.998
53.0578 351.385
53.0856 237.405
53.1045 183.070
53.1234 146.334
53.1612 104.654
53.1990 84.4337
53.2368 74.1839
53.3123 68.0492
53.3879 74.1781
53.4635 95.4942
53.5013 116.625
53.5391 151.415
53.5768 212.148
53.6146 328.002
53.6335 427.288
53.6524 577.362
53.6713 811.088
53.6902 1176.66
53.7151 1890.81
53.7400 2386.58
53.7649 1938.43
53.7898 1235.61
53.8083 872.370
53.8268 634.201
53.8453 477.777
53.8638 372.172
53.9009 245.397
53.9379 176.152
53.9749 134.493
54.0119 107.534
54.0859 75.8430
54.1600 58.4977
54.2340 47.8749
54.3821 35.8664
54.5302 29.4255
54.6782 25.4849
54.9744 21.0696
55.2705 19.0612
55.4186 18.7958
55.5666 19.2639
55.7147 21.2012
55.7887 23.3592
55.8628 27.2353
55.9368 34.7424
55.9738 41.2563
56.0108 51.3175
56.0479 67.7967
56.0849 96.8252
56.1219 152.550
56.1404 199.333
56.1589 266.039
56.1742 338.880
56.1895 422.888
56.2200 532.101
56.2506 433.866
56.2811 279.650
56.3043 198.548
56.3275 145.921
56.3507 111.647
56.3740 88.6585
56.4204 61.2396
56.4668 46.3556
56.5132 37.4352
56.5597 31.6758
56.6525 24.9128
56.7453 21.2105
56.8382 18.9395
57.0239 16.3701
57.2096 15.0069
57.3953 14.2156
57.7667 13.5995
58.1380 14.2082
58.3237 15.3353
58.5094 17.6992
58.6951 22.9700
58.7880 28.1179
58.8808 37.0260
58.9737 54.1115
59.0201 69.0402
59.0665 92.4282
59.1129 131.635
59.1594 203.303
59.1826 262.493
59.2058 349.113
59.2290 478.733
59.2522 672.603
59.2692 863.721
59.2861 1084.17
59.3200 1370.51
59.3370 1299.04
59.3539 1113.06
59.3878 708.714
59.4144 490.590
59.4410 350.991
59.4676 261.220
59.4942 201.636
59.5473 131.319
59.6005 93.5882
59.6537 71.1823
59.7069 56.8335
59.8132 40.1726
59.9196 31.2040
60.0259 25.7992
60.2386 19.8329
60.4513 16.7459
60.6640 14.9317
61.0894 13.0691
61.5148 12.5923
61.7275 12.9625
61.9402 14.1569
62.1529 17.3198
62.2593 20.6797
62.3656 26.8576
62.4720 39.6146
62.5251 51.5534
62.5783 71.5510
62.6315 108.361
62.6581 139.292
62.6847 185.913
62.7112 260.097
62.7378 385.937
62.7511 482.606
62.7644 614.913
62.7777 797.864
62.7910 1049.05
62.8155 1697.69
62.8400 2151.15
62.8523 2040.09
62.8645 1748.30
62.8890 1112.48
62.9149 681.698
62.9407 445.278
62.9665 310.944
62.9924 229.510
63.0182 177.044
63.0441 141.461
63.0957 97.8413
63.1544 70.6773
63.2131 54.7284
63.2719 44.5504
63.3306 37.6500
63.4480 29.1509
63.5654 24.3597
63.6828 21.5664
63.8002 20.3278
63.8589 20.5439
63.9176 22.0275
63.9470 23.7986
63.9763 27.0289
64.0057 33.1252
64.0350 44.8487
64.0625 62.7793
64.0900 75.3776
64.1175 64.0881
64.1450 46.1891
64.1762 33.2902
64.2075 26.4284
64.2387 22.5867
64.2699 20.2558
64.3324 17.6846
64.3949 16.3534
64.5198 15.0977
64.6447 14.7369
64.7696 15.1797
64.8321 15.9095
64.8946 17.3224
64.9570 20.1342
65.0195 26.3374
65.0507 32.4127
65.0819 42.8911
65.1132 62.3301
65.1444 100.078
65.1722 155.142
65.2000 193.583
65.2278 159.175
65.2556 105.033
65.2875 66.0696
65.3195 45.7527
65.3514 34.6259
65.3833 28.0423
65.4152 23.8611
65.4472 21.0495
65.5110 17.6137
65.5749 15.6592
65.6387 14.4272
65.7664 12.9856
65.8941 12.1737
66.0218 11.6487
66.2772 10.9945
66.7880 10.3140
67.2988 10.0065
67.8095 10.0678
68.0649 10.3769
68.3203 11.1361
68.5757 13.0235
68.7034 15.0026
68.8311 18.6328
68.9588 26.1346
69.0227 33.1664
69.0865 44.9681
69.1504 66.7505
69.1823 85.1054
69.2142 112.845
69.2461 157.131
69.2781 232.574
69.2940 290.748
69.3100 370.724
69.3259 481.803
69.3419 635.038
69.3564 816.873
69.3710 1026.89
69.4000 1301.49
69.4145 1234.63
69.4291 1058.57
69.4581 674.680
69.4874 423.418
69.5166 281.753
69.5458 199.545
69.5751 148.991
69.6043 116.066
69.6336 93.5695
69.6921 65.7731
69.7505 49.9324
69.8090 40.0556
69.9260 28.8534
70.0430 22.9390
70.1599 19.4102
70.2769 17.1181
70.3939 15.5334
70.6278 13.5181
70.8618 12.3091
71.3297 10.9426
71.7975 10.1866
72.2654 9.69656
73.2012 9.07262
74.1370 8.67350
75.0728 8.43165
75.5406 8.42637
75.7746 8.50383
76.0085 8.70976
76.2425 9.22842
76.3595 9.76755
76.4764 10.7442
76.5934 12.7298
76.6519 14.5668
76.7104 17.6168
76.7689 23.1750
76.7981 27.8056
76.8273 34.7374
76.8566 45.6689
76.8858 63.9877
76.9151 96.7819
76.9443 157.704
76.9582 200.955
76.9722 250.862
77.0000 315.992
77.0279 258.170
77.0557 166.906
77.0772 118.205
77.0988 86.8445
77.1203 66.5638
77.1418 53.0624
77.1849 37.1185
77.2279 28.6157
77.2710 23.6631
77.3140 20.6182
77.4001 17.5792
77.4862 17.0419
77.5723 19.2430
77.6154 22.3876
77.6584 28.7910
77.6799 34.4244
77.7015 43.0596
77.7230 56.6914
77.7445 78.2764
77.7723 119.795
77.8000 148.668
77.8278 122.598
77.8555 81.7349
77.8832 55.2040
77.9110 40.2377
77.9387 31.5788
77.9664 26.2998
78.0219 20.6759
78.0774 18.1179
78.1883 16.7247
78.2993 18.1368
78.4102 22.9529
78.4657 27.8165
78.5211 36.0661
78.5766 51.1575
78.6321 82.2068
78.6598 111.019
78.6875 158.234
78.7014 193.336
78.7153 240.036
78.7291 302.604
78.7430 385.601
78.7573 494.922
78.7715 621.268
78.8000 786.643
78.8143 746.800
78.8285 641.197
78.8570 410.477
78.8750 305.908
78.8930 232.650
78.9290 145.371
78.9650 99.6684
79.0010 73.4388
79.0370 57.1595
79.0729 46.4061
79.1449 33.5554
79.2169 26.4597
79.2889 22.1322
79.4328 17.3786
79.5733 15.1472
79.7139 14.3500
79.7841 14.6417
79.8544 16.0030
79.8895 17.6064
79.9246 20.6291
79.9598 26.7435
79.9949 39.8431
80.0225 57.4890
80.0500 69.9422
80.0776 59.0496
80.1051 41.7231
80.1282 31.8430
80.1513 25.7053
80.1744 21.8629
80.1975 19.3729
80.2436 16.5394
80.2898 15.1385
80.3822 14.1835
80.4745 14.6199
80.5669 16.6188
80.6130 18.6789
80.6592 22.1357
80.7054 28.2938
80.7516 40.3592
80.7746 50.9758
80.7977 67.4518
80.8208 93.9777
80.8439 137.088
80.8720 216.131
80.9000 271.018
80.9281 221.321
80.9561 143.491
80.9810 97.2959
81.0059 69.4375
81.0307 52.3878
81.0556 41.4817
81.1054 29.0714
81.1551 22.6230
81.2049 18.8611
81.2546 16.4742
81.3542 13.7126
81.4537 12.2183
81.5532 11.3069
81.7522 10.2792
81.9512 9.73648
82.1503 9.42528
82.5483 9.20447
82.9464 9.52293
83.1454 10.0612
83.3444 11.1819
83.5434 13.6959
83.6429 16.1789
83.7425 20.5385
83.8420 29.1003
83.8917 36.7774
83.9415 49.1357
83.9912 70.6904
84.0410 112.570
84.0659 149.406
84.0908 206.723
84.1156 299.463
84.1405 451.220
84.1703 725.924
84.2000 916.799
84.2298 744.482
84.2595 474.412
84.2809 338.783
84.3023 248.682
84.3236 188.848
84.3450 148.129
84.3878 98.9486
84.4305 72.0762
84.4733 56.0833
84.5160 46.0048
84.6016 35.2413
84.6871 31.7850
84.7726 35.3388
84.8153 41.9612
84.8581 56.1095
84.8795 68.7420
84.9009 88.1871
84.9222 118.851
84.9436 167.231
84.9577 211.468
84.9718 262.774
85.0000 330.508
85.0282 272.017
85.0564 178.176
85.0775 129.131
85.0985 96.8460
85.1196 75.5504
85.1406 61.1059
85.1827 43.6053
85.2248 33.9051
85.2669 27.9690
85.3090 24.0546
85.3932 19.3154
85.4774 16.6066
85.5615 14.8737
85.7299 12.7975
85.8983 11.5973
86.0667 10.8119
86.4034 9.83670
86.7402 9.24514
87.0769 8.84031
87.7505 8.30790
88.4240 7.97224
89.0975 7.80313
89.4342 7.85613
89.6026 7.97951
89.7710 8.25762
89.9394 8.90755
90.0236 9.55873
90.1078 10.7058
90.1919 12.9507
90.2340 14.9485
90.2761 18.1318
90.3182 23.5936
90.3603 33.9209
90.3814 42.7444
90.4024 56.0688
90.4235 76.8252
90.4445 109.285
90.4723 172.828
90.5000 217.231
90.5278 177.797
90.5555 115.496
90.5850 73.0135
90.6145 49.7921
90.6440 36.6458
90.6735 28.6982
90.7031 23.5887
90.7326 20.1299
90.7916 15.9013
90.8506 13.5206
90.9096 12.0540
91.0276 10.4288
91.1457 9.62239
91.2637 9.20605
91.4998 9.01638
91.7358 9.58536
91.8539 10.3350
91.9719 11.7263
92.0899 14.4981
92.1489 16.9840
92.2079 20.9907
92.2670 28.0473
92.3260 42.2006
92.3555 55.2501
92.3850 76.7751
92.4145 114.787
92.4293 144.491
92.4440 184.657
92.4580 233.796
92.4720 290.384
92.5000 364.538
92.5280 301.865
92.5560 203.703
92.5794 150.557
92.6029 121.190
92.6263 107.849
92.6498 106.386
92.6732 116.140
92.6966 139.801
92.7201 184.345
92.7435 261.823
92.7576 329.081
92.7718 407.530
92.8000 510.777
92.8283 418.183
92.8565 271.326
92.8751 202.253
92.8936 154.364
92.9308 97.9722
92.9679 68.6206
93.0050 51.7458
93.0422 41.1975
93.0793 34.1653
93.1536 25.6283
93.2279 20.8092
93.3021 17.8117
93.4507 14.4619
93.5992 12.9056
93.7477 12.6535
93.8220 13.3323
93.8963 15.4408
93.9334 17.7934
93.9705 22.2138
94.0077 31.3038
94.0262 39.3891
94.0448 51.4468
94.0724 77.5762
94.1000 95.9758
94.1276 79.8220
94.1552 54.1556
94.1785 39.4499
94.2017 30.3180
94.2250 24.5884
94.2482 20.8504
94.2947 16.5071
94.3412 14.2015
94.4342 11.9733
94.5272 10.9943
94.7132 10.3474
94.8992 10.6141
95.0852 11.9872
95.1782 13.5106
95.2712 16.2703
95.3642 21.7689
95.4107 26.7226
95.4572 34.7082
95.5037 48.6273
95.5502 75.6034
95.5735 99.2334
95.5967 135.832
95.6083 161.689
95.6200 194.668
95.6316 236.857
95.6432 290.251
95.6574 372.146
95.6716 466.872
95.7000 591.355
95.7142 561.966
95.7284 483.265
95.7568 310.926
95.7813 210.234
95.8059 148.598
95.8304 110.459
95.8550 85.9121
95.9040 57.9269
95.9531 43.5816
96.0022 35.5472
96.0513 30.8889
96.1494 27.2049
96.2476 29.0381
96.2966 32.5816
96.3457 39.2055
96.3948 51.5949
96.4439 76.4977
96.4684 98.7005
96.4929 133.484
96.5175 190.099
96.5420 283.226
96.5710 449.812
96.6000 564.356
96.6290 458.012
96.6580 293.102
96.6827 198.581
96.7073 140.498
96.7320 104.387
96.7567 81.0253
96.8060 54.1747
96.8553 40.1348
96.9046 31.9515
96.9540 26.7992
97.0526 20.9955
97.1513 18.1091
97.2499 16.6704
97.4472 16.3379
97.6445 19.3464
97.7432 23.0712
97.8418 29.9781
97.9405 43.8535
97.9898 56.3477
98.0391 76.3963
98.0884 111.045
98.1378 177.151
98.1624 234.114
98.1871 320.820
98.2117 457.152
98.2364 672.917
98.2682 1088.64
98.3000 1380.26
98.3318 1122.87
98.3636 715.495
98.3892 491.012
98.4147 348.846
98.4403 258.233
98.4659 198.473
98.5170 128.422
98.5682 91.0380
98.6193 68.8998
98.6704 54.7398
98.7727 38.3128
98.8750 29.4712
98.9773 24.1488
99.1818 18.3188
99.3864 15.4441
99.5909 14.1309
99.6932 14.0414
99.7955 14.5880
99.8977 16.5500
99.9489 18.7935
100.000 23.0509
100.036 28.5765
100.072 38.6084
100.108 58.5852
100.126 75.9104
100.144 101.278
100.172 158.356
100.200 198.770
100.228 163.906
100.256 108.143
100.290 66.2111
100.324 45.0422
100.358 33.7288
100.392 27.1466
100.460 20.2935
100.528 17.0420
100.664 14.3619
100.800 13.8336
100.936 14.9444
101.004 16.4874
101.072 19.3624
101.140 25.0055
101.174 29.9227
101.208 37.5340
101.242 50.0158
101.276 72.0391
101.310 114.357
101.327 149.903
101.344 200.622
101.358 255.812
101.372 319.466
101.400 402.713
101.428 330.001
101.456 213.841
101.474 159.199
101.493 121.399
101.530 77.2461
101.566 54.5159
101.603 41.7423
101.640 33.9697
101.677 29.0273
101.750 23.7409
101.824 22.2040
101.897 24.4217
101.934 28.0807
101.971 35.4467
102.007 50.9711
102.026 64.7835
102.044 85.1680
102.072 130.590
102.100 162.525
102.128 133.887
102.156 88.8705
102.190 55.0542
102.224 38.0800
102.259 28.9546
102.293 23.6203
102.361 17.9470
102.429 15.1254
102.566 12.4411
102.702 11.1972
102.975 10.1171
103.249 9.88745
103.522 10.4818
103.658 11.3671
103.795 13.1359
103.931 16.9552
104.000 20.6028
104.068 26.7803
104.136 38.3214
104.170 48.1550
104.205 63.1066
104.239 87.3166
104.273 129.101
104.307 207.254
104.324 271.519
104.341 360.885
104.371 578.858
104.400 730.451
104.430 596.452
104.459 382.902
104.481 272.582
104.502 199.886
104.524 151.738
104.546 119.030
104.589 79.5383
104.632 57.8725
104.675 44.8111
104.718 36.4019
104.805 26.6026
104.891 21.3686
104.978 18.3215
105.151 15.4331
105.323 15.1522
105.410 16.0988
105.496 18.3455
105.583 23.2893
105.626 27.8560
105.669 35.2392
105.712 48.0030
105.756 72.2044
105.777 92.8543
105.799 123.975
105.820 172.239
105.842 247.407
105.857 316.925
105.871 397.489
105.900 503.912
105.929 412.633
105.958 266.345
105.992 159.226
106.026 103.842
106.060 73.7585
106.094 56.1273
106.127 44.9922
106.161 37.5903
106.229 28.7895
106.297 24.0947
106.365 21.5131
106.500 19.8913
106.636 22.1961
106.703 25.5798
106.771 31.8996
106.839 44.2893
106.873 55.0383
106.907 71.5324
106.940 98.4434
106.974 145.407
106.991 182.524
107.008 234.175
107.025 307.340
107.042 410.382
107.057 526.686
107.071 661.142
107.100 837.303
107.129 682.707
107.158 437.167
107.177 323.892
107.195 245.441
107.233 152.456
107.270 104.148
107.307 76.6076
107.344 59.4993
107.382 48.2094
107.456 34.7182
107.531 27.2228
107.605 22.6137
107.754 17.4067
107.903 14.6383
108.052 12.9711
108.351 11.1582
108.649 10.4282
108.798 10.4314
108.947 10.8429
109.096 12.1280
109.170 13.5015
109.245 15.9558
109.320 20.7489
109.357 24.9577
109.394 31.5251
109.431 42.5026
109.469 62.2933
109.506 101.857
109.524 136.194
109.543 186.581
109.557 238.446
109.572 297.864
109.600 375.900
109.629 307.795
109.657 198.971
109.678 142.519
109.699 105.299
109.720 80.7472
109.741 64.1814
109.783 44.1483
109.826 33.1534
109.868 26.5076
109.910 22.2093
109.994 17.1449
110.078 14.3662
110.163 12.6659
110.331 10.7464
110.500 9.72814
110.668 9.12728
111.005 8.59009
111.342 8.82288
111.511 9.44212
111.679 10.8299
111.848 14.0733
111.932 17.3493
112.016 23.1785
112.100 34.8252
112.142 45.3986
112.185 62.6294
112.227 93.2623
112.248 118.111
112.269 154.137
112.290 209.169
112.311 296.529
112.332 443.373
112.353 692.807
112.377 1126.46
112.400 1431.83
112.424 1157.88
112.447 731.461
112.468 483.836
112.488 334.100
112.509 242.182
112.529 183.256
112.570 116.116
112.611 81.2649
112.652 61.0313
112.693 48.2949
112.775 33.8428
112.857 26.3862
112.939 22.2325
113.103 18.9886
113.267 20.8030
113.349 24.5534
113.431 32.3270
113.472 39.0559
113.513 49.2276
113.554 65.2982
113.575 76.9448
113.595 92.3112
113.616 113.058
113.636 141.850
113.657 183.153
113.677 244.826
113.698 341.468
113.718 501.729
113.739 783.636
113.749 1003.23
113.759 1294.70
113.780 2108.41
113.800 2687.03
113.821 2199.16
113.841 1409.28
113.861 893.775
113.882 599.509
113.902 425.636
113.922 318.123
113.942 247.201
113.963 198.646
114.003 138.008
114.044 103.138
114.084 81.2207
114.165 56.1260
114.246 42.7216
114.327 34.6469
114.489 25.6982
114.651 21.0439
114.813 18.3154
115.137 15.6136
115.461 15.1854
115.623 15.9811
115.785 18.0778
115.947 23.0737
116.028 28.0125
116.109 36.5316
116.190 52.6609
116.231 66.5284
116.271 87.8728
116.312 122.744
116.352 184.126
116.393 301.957
116.413 401.277
116.433 542.516
116.467 877.613
116.500 1113.43
116.534 904.391
116.567 575.521
116.598 374.869
116.629 256.490
116.660 185.293
116.691 140.330
116.752 89.8009
116.814 63.8623
116.876 48.8667
116.938 39.4206
117.061 28.6068
117.185 22.8359
117.308 19.3776
117.556 15.6107
117.803 13.8657
118.050 13.5928
118.173 14.4876
118.235 15.5738
118.297 17.5644
118.359 21.4472
118.421 29.9420
118.451 38.2340
118.482 52.4965
118.513 78.8453
118.544 129.493
118.558 164.470
118.572 205.075
118.600 258.943
118.628 213.138
118.656 139.480
118.674 105.197
118.692 81.3887
118.729 53.3919
118.765 38.8460
118.801 30.5192
118.838 25.3457
118.874 21.9154
118.947 17.7773
119.019 15.4473
119.092 13.9863
119.237 12.2844
119.527 10.7217
119.818 9.98362
120.399 9.32155
120.980 9.27382
121.560 10.0906
121.851 11.2178
122.141 13.4887
122.432 18.5064
122.577 23.4159
122.722 31.9607
122.867 48.5161
122.940 63.1489
123.013 86.3535
123.085 125.930
123.158 200.241
123.194 263.294
123.230 357.978
123.267 504.280
123.303 731.103
123.352 1177.54
123.400 1487.87
123.449 1206.51
123.498 765.179
123.551 463.524
123.604 301.098
123.656 209.967
123.709 155.579
123.762 121.036
123.815 98.2065
123.920 72.1273
124.026 61.7286
124.131 65.9979
124.184 78.3015
124.237 107.290
124.263 135.078
124.289 180.576
124.316 258.079
124.342 391.261
124.357 496.970
124.371 619.300
124.400 780.381
124.429 641.292
124.458 417.492
124.481 296.518
124.503 218.397
124.525 167.488
124.548 133.276
124.593 92.1972
124.637 69.7187
124.682 56.0455
124.727 47.1146
124.817 36.4415
124.906 30.5282
124.996 26.9973
125.175 23.8074
125.355 24.5608
125.444 26.9559
125.534 31.8536
125.624 41.7106
125.713 63.1891
125.758 83.9550
125.803 119.321
125.848 185.112
125.870 240.133
125.893 321.366
125.914 436.602
125.935 605.595
125.968 981.108
126.000 1248.36
126.033 1023.33
126.065 658.580
126.104 385.798
126.143 246.198
126.181 170.506
126.220 126.192
126.259 98.1501
126.298 79.4268
126.375 56.6606
126.453 43.8373
126.530 35.8515
126.685 26.7171
126.840 21.7827
126.995 18.7504
127.305 15.2792
127.615 13.4360
127.925 12.5589
128.080 12.6010
128.235 13.5204
128.313 14.9251
128.390 18.3077
128.429 21.8845
128.468 28.5314
128.506 42.3668
128.526 54.8734
128.545 73.6916
128.573 112.798
128.600 140.298
128.628 116.747
128.655 78.6423
128.689 49.2975
128.723 34.6447
128.757 26.8553
128.791 22.3753
128.859 17.7702
128.927 15.6599
129.063 14.1126
129.200 14.1521
129.336 15.4995
129.472 19.4484
129.540 24.0330
129.608 33.7224
129.642 43.1807
129.676 59.6387
129.710 91.0365
129.727 117.348
129.744 154.890
129.758 195.797
129.772 243.110
129.800 305.851
129.828 253.578
129.856 168.807
129.883 114.710
129.910 83.7825
129.937 65.7546
129.964 54.9279
130.018 43.9955
130.072 40.0671
130.180 41.8650
130.289 53.2772
130.397 79.4534
130.451 103.395
130.505 141.504
130.559 206.319
130.613 325.806
130.640 425.508
130.667 571.531
130.694 790.852
130.721 1120.13
130.761 1824.91
130.800 2327.12
130.840 1905.96
130.879 1222.86
130.911 837.944
130.944 595.266
130.976 440.300
131.008 338.471
131.073 218.828
131.137 154.830
131.202 116.818
131.266 92.4121
131.395 63.9280
131.524 48.4590
131.653 39.0540
131.911 28.5798
132.169 23.2307
132.427 20.6516
132.556 20.5799
132.685 22.6035
132.750 25.7950
132.814 33.3046
132.846 40.9173
132.879 54.2773
132.911 79.6670
132.943 129.991
132.957 164.601
132.972 204.878
133.000 260.248
133.029 217.371
133.057 145.517
133.079 107.379
133.100 82.3202
133.122 65.8343
133.143 54.7265
133.186 41.2960
133.229 33.9960
133.315 27.0335
133.401 24.6168
133.486 25.0571
133.529 26.6229
133.572 29.7255
133.615 35.6606
133.658 47.5114
133.680 57.9149
133.701 73.7632
133.723 98.8366
133.744 138.280
133.772 215.460
133.800 270.122
133.828 223.062
133.856 147.518
133.881 102.480
133.905 75.0752
133.930 58.1702
133.955 47.3144
134.004 34.8046
134.053 28.2227
134.103 24.3534
134.152 21.9016
134.251 19.1972
134.349 18.1987
134.448 18.9222
134.497 20.5633
134.546 24.3557
134.571 27.9669
134.596 33.8229
134.620 43.7709
134.645 60.7340
134.673 90.0619
134.700 110.811
134.728 93.0572
134.755 64.2881
134.778 47.5447
134.802 37.0949
134.825 30.5077
134.848 26.2022
134.895 21.1235
134.941 18.3777
135.034 15.5944
135.127 14.2175
135.314 12.8238
135.500 12.0775
135.872 11.2499
136.245 10.9015
136.617 11.1738
136.803 11.8266
136.989 13.3244
137.176 16.9047
137.269 20.5523
137.362 27.0488
137.455 39.8699
137.501 51.3257
137.548 69.5248
137.595 100.652
137.618 124.895
137.641 158.687
137.664 207.631
137.688 280.091
137.711 391.095
137.734 560.107
137.767 917.375
137.800 1176.27
137.833 963.629
137.866 618.290
137.905 364.298
137.944 233.487
137.982 162.283
138.021 120.282
138.060 93.6818
138.098 75.8328
138.176 54.1245
138.253 41.8926
138.331 34.2882
138.485 25.6360
138.640 21.0141
138.795 18.2134
139.105 15.0816
139.414 13.5062
139.724 12.9894
139.879 13.4446
139.956 14.1260
140.033 15.4786
140.111 18.2966
140.150 20.8586
140.188 24.9585
140.227 31.9497
140.266 44.9147
140.304 71.6029
140.324 95.5760
140.343 131.446
140.357 167.598
140.372 209.456
140.400 266.278
140.429 220.930
140.457 145.782
140.485 97.0665
140.513 68.9110
140.540 52.1422
140.568 41.6806
140.624 29.9690
140.679 23.9786
140.735 20.5296
140.790 18.3847
140.901 16.0912
141.012 15.3454
141.123 16.2222
141.179 17.9334
141.234 21.9016
141.262 25.7726
141.290 32.2588
141.317 43.8079
141.345 64.7500
141.373 97.6967
141.400 120.769
141.428 100.643
141.455 68.3089
141.487 44.5069
141.519 32.0962
141.551 25.2592
141.583 21.2074
141.647 16.8570
141.711 14.6837
141.774 13.4171
141.838 12.5988
141.966 11.6004
142.221 10.5925
142.477 10.0387
142.988 9.36784
143.499 8.95130
144.009 8.74670
144.265 8.78674
144.520 9.04647
144.776 9.84612
144.904 10.7356
145.031 12.4010
145.159 15.8775
145.223 19.1501
145.287 24.6401
145.351 34.7911
145.382 43.3306
145.414 56.2353
145.446 76.9046
145.478 112.034
145.510 176.356
145.526 228.264
145.542 299.420
145.571 481.595
145.600 609.181
145.629 496.142
145.658 317.502
145.677 235.626
145.695 178.884
145.732 111.706
145.769 76.6887
145.806 56.7623
145.843 44.4246
145.880 36.3407
145.954 26.7648
146.028 21.5790
146.102 18.5413
146.251 15.6564
146.399 15.3726
146.473 16.2882
146.547 18.4263
146.621 23.0202
146.658 27.1631
146.695 33.7051
146.732 44.6950
146.769 64.5494
146.806 104.114
146.825 138.525
146.843 189.071
146.857 241.526
146.872 301.854
146.900 381.248
146.929 311.160
146.957 200.599
146.976 149.546
146.994 114.212
147.031 72.7676
147.068 51.4153
147.105 39.3379
147.179 27.0671
147.253 21.4638
147.401 17.1912
147.549 16.8919
147.696 19.8827
147.770 23.4802
147.844 29.9609
147.918 42.5171
147.955 53.4212
147.992 70.2523
148.029 97.9935
148.048 118.867
148.066 147.058
148.085 186.455
148.103 242.507
148.122 323.565
148.140 439.629
148.170 711.593
148.200 904.135
148.215 858.321
148.230 736.225
148.260 470.232
148.280 345.157
148.300 259.674
148.339 160.179
148.379 109.321
148.419 80.6459
148.458 63.0916
148.498 51.7267
148.577 38.5917
148.656 31.9271
148.736 28.5768
148.894 27.6587
149.053 33.8502
149.132 41.2876
149.211 54.5057
149.251 64.9353
149.290 79.5739
149.330 100.860
149.370 133.158
149.409 185.028
149.449 273.566
149.469 342.073
149.488 436.562
149.508 568.347
149.528 751.143
149.564 1223.38
149.600 1564.98
149.636 1285.76
149.672 833.142
149.701 584.666
149.730 429.002
149.759 331.426
149.787 269.297
149.845 204.926
149.903 187.205
149.960 206.416
150.018 278.797
150.047 352.150
150.075 472.474
150.104 674.564
150.133 1015.30
150.167 1625.86
150.200 2061.28
150.234 1694.74
150.267 1097.70
150.296 741.461
150.326 522.632
150.355 386.571
150.384 298.327
150.443 196.165
150.501 141.940
150.560 109.588
150.618 88.6916
150.736 63.8924
150.853 50.0652
150.970 41.4498
151.204 31.5819
151.438 26.5630
151.673 24.9092
151.790 26.2208
151.848 28.1502
151.907 31.8523
151.965 39.2013
152.024 55.1612
152.053 70.4719
152.083 96.1350
152.112 141.669
152.141 224.501
152.156 286.925
152.171 359.412
152.200 458.497
152.230 380.894
152.259 251.246
152.285 172.373
152.312 124.589
152.338 94.9984
152.364 75.9868
152.417 54.0310
152.470 42.3986
152.523 35.4702
152.575 30.9731
152.681 25.5927
152.786 22.5230
152.891 20.5480
153.102 18.1614
153.313 16.8428
153.524 16.3585
153.629 16.6946
153.734 18.2028
153.787 20.1619
153.840 24.3648
153.866 28.3346
153.892 34.8467
153.919 46.1108
153.945 66.0184
153.973 98.6840
154.000 121.896
154.028 102.488
154.055 70.6941
154.072 56.2696
154.089 46.0204
154.123 33.6124
154.158 26.9867
154.192 23.1249
154.260 19.0307
154.328 16.9974
154.465 15.0459
154.602 14.1061
154.875 13.1953
155.148 12.8815
155.421 13.2101
155.558 13.8651
155.695 15.2832
155.831 18.5080
155.900 21.6699
155.968 27.1215
156.036 37.4426
156.070 46.3205
156.104 59.9083
156.139 82.0613
156.173 120.586
156.190 151.009
156.207 193.620
156.224 254.091
156.241 338.889
156.256 436.398
156.271 549.095
156.300 700.012
156.330 573.414
156.359 369.185
156.392 223.381
156.426 146.298
156.459 103.674
156.492 78.2778
156.526 62.0898
156.559 51.1807
156.625 37.8760
156.692 30.3398
156.759 25.6447
156.892 20.2904
157.025 17.4115
157.158 15.6525
157.424 13.6351
157.691 12.5152
157.957 11.8065
158.489 11.0542
158.877 11.0544
159.071 11.3954
159.265 12.2627
159.459 14.3992
159.556 16.5898
159.652 20.5061
159.749 28.2946
159.798 35.3277
159.846 46.6515
159.895 66.4361
159.943 104.655
159.967 138.216
159.992 189.884
160.016 272.650
160.040 406.623
160.070 658.536
160.100 837.487
160.130 682.795
160.160 436.754
160.182 313.342
160.203 231.193
160.225 176.510
160.246 139.196
160.289 93.9208
160.332 69.0095
160.375 53.9451
160.418 44.2274
160.504 33.0003
160.590 27.1799
160.676 24.0514
160.848 22.2627
161.019 25.6434
161.105 30.4897
161.191 39.7125
161.277 58.3636
161.320 75.0396
161.363 101.376
161.406 145.909
161.428 180.157
161.449 227.295
161.471 294.528
161.492 392.594
161.514 538.588
161.535 754.485
161.568 1234.44
161.600 1582.33
161.616 1508.64
161.633 1300.69
161.665 837.858
161.691 583.629
161.716 420.851
161.742 315.331
161.768 245.256
161.819 161.881
161.870 116.720
161.922 89.6517
161.973 72.1473
162.075 51.5480
162.178 40.2464
162.281 33.3077
162.486 25.4500
162.691 21.2226
162.896 18.6220
163.306 15.6040
163.717 13.8931
164.127 12.7691
164.948 11.3256
165.768 10.4154
166.179 10.1253
166.589 10.0344
166.999 10.4501
167.204 11.1537
167.409 12.7013
167.615 16.3643
167.717 20.0985
167.820 26.7630
167.922 40.0009
167.974 51.8834
168.025 70.9135
168.076 103.653
168.102 129.393
168.128 165.549
168.153 218.369
168.179 297.479
168.204 419.677
168.230 609.127
168.265 995.137
168.300 1273.69
168.335 1046.19
168.370 673.533
168.399 459.444
168.429 325.932
168.458 241.387
168.487 186.204
168.546 121.742
168.604 87.4854
168.662 67.1598
168.721 54.1408
168.838 39.0060
168.955 30.8384
169.072 25.9524
169.306 20.8368
169.539 19.0895
169.656 19.3605
169.773 20.8687
169.890 24.9228
169.949 28.9956
170.007 35.9404
170.066 48.7747
170.124 75.3759
170.153 100.337
170.183 141.417
170.212 213.210
170.241 342.332
170.271 548.996
170.300 694.790
170.330 568.439
170.359 366.480
170.390 230.450
170.420 154.984
170.451 111.785
170.482 85.4740
170.543 56.9612
170.605 42.9396
170.666 35.1943
170.727 30.6884
170.850 26.9183
170.973 28.2369
171.034 31.4158
171.096 37.7077
171.157 50.2147
171.218 77.3937
171.249 103.505
171.280 147.540
171.310 226.524
171.326 288.436
171.341 372.254
171.356 477.027
171.371 597.261
171.400 757.082
171.415 720.580
171.430 619.860
171.460 399.017
171.491 252.298
171.522 170.356
171.552 123.098
171.583 94.1693
171.645 62.3189
171.706 46.2884
171.768 37.0751
171.829 31.3010
171.952 24.7271
172.075 21.3265
172.198 19.4890
172.445 18.5517
172.691 21.3167
172.814 25.2891
172.937 33.1373
173.060 49.8513
173.121 65.5195
173.183 91.4966
173.214 111.213
173.245 138.235
173.275 176.367
173.306 231.845
173.337 316.410
173.368 450.297
173.398 672.946
173.429 1046.27
173.465 1712.81
173.500 2195.66
173.536 1811.37
173.571 1171.86
173.602 790.131
173.633 555.334
173.664 408.460
173.694 313.427
173.756 203.325
173.818 145.182
173.879 110.771
173.941 88.7586
174.064 63.0334
174.188 49.0125
174.311 40.4388
174.558 30.7853
174.804 25.7283
175.051 23.0738
175.174 22.7102
175.297 23.9057
175.359 26.1037
175.421 31.4338
175.452 36.8854
175.482 46.4389
175.513 64.3807
175.544 99.5183
175.572 152.891
175.600 192.650
175.628 162.663
175.656 111.539
175.674 87.6926
175.692 70.9543
175.727 50.7619
175.763 40.0237
175.799 33.7451
175.835 29.7621
175.870 27.0643
175.942 23.7073
176.013 21.7199
176.084 20.4083
176.227 18.7641
176.513 17.0476
176.798 16.1753
177.084 15.8887
177.226 16.0843
177.369 16.7632
177.512 18.5646
177.583 20.4295
177.655 23.7202
177.726 30.0803
177.762 35.6103
177.797 44.1772
177.833 58.2458
177.869 83.0940
177.904 130.836
177.922 170.783
177.940 227.752
177.970 365.898
178.000 465.928
178.030 384.043
178.060 250.382
178.096 151.116
178.131 100.101
178.167 72.4563
178.202 56.1952
178.238 45.9128
178.274 39.0175
178.345 30.6281
178.416 25.8904
178.487 22.9338
178.630 19.5484
178.772 17.7227
178.914 16.6186
179.199 15.4777
179.484 15.3075
179.626 15.7266
179.769 16.8572
179.911 19.6508
179.982 22.4808
180.053 27.4399
180.125 36.9501
180.160 45.1772
180.196 57.8610
180.231 78.5476
180.267 114.703
180.303 183.021
180.320 239.430
180.338 318.308
180.369 515.337
180.400 658.685
180.431 545.559
180.462 356.453
180.484 259.831
180.506 194.780
180.529 151.084
180.551 121.149
180.595 84.2831
180.639 63.7361
180.684 51.1431
180.728 42.9063
180.817 33.0741
180.906 27.6157
180.994 24.2392
181.172 20.3889
181.349 18.3021
181.526 17.0099
181.881 15.4992
182.236 14.6342
182.591 14.0629
183.300 13.3302
183.300 70.5571
190.000 69.4369
199.526 67.8441
200.000 67.7649
250.000 61.1503
251.189 61.0342
300.000 56.2684
316.228 55.0372
350.000 52.4749
398.107 49.5332
400.000 49.4175
500.000 44.7437
501.187 44.7028
600.000 41.2948
630.957 40.4829
720.000 38.1475
794.328 36.6466
850.000 35.5224
1000.00 33.1557
1250.00 30.2060
1258.93 30.1284
1500.00 28.0303
1584.89 27.4438
1700.00 26.6484
1995.26 25.0060
2000.00 24.9796
2500.00 22.9007
2511.89 22.8643
3000.00 21.3683
3162.28 20.9822
3500.00 20.1789
3981.07 19.2576
4000.00 19.2213
4500.00 18.4292
5000.00 17.7599
5011.87 17.7463
5500.00 17.1848
6000.00 16.6837
6309.57 16.4103
6500.00 16.2421
7000.00 15.8491
7500.00 15.4964
7943.28 15.2139
8000.00 15.1777
8500.00 14.8878
9000.00 14.6227
9500.00 14.3789
10000.0 14.1539
12500.0 13.2416
12589.3 13.2176
15000.0 12.5703
15848.9 12.3897
17000.0 12.1448
19952.6 11.6395
20000.0 11.6314
25000.0 10.9924
25118.9 10.9811
30000.0 10.5207
31622.8 10.4015
35000.0 10.1534
39810.7 9.86740
40000.0 9.85615
45000.0 9.60854
50000.0 9.39755
50118.7 9.39320
55000.0 9.21447
60000.0 9.05320
60400.0 9.04110
60400.0 9.04076
60400.7 9.04074
60400.7 9.04074
63095.7 8.98395
65000.0 8.94382
70000.0 8.83571
79432.8 8.62247
80000.0 8.60965
87113.5 8.49734
87113.5 8.49734
90000.0 8.45177
100000 8.30237
105000 8.22767
105996 8.21905
105996 8.21905
108280 8.19927
108281 8.19926
118768 8.10843
118768 8.10843
120000 8.09776
121838 8.08163
121838 8.08163
130000 8.00998
147021 7.87382
147021 7.87382
150000 7.84999
170000 7.74627
200000 7.66588
215746 7.62369
215746 7.62369
231628 7.58113
231628 7.58113
250000 7.53190
253349 7.52293
253349 7.52293
268386 7.48263
268386 7.48263
270000 7.47831
270369 7.47732
284641 7.43908
284641 7.43908
288869 7.42775
288869 7.42775
300000 7.39792
320000 7.38031
323472 7.37726
323473 7.37725
328213 7.37308
328213 7.37308
350000 7.35390
352722 7.35150
352722 7.35150
370000 7.33629
370024 7.33627
370024 7.33627
394874 7.31439
394874 7.31439
396092 7.31332
396092 7.31332
400000 7.30988
420000 7.31154
426167 7.31205
426167 7.31205
426459 7.31207
426459 7.31207
430022 7.31237
430022 7.31237
450000 7.31402
453493 7.31431
453494 7.31431
454309 7.31438
454309 7.31438
456553 7.31457
456553 7.31457
457439 7.31464
457439 7.31464
467122 7.31544
467122 7.31544
470000 7.31568
483125 7.31677
483125 7.31677
489144 7.31727
489144 7.31727
491902 7.31750
500000 7.31817
520000 7.31983
537608 7.32128
537608 7.32128
550000 7.32231
556973 7.32289
563012 7.32339
570000 7.32397
585246 7.32523
585246 7.32523
595995 7.32612
595995 7.32612
600000 7.32646
614817 7.32768
614817 7.32768
618863 7.32802
618863 7.32802
620000 7.32811
650000 7.33060
670000 7.33226
700000 7.33474
800000 7.34303
900000 7.35670
1.00000E+06 7.35603
1.10000E+06 7.31131
1.20000E+06 7.26658
1.30000E+06 7.19822
1.40000E+06 7.12985
1.50000E+06 7.06149
1.60000E+06 6.99313
1.70000E+06 6.92476
1.80000E+06 6.83648
1.90000E+06 6.74819
2.00000E+06 6.65991
2.20000E+06 6.54272
2.40000E+06 6.42553
2.50000E+06 6.36693
2.60000E+06 6.31502
2.80000E+06 6.21119
3.00000E+06 6.10737
3.50000E+06 5.80695
4.00000E+06 5.53194
4.50000E+06 5.30895
5.00000E+06 5.14336
5.50000E+06 5.04376
5.55091E+06 5.03362
6.00000E+06 4.94416
6.47690E+06 4.88947
6.47690E+06 4.88947
6.50000E+06 4.88682
7.00000E+06 4.84859
7.50000E+06 4.82695
7.67062E+06 4.82462
7.80000E+06 4.82286
8.00000E+06 4.82013
8.50000E+06 4.83496
9.00000E+06 4.86511
9.50000E+06 4.89525
1.00000E+07 4.92944
1.05000E+07 4.96362
1.10000E+07 4.99780
1.15000E+07 5.03199
1.20000E+07 5.06617
1.25000E+07 5.10036
1.30000E+07 5.13454
1.40000E+07 5.18257
1.41546E+07 5.18457
1.50000E+07 5.19549
1.54288E+07 5.19517
1.54288E+07 5.19517
1.60000E+07 5.19474
1.70000E+07 5.17097
1.80000E+07 5.14720
1.90000E+07 5.09962
1.91000E+07 5.09486
2.00000E+07 5.03869