Gd-154(n,g) ENDF/B-VII.1
Energy(eV) XS(b)
1.00000E-05 4380.26
1.25000E-05 3917.81
1.50000E-05 3576.45
2.00000E-05 3097.28
2.75000E-05 2641.35
3.50000E-05 2341.29
4.25000E-05 2124.68
5.00000E-05 1958.84
6.25000E-05 1752.02
7.50000E-05 1599.35
0.000100000 1385.05
0.000125000 1238.80
0.000150000 1130.84
0.000200000 979.292
0.000275000 835.088
0.000350000 740.178
0.000425000 671.656
0.000500000 619.196
0.000625000 553.765
0.000750000 505.461
0.00100000 437.646
0.00125000 391.357
0.00150000 357.180
0.00200000 309.192
0.00275000 263.507
0.00350000 233.421
0.00425000 211.688
0.00500000 195.038
0.00625000 174.258
0.00750000 158.901
0.0100000 137.313
0.0125000 122.550
0.0150000 111.629
0.0200000 96.2553
0.0253000 85.1898
0.0314750 75.9715
0.0376500 69.0946
0.0500000 59.3264
0.0625000 52.5014
0.0750000 47.4227
0.100000 40.2171
0.125000 35.2336
0.150000 31.5118
0.200000 26.2135
0.237500 23.3539
0.275000 21.0811
0.350000 17.6559
0.500000 13.2590
0.750000 9.17245
1.00000 6.83625
1.50000 4.29733
2.00000 2.98815
2.75000 1.95029
3.50000 1.40392
4.25000 1.08621
5.00000 0.890486
6.25000 0.712753
7.50000 0.649202
8.75000 0.699466
9.37500 0.812174
10.0000 1.10509
10.3858 1.56024
10.5786 2.00661
10.7715 2.80500
10.9644 4.45552
11.0608 6.04005
11.1573 8.81089
11.2537 14.3334
11.3019 19.4228
11.3501 27.9220
11.3984 43.6706
11.4225 57.0922
11.4466 77.7130
11.4707 111.504
11.4948 171.588
11.5189 289.337
11.5310 390.415
11.5430 537.237
11.5523 686.516
11.5615 856.631
11.5800 1068.18
11.5985 855.265
11.6170 535.527
11.6334 347.982
11.6498 235.653
11.6661 167.288
11.6825 123.868
11.7153 74.9313
11.7480 49.8956
11.7807 35.5327
11.8135 26.5850
11.8790 16.5187
11.9445 11.3033
12.0100 8.26572
12.1409 5.05626
12.2719 3.48930
12.4029 2.61199
12.6649 1.72135
12.9269 1.30713
13.1888 1.08701
13.7128 0.887107
14.7606 0.819554
15.8085 0.921935
16.8564 1.16249
17.9043 1.62973
18.9521 2.61495
19.4761 3.56134
20.0000 5.21087
20.2859 6.68655
20.5718 8.93285
20.8576 12.5999
21.0006 15.3743
21.1435 19.2030
21.1792 20.3885
21.2150 21.6888
21.2328 22.3869
21.2507 23.1199
21.2686 23.8899
21.2864 24.6991
21.3043 25.5512
21.3222 26.4487
21.3401 27.3950
21.3579 28.3930
21.3937 30.5633
21.4294 32.9946
21.4651 35.7322
21.5009 38.8279
21.5366 42.3493
21.5723 46.3758
21.6438 56.3828
21.7153 70.0438
21.7867 89.3862
21.8582 118.051
21.9297 163.132
21.9654 196.042
22.0011 239.981
22.0369 300.491
22.0726 386.942
22.1083 516.446
22.1441 722.355
22.1798 1077.04
22.1977 1357.41
22.2155 1756.95
22.2334 2348.93
22.2513 3261.99
22.2691 4726.45
22.2870 7097.07
22.3085 11358.0
22.3300 14198.7
22.3515 11349.4
22.3730 7085.27
22.3971 4122.80
22.4212 2574.87
22.4452 1727.79
22.4693 1228.99
22.4934 914.635
22.5175 705.429
22.5656 454.464
22.6137 316.162
22.6619 232.260
22.7582 140.209
22.8545 93.5948
22.9508 66.8265
23.0471 50.0626
23.1434 38.8830
23.3360 25.3736
23.5285 17.8399
23.7211 13.2183
23.9137 10.1825
24.2989 6.57204
24.6841 4.59135
25.0693 3.39059
25.4544 2.60911
26.2248 1.68917
26.9951 1.19043
27.7655 0.891141
28.5359 0.698299
30.0766 0.474957
31.6173 0.357821
34.6987 0.253892
37.7801 0.230894
39.3208 0.243343
40.8616 0.280579
42.4023 0.370200
43.1726 0.460208
43.9430 0.621740
44.7133 0.956997
45.0985 1.28225
45.4837 1.86211
45.6763 2.34213
45.8689 3.06502
46.0615 4.23092
46.2541 6.29984
46.3504 7.99959
46.4466 10.5343
46.5429 14.5596
46.6392 21.5229
46.7355 35.1664
46.7837 47.5085
46.8078 56.2729
46.8318 67.6978
46.8439 74.7561
46.8559 82.9684
46.8679 92.5960
46.8800 103.966
46.8920 117.540
46.9040 133.881
46.9161 153.804
46.9281 178.350
46.9402 209.054
46.9522 247.998
46.9642 298.187
46.9763 363.898
46.9883 451.530
47.0003 569.923
47.0124 731.436
47.0244 949.588
47.0472 1518.72
47.0700 1897.98
47.0814 1786.24
47.0928 1518.25
47.1156 948.897
47.1339 640.660
47.1522 447.031
47.1704 324.481
47.1887 244.232
47.2253 150.975
47.2618 101.860
47.2984 73.1542
47.3349 55.0411
47.4080 34.4189
47.4812 23.6215
47.5543 17.2968
47.7005 10.6090
47.8467 7.38689
47.9929 5.65695
48.1391 4.69986
48.2854 4.21916
48.5778 4.34629
48.7240 5.07840
48.8702 6.66417
49.0165 10.1552
49.0896 13.5207
49.1627 19.3101
49.2358 30.4252
49.2723 40.2221
49.3089 55.7774
49.3455 82.4902
49.3637 103.533
49.3820 133.414
49.3911 153.214
49.4003 177.477
49.4094 207.509
49.4186 245.005
49.4277 292.336
49.4368 352.392
49.4460 428.654
49.4551 524.439
49.4663 671.043
49.4776 838.415
49.5000 1047.61
49.5112 985.882
49.5225 838.074
49.5449 523.966
49.5591 383.400
49.5734 285.892
49.6018 171.082
49.6302 111.789
49.6587 78.1989
49.6871 57.5872
49.7156 44.1275
49.7725 28.2767
49.8293 19.6906
49.8862 14.5363
50.0000 8.92737
50.1173 6.03633
50.2347 4.39924
50.3520 3.38065
50.4694 2.70224
50.7040 1.87924
50.9387 1.41466
51.4081 0.930977
51.8774 0.694383
52.8162 0.478481
53.7549 0.390730
55.6323 0.347884
57.5098 0.399266
59.3872 0.572391
60.3259 0.758101
61.2646 1.10335
61.7340 1.39651
62.2034 1.84608
62.6727 2.58587
63.1421 3.93160
63.3768 5.06230
63.4941 5.82689
63.6114 6.78415
63.6701 7.35593
63.6994 7.66992
63.7288 8.00473
63.7581 8.36247
63.7874 8.74503
63.8168 9.15506
63.8461 9.59492
63.8755 10.0679
63.9048 10.5771
63.9341 11.1267
63.9635 11.7206
64.0221 13.0628
64.0808 14.6525
64.1395 16.5545
64.1981 18.8563
64.2568 21.6784
64.3155 25.1902
64.3741 29.6360
64.4328 35.3788
64.4915 42.9759
64.5502 53.3195
64.6088 67.9089
64.6675 89.4210
64.7262 123.017
64.7848 179.698
64.8142 223.867
64.8435 286.336
64.8728 378.677
64.9022 522.799
64.9315 764.483
64.9608 1208.91
64.9755 1579.57
64.9902 2127.49
65.0048 2959.89
65.0195 4224.50
65.0398 6759.45
65.0600 8454.73
65.0803 6768.15
65.1005 4230.32
65.1219 2533.28
65.1434 1614.27
65.1648 1098.17
65.1863 788.660
65.2077 591.041
65.2291 458.276
65.2720 297.447
65.3149 208.005
65.3577 153.397
65.4435 93.1172
65.5292 62.4133
65.6150 44.7117
65.7007 33.5939
65.7864 26.1612
65.9579 17.1553
66.1294 12.1177
66.3009 9.01917
66.4724 6.97943
66.8154 4.54675
67.1583 3.20757
67.5013 2.39332
67.8443 1.86210
68.5302 1.23529
69.2161 0.895339
69.9021 0.692567
70.5880 0.564364
71.9599 0.429404
73.3318 0.406441
74.0177 0.461833
74.3607 0.532343
74.7036 0.670191
75.0466 0.971807
75.2181 1.27072
75.3896 1.80606
75.5611 2.90632
75.6468 3.95141
75.7325 5.75337
75.8183 9.25814
75.8612 12.4009
75.9040 17.4924
75.9469 26.4998
75.9683 33.8172
75.9898 44.5225
76.0112 60.9395
76.0326 87.4654
76.0541 132.736
76.0648 166.917
76.0755 211.798
76.0866 270.965
76.0978 338.470
76.1200 422.795
76.1423 338.392
76.1645 211.690
76.1878 127.649
76.2111 81.7825
76.2343 55.8728
76.2576 40.2695
76.2809 30.2779
76.3042 23.5480
76.3507 15.3818
76.3973 10.8296
76.4438 8.04673
76.5369 4.97014
76.6300 3.40051
76.7232 2.49427
76.9094 1.54294
77.0956 1.07976
77.2818 0.819768
77.6542 0.552948
78.0267 0.425221
78.3991 0.353997
79.1439 0.281133
80.6337 0.228103
82.1234 0.212446
85.1028 0.217987
88.0823 0.256038
91.0617 0.343810
92.5514 0.426923
94.0411 0.568425
95.5309 0.841686
96.2757 1.08804
97.0206 1.49370
97.7654 2.23790
98.1379 2.87118
98.5103 3.85001
98.6965 4.55418
98.7896 4.98530
98.8827 5.48381
98.9293 5.76291
98.9758 6.06472
99.0224 6.39190
99.0689 6.74724
99.1155 7.13425
99.1621 7.55662
99.2086 8.01893
99.2552 8.52636
99.3017 9.08515
99.3483 9.70218
99.4414 11.1469
99.5345 12.9493
99.6276 15.2379
99.7207 18.2057
99.8138 22.1497
99.9069 27.5513
100.000 35.2255
100.080 44.7870
100.161 58.8692
100.241 80.8283
100.322 117.736
100.362 146.453
100.402 186.998
100.442 246.746
100.482 339.679
100.523 494.631
100.563 777.355
100.583 1011.14
100.603 1354.24
100.623 1869.99
100.643 2640.64
100.672 4225.87
100.700 5289.55
100.729 4237.52
100.757 2649.19
100.776 1913.61
100.795 1412.99
100.832 832.172
100.870 537.845
100.907 373.080
100.945 272.863
100.982 207.797
101.057 131.729
101.132 90.7325
101.207 66.2729
101.357 39.7869
101.507 26.5499
101.657 19.0124
101.806 14.3231
101.956 11.2135
102.256 7.48878
102.556 5.44767
102.856 4.23508
103.156 3.48916
103.755 2.83225
104.055 2.85646
104.355 3.22050
104.655 4.28861
104.805 5.42587
104.954 7.50434
105.104 11.7954
105.179 15.8546
105.254 22.7783
105.329 36.0362
105.367 47.7039
105.385 55.8008
105.404 66.1617
105.414 72.4943
105.423 79.7755
105.432 88.1990
105.442 97.8963
105.451 109.383
105.460 122.958
105.470 139.137
105.479 158.361
105.489 181.917
105.498 210.784
105.517 290.640
105.526 346.792
105.535 417.132
105.545 507.183
105.554 618.861
105.566 789.915
105.577 984.409
105.600 1226.12
105.612 1155.27
105.623 984.526
105.646 618.839
105.664 423.883
105.682 299.685
105.700 219.718
105.717 166.640
105.753 104.060
105.789 70.7928
105.824 51.1447
105.860 38.7081
105.931 24.4407
106.003 16.9162
106.074 12.4766
106.216 7.72272
106.359 5.35960
106.502 4.01415
106.787 2.61220
107.072 1.92793
107.357 1.53995
107.927 1.13418
109.068 0.826929
110.208 0.728788
112.489 0.741592
114.771 0.939549
117.052 1.44088
117.622 1.66159
118.192 1.95099
118.478 2.13047
118.620 2.23107
118.763 2.33988
118.905 2.45798
119.048 2.58628
119.190 2.72618
119.333 2.87889
119.475 3.04628
119.618 3.23015
119.761 3.43274
119.903 3.65652
120.188 4.18151
120.473 4.83763
120.759 5.67331
121.044 6.76001
121.329 8.21024
121.614 10.2069
121.899 13.0654
122.184 17.3614
122.469 24.2563
122.755 36.3512
122.897 46.1579
123.040 60.5745
123.182 82.9997
123.325 120.587
123.467 190.735
123.539 250.924
123.610 343.870
123.681 497.815
123.753 775.503
123.788 1002.92
123.824 1332.26
123.859 1820.89
123.895 2545.43
123.948 4086.59
124.000 5133.59
124.053 4111.62
124.105 2564.06
124.164 1492.35
124.222 932.850
124.281 626.148
124.339 445.736
124.398 331.857
124.456 256.153
124.573 165.231
124.691 115.123
124.808 84.7161
125.042 51.3417
125.276 34.4373
125.510 24.7273
125.744 18.6475
125.979 14.5956
126.447 9.70362
126.915 6.98585
127.384 5.33033
127.852 4.25603
128.789 3.01785
129.726 2.39966
131.599 2.01586
133.473 2.40403
134.409 3.01511
134.878 3.51459
135.346 4.22603
135.580 4.69592
135.697 4.96833
135.814 5.27034
135.932 5.60621
136.049 5.98098
136.107 6.18498
136.166 6.40071
136.224 6.62986
136.283 6.87269
136.400 7.40576
136.517 8.01072
136.634 8.70089
136.751 9.49283
136.985 11.4709
137.220 14.1896
137.454 18.0718
137.688 23.8832
137.922 33.1442
138.039 39.9869
138.156 49.2261
138.273 62.1206
138.391 80.8731
138.508 109.617
138.625 156.838
138.742 242.143
138.800 313.000
138.859 418.756
138.918 585.881
138.976 866.583
139.035 1372.83
139.093 2323.10
139.147 3706.21
139.200 4626.42
139.254 3710.09
139.307 2325.48
139.342 1681.92
139.378 1241.12
139.448 731.555
139.519 472.787
139.589 328.103
139.660 239.962
139.730 182.817
139.871 115.890
140.013 79.8832
140.154 58.3774
140.436 35.1167
140.718 23.4965
141.000 16.8833
141.282 12.7722
141.565 10.0502
142.129 6.79939
142.693 5.03571
143.258 4.01248
143.822 3.41872
144.951 3.07963
145.515 3.34455
146.080 4.11319
146.644 6.01318
146.926 7.96687
147.208 11.5218
147.349 14.4805
147.491 18.9263
147.526 20.3879
147.561 22.0372
147.579 22.9451
147.596 23.9077
147.614 24.9354
147.632 26.0341
147.649 27.2173
147.667 28.4792
147.685 29.8426
147.702 31.3016
147.738 34.5825
147.773 38.4147
147.808 42.9551
147.843 48.3727
147.879 54.9074
147.914 62.8614
147.949 72.7343
147.984 85.1540
148.020 101.068
148.055 121.836
148.090 149.793
148.126 188.496
148.161 244.080
148.196 327.294
148.231 459.713
148.267 683.708
148.284 857.106
148.302 1094.05
148.319 1422.78
148.337 1875.46
148.369 2999.15
148.400 3744.61
148.432 2992.58
148.463 1870.02
148.494 1156.16
148.525 755.222
148.557 522.193
148.588 379.727
148.619 287.048
148.650 224.222
148.712 147.078
148.775 103.670
148.837 76.9577
148.961 47.2496
149.086 32.0096
149.211 23.1788
149.335 17.6117
149.460 13.8806
149.709 9.33817
149.958 6.78500
150.207 5.20605
150.456 4.16169
150.955 2.90686
151.453 2.20959
152.450 1.50459
153.446 1.18348
154.443 1.02897
156.436 0.981220
158.429 1.24852
159.426 1.59243
160.423 2.25758
160.921 2.82896
161.419 3.70636
161.668 4.33091
161.918 5.14569
162.042 5.64960
162.104 5.93160
162.167 6.23653
162.229 6.56691
162.291 6.92564
162.354 7.31606
162.416 7.74128
162.478 8.20707
162.540 8.71792
162.603 9.27982
162.665 9.89978
162.790 11.3485
162.914 13.1489
163.039 15.4286
163.163 18.3711
163.288 22.2600
163.412 27.5432
163.537 34.9874
163.662 45.9392
163.786 62.9898
163.911 91.5961
163.973 113.795
164.035 145.066
164.098 191.011
164.160 262.184
164.222 380.162
164.285 593.523
164.316 768.699
164.347 1022.75
164.378 1400.29
164.409 1960.46
164.455 3135.32
164.500 3914.44
164.546 3127.90
164.591 1954.25
164.636 1207.55
164.681 788.048
164.726 545.032
164.771 395.967
164.816 299.136
164.861 233.452
164.951 152.942
165.041 107.597
165.131 79.7297
165.311 48.7259
165.492 32.8308
165.672 23.6281
165.852 17.8328
166.032 13.9539
166.392 9.24741
166.752 6.62023
167.112 5.01605
167.472 3.97955
168.193 2.84103
168.913 2.54843
169.273 2.87612
169.453 3.33111
169.633 4.23102
169.813 6.18075
169.903 8.07255
169.993 11.3601
170.084 17.8013
170.129 23.5898
170.174 32.9842
170.219 49.6323
170.264 83.0111
170.286 113.465
170.309 162.786
170.320 199.291
170.331 247.133
170.342 311.283
170.354 394.992
170.365 506.044
170.377 631.779
170.400 788.376
170.412 741.274
170.423 630.035
170.447 394.419
170.461 290.179
170.475 217.799
170.504 131.458
170.533 86.4637
170.562 60.8738
170.591 45.0428
170.620 34.7006
170.677 22.4532
170.735 15.7886
170.793 11.7863
170.908 7.41881
171.024 5.20913
171.139 3.93634
171.370 2.59009
171.601 1.92001
171.832 1.53094
172.294 1.10589
173.217 0.736493
174.141 0.563438
175.988 0.388649
177.835 0.297963
181.529 0.206386
185.223 0.165266
188.918 0.150567
192.612 0.162743
194.459 0.188199
196.306 0.248357
197.230 0.310318
198.153 0.426375
198.615 0.527213
199.077 0.686638
199.538 0.962221
200.000 1.50492
200.194 1.90497
200.388 2.50970
200.581 3.48908
200.775 5.23025
200.872 6.66209
200.969 8.79635
201.066 12.1796
201.163 18.0042
201.259 29.3452
201.284 33.8848
201.308 39.5346
201.320 42.9015
201.332 46.7143
201.344 51.0541
201.356 56.0213
201.369 61.7917
201.381 68.4287
201.393 76.1760
201.405 85.2895
201.429 109.046
201.453 143.851
201.477 197.267
201.490 235.048
201.502 283.769
201.514 347.468
201.526 431.698
201.538 543.640
201.550 691.048
201.575 1105.54
201.600 1381.99
201.613 1300.78
201.625 1105.72
201.650 691.122
201.668 483.247
201.686 347.429
201.705 257.562
201.723 197.201
201.759 124.637
201.795 85.2301
201.832 61.7401
201.868 46.7038
201.940 29.3644
202.013 20.1393
202.086 14.6760
202.158 11.1805
202.231 8.81453
202.376 5.90410
202.521 4.25570
202.666 3.23341
202.811 2.55711
203.101 1.74869
203.392 1.30602
203.972 0.874082
204.553 0.694059
205.133 0.623464
206.294 0.660315
206.875 0.759833
207.455 0.938323
208.036 1.25223
208.616 1.83982
208.907 2.33798
209.197 3.09833
209.487 4.33925
209.778 6.56476
209.923 8.40857
210.068 11.1727
210.140 13.1061
210.177 14.2687
210.213 15.5906
210.249 17.1111
210.267 17.9591
210.286 18.8669
210.304 19.8512
210.322 20.9089
210.340 22.0538
210.358 23.2957
210.394 26.1256
210.431 29.5054
210.467 33.5867
210.503 38.5767
210.540 44.7648
210.576 52.5647
210.612 62.5830
210.648 75.6966
210.685 93.4133
210.721 118.053
210.757 153.656
210.793 207.395
210.830 293.870
210.866 443.100
210.884 560.221
210.902 722.592
210.920 951.688
210.939 1272.90
210.969 2037.77
211.000 2545.43
211.031 2034.97
211.062 1272.65
211.087 851.991
211.112 590.455
211.137 426.366
211.162 319.929
211.213 196.564
211.263 132.092
211.313 94.4814
211.364 70.8444
211.464 43.9686
211.565 29.8851
211.666 21.6221
211.766 16.3693
211.867 12.8290
212.068 8.49508
212.270 6.04926
212.471 4.53498
212.672 3.53321
213.075 2.33238
213.478 1.66841
213.880 1.26389
214.283 1.00015
215.088 0.690931
215.894 0.527850
217.504 0.390599
219.115 0.392530
219.920 0.451648
220.726 0.587063
221.531 0.902386
221.934 1.22361
222.336 1.81070
222.538 2.30389
222.739 3.05224
222.940 4.26661
223.142 6.42984
223.242 8.20962
223.343 10.8625
223.444 15.0663
223.544 22.2976
223.570 24.9307
223.595 28.0591
223.620 31.8143
223.633 33.9804
223.645 36.3545
223.658 39.0074
223.670 41.9600
223.683 45.2587
223.695 48.9282
223.721 57.8092
223.746 69.2609
223.771 84.4913
223.796 105.232
223.821 134.398
223.846 176.814
223.872 241.883
223.897 346.178
223.922 523.733
223.935 657.173
223.947 830.395
223.974 1328.47
224.000 1660.38
224.027 1328.17
224.053 830.086
224.081 496.850
224.109 317.013
224.137 215.884
224.165 155.149
224.193 116.247
224.221 90.1935
224.277 58.6158
224.333 41.0147
224.389 30.2848
224.501 18.4232
224.614 12.3794
224.726 8.89307
224.838 6.70254
224.950 5.23745
225.174 3.46113
225.398 2.46636
225.622 1.85373
225.847 1.44980
226.295 0.966826
226.743 0.699757
227.192 0.536485
227.640 0.429274
228.537 0.301380
229.434 0.230682
231.227 0.159167
233.021 0.126027
234.814 0.109090
238.402 0.0984787
241.989 0.109612
243.782 0.126115
245.576 0.156690
247.369 0.217709
248.266 0.273795
249.163 0.369031
250.060 0.556889
250.508 0.733519
250.957 1.04266
251.405 1.67509
251.629 2.28427
251.853 3.36312
251.965 4.24934
252.078 5.57220
252.190 7.67669
252.302 11.3294
252.414 18.5247
252.442 21.4342
252.470 25.0803
252.484 27.2650
252.498 29.7492
252.512 32.5899
252.526 35.8579
252.540 39.6713
252.554 44.0899
252.568 49.2846
252.582 55.4444
252.596 62.8189
252.610 71.7411
252.624 82.6627
252.638 96.2061
252.652 113.244
252.666 135.021
252.680 163.342
252.694 200.867
252.708 251.539
252.722 321.152
252.736 417.802
252.750 551.016
252.775 881.459
252.800 1102.22
252.813 1037.69
252.825 882.259
252.850 551.607
252.868 387.246
252.886 279.351
252.904 207.658
252.922 159.349
252.958 101.074
252.994 69.3890
253.029 50.3976
253.065 38.2538
253.137 24.1915
253.209 16.7158
253.280 12.2885
253.424 7.54479
253.567 5.20625
253.711 3.89735
253.997 2.59613
254.284 2.04548
254.571 1.82792
255.145 1.94253
255.431 2.25055
255.718 2.80038
256.005 3.76014
256.292 5.53498
256.435 7.02025
256.579 9.25772
256.650 10.8248
256.722 12.8434
256.758 14.0797
256.794 15.5037
256.830 17.1647
256.848 18.0962
256.865 19.1068
256.883 20.2120
256.901 21.4102
256.919 22.7194
256.937 24.1536
256.973 27.4756
257.009 31.5256
257.045 36.5614
257.081 42.8896
257.116 51.0385
257.152 61.7048
257.188 76.1157
257.224 96.0911
257.260 125.016
257.296 168.659
257.332 238.859
257.367 359.468
257.385 454.240
257.403 585.512
257.421 770.549
257.439 1029.72
257.470 1647.43
257.500 2059.56
257.531 1647.94
257.561 1030.03
257.584 714.633
257.606 510.358
257.629 376.983
257.652 287.444
257.697 180.655
257.742 123.171
257.787 88.9746
257.833 67.1987
257.923 42.0998
258.014 28.8041
258.104 20.9410
258.195 15.9141
258.285 12.5120
258.466 8.32834
258.647 5.95646
258.828 4.48226
259.009 3.50500
259.371 2.32999
259.733 1.67825
260.094 1.28048
260.456 1.02103
261.180 0.718212
261.904 0.561661
263.352 0.445661
264.799 0.495905
265.523 0.604195
266.247 0.829723
266.609 1.02827
266.971 1.33646
267.333 1.84604
267.694 2.77111
267.875 3.54411
268.056 4.71191
268.237 6.59789
268.418 9.93059
268.509 12.6522
268.599 16.6794
268.622 17.9934
268.645 19.4625
268.667 21.1196
268.690 22.9980
268.712 25.1387
268.735 27.5925
268.758 30.4234
268.780 33.7120
268.803 37.5806
268.825 42.1297
268.848 47.5520
268.871 54.0832
268.893 62.0827
268.916 71.9248
268.939 84.2672
268.961 100.015
268.984 120.612
269.006 147.935
269.029 185.291
269.052 237.943
269.074 314.741
269.097 430.925
269.119 612.401
269.142 897.441
269.171 1435.77
269.200 1794.55
269.229 1435.55
269.258 897.193
269.289 539.142
269.319 344.455
269.350 234.770
269.380 168.983
269.410 126.764
269.441 98.3575
269.502 63.9597
269.563 44.7697
269.624 33.0613
269.746 20.1180
269.867 13.5119
269.989 9.70247
270.111 7.30599
270.233 5.70400
270.477 3.75953
270.720 2.67073
270.964 1.99994
271.208 1.55751
271.695 1.02814
272.183 0.735244
272.670 0.555994
273.158 0.438134
274.132 0.297159
275.107 0.218798
277.057 0.138325
279.007 0.0992733
280.956 0.0770523
284.856 0.0535960
288.755 0.0419613
292.655 0.0354220
300.454 0.0294804
308.252 0.0292946
316.051 0.0370846
319.951 0.0494282
321.901 0.0616403
323.850 0.0833370
325.800 0.127595
326.775 0.169678
327.750 0.243099
328.725 0.391183
329.212 0.531572
329.699 0.777171
329.943 0.977685
330.187 1.27650
330.431 1.75378
330.674 2.59371
330.796 3.28108
330.918 4.30375
331.040 5.92943
331.162 8.74816
331.284 14.3187
331.344 19.4052
331.360 21.1164
331.375 23.0529
331.390 25.2705
331.405 27.8259
331.421 30.8117
331.436 34.2807
331.451 38.3983
331.466 43.2657
331.482 49.1548
331.497 56.2656
331.512 65.0101
331.527 75.9129
331.543 89.8201
331.558 107.632
331.573 131.017
331.588 162.360
331.603 205.615
331.619 265.733
331.634 350.908
331.649 470.873
331.675 753.200
331.700 942.083
331.713 886.694
331.726 754.360
331.751 471.780
331.767 348.262
331.782 262.043
331.814 158.884
331.845 104.728
331.876 73.7018
331.907 54.4859
331.938 41.9228
332.001 27.0744
332.063 19.0147
332.126 14.2025
332.251 9.03838
332.375 6.55040
332.500 5.26223
332.750 4.43545
333.000 5.25137
333.125 6.53096
333.250 9.00179
333.374 14.1402
333.437 18.9359
333.499 26.9421
333.531 33.1270
333.546 37.0576
333.562 41.7429
333.577 47.3844
333.593 54.2541
333.609 62.7250
333.624 73.3184
333.640 86.7767
333.655 104.180
333.671 127.129
333.687 158.051
333.702 200.667
333.718 260.676
333.733 346.449
333.749 468.394
333.775 749.048
333.800 936.196
333.813 880.774
333.826 749.095
333.851 468.376
333.881 265.206
333.911 162.626
333.942 107.927
333.972 76.2527
334.002 56.5338
334.032 43.5146
334.093 28.0403
334.153 19.5569
334.213 14.4373
334.334 8.82464
334.455 5.98026
334.575 4.34066
334.696 3.30822
334.817 2.61483
335.058 1.76694
335.300 1.28549
335.541 0.984150
335.782 0.782071
336.265 0.534535
336.748 0.393199
337.714 0.244345
338.679 0.170731
339.645 0.128708
341.576 0.0848675
343.508 0.0638075
345.439 0.0524105
349.302 0.0424641
353.164 0.0416718
357.027 0.0516056
358.958 0.0677445
359.924 0.0841042
360.889 0.114046
361.855 0.177952
362.338 0.241386
362.821 0.356547
363.062 0.453204
363.304 0.600144
363.545 0.839558
363.786 1.26912
363.907 1.62511
364.028 2.15986
364.149 3.01639
364.269 4.51514
364.390 7.50036
364.450 10.2503
364.511 14.8247
364.571 23.2827
364.601 30.4627
364.616 35.3369
364.631 41.4016
364.646 49.1740
364.662 59.2593
364.677 72.6160
364.692 90.7078
364.707 115.805
364.722 151.431
364.737 202.842
364.752 276.112
364.764 353.417
364.776 441.791
364.800 552.433
364.812 520.051
364.824 442.113
364.848 276.351
364.864 200.975
364.879 149.301
364.910 88.8164
364.941 57.6999
364.971 40.2049
365.002 29.4718
365.033 22.4999
365.095 14.3045
365.156 9.86999
365.218 7.21495
365.341 4.33773
365.465 2.89482
365.588 2.07199
365.711 1.55873
365.835 1.21729
366.081 0.805562
366.328 0.576509
366.575 0.436080
366.821 0.343934
367.315 0.234382
367.808 0.174391
368.795 0.114672
369.781 0.0874538
370.768 0.0732728
372.741 0.0609842
376.688 0.0594108
380.634 0.0726272
384.581 0.106139
386.554 0.139761
388.527 0.200394
389.514 0.251009
390.501 0.327834
391.487 0.453188
392.474 0.679629
392.967 0.869234
393.461 1.15741
393.954 1.62733
394.201 1.98273
394.324 2.20707
394.447 2.47282
394.571 2.79114
394.694 3.17623
394.817 3.64858
394.879 3.92621
394.941 4.23672
395.064 4.98255
395.187 5.94619
395.311 7.22258
395.434 8.96314
395.557 11.4255
395.681 15.0637
395.804 20.7667
395.927 30.4394
395.989 38.0226
396.051 48.8088
396.112 64.8598
396.174 90.1103
396.236 133.077
396.297 213.603
396.328 282.404
396.359 385.984
396.390 547.360
396.421 800.239
396.460 1282.18
396.500 1608.04
396.540 1290.74
396.580 807.880
396.622 479.743
396.665 303.813
396.708 205.812
396.751 147.359
396.794 110.214
396.836 85.3260
396.922 55.2812
397.008 38.6241
397.093 28.4753
397.264 17.2983
397.435 11.6119
397.607 8.33741
397.778 6.28309
397.949 4.91181
398.291 3.25209
398.634 2.32695
398.976 1.76079
399.318 1.39100
400.003 0.958636
400.688 0.733750
401.372 0.613721
402.057 0.558006
403.426 0.598230
404.111 0.717731
404.795 0.972773
405.138 1.19861
405.480 1.54929
405.822 2.12837
406.165 3.17620
406.336 4.04845
406.507 5.36186
406.678 7.47036
406.764 9.03870
406.807 10.0183
406.849 11.1658
406.892 12.5282
406.935 14.1588
406.956 15.0970
406.978 16.1323
407.021 18.5518
407.063 21.5615
407.106 25.3689
407.149 30.2804
407.192 36.7463
407.235 45.5354
407.277 57.8600
407.320 75.8592
407.363 103.515
407.406 148.831
407.427 182.935
407.449 229.388
407.470 294.278
407.491 387.191
407.513 522.688
407.534 718.503
407.567 1149.74
407.600 1438.32
407.633 1151.63
407.666 719.935
407.702 424.337
407.738 267.387
407.774 180.554
407.810 129.110
407.846 96.4118
407.883 74.5558
407.955 48.2602
408.027 33.6889
408.099 24.8344
408.243 15.0807
408.388 10.1258
408.532 7.27289
408.676 5.48247
408.820 4.28660
409.109 2.83646
409.397 2.02489
409.686 1.52484
409.975 1.19512
410.552 0.800387
411.129 0.581816
411.706 0.447981
412.283 0.359993
413.437 0.254989
414.592 0.197157
416.900 0.139787
419.209 0.115201
421.517 0.105263
426.134 0.110070
430.751 0.148047
433.060 0.190009
435.368 0.266464
437.677 0.424525
438.831 0.575961
439.985 0.841702
440.562 1.05850
440.851 1.20267
441.139 1.38090
441.428 1.60534
441.572 1.74015
441.716 1.89376
441.861 2.07019
442.005 2.27416
442.149 2.51188
442.294 2.79122
442.438 3.12326
442.582 3.52219
442.726 4.00778
442.871 4.60771
443.015 5.36184
443.159 6.32924
443.304 7.60046
443.448 9.31883
443.592 11.7295
443.736 15.2646
443.881 20.7592
444.025 29.9847
444.097 37.1663
444.169 47.3020
444.241 62.2914
444.314 85.6608
444.386 124.926
444.458 197.221
444.494 257.764
444.530 347.368
444.566 484.483
444.602 693.959
444.651 1112.80
444.700 1408.16
444.749 1141.33
444.798 716.310
444.833 505.305
444.868 365.554
444.902 272.828
444.937 209.832
445.006 133.952
445.076 92.5930
445.145 67.9319
445.215 52.1885
445.353 34.2023
445.492 24.9546
445.631 19.8611
445.770 17.0943
445.909 15.8773
446.047 15.9434
446.186 17.3861
446.256 18.7661
446.290 19.6686
446.325 20.7411
446.360 22.0113
446.394 23.5144
446.429 25.2953
446.464 27.4111
446.499 29.9358
446.533 32.9663
446.568 36.6309
446.603 41.1025
446.637 46.6179
446.672 53.5078
446.707 62.2442
446.741 73.5180
446.776 88.3697
446.811 108.416
446.846 136.263
446.880 176.275
446.915 236.068
446.950 329.385
446.984 481.030
447.019 730.223
447.060 1164.25
447.100 1442.62
447.141 1145.19
447.181 715.145
447.222 441.250
447.262 287.874
447.303 199.350
447.343 145.269
447.383 110.136
447.424 86.3042
447.505 57.0376
447.586 40.5268
447.667 30.3562
447.828 18.9902
447.990 13.1057
448.152 9.66269
448.476 5.97402
448.799 4.12321
449.123 3.05308
449.770 1.91137
450.418 1.33734
451.065 1.00481
452.360 0.652272
453.654 0.481297
454.949 0.390805
457.538 0.328092
460.128 0.378583
461.422 0.466047
462.717 0.643378
463.364 0.798122
464.012 1.03737
464.659 1.43189
465.306 2.14674
465.630 2.74338
465.792 3.14483
465.954 3.64476
466.035 3.94253
466.116 4.27896
466.196 4.66149
466.277 5.09894
466.358 5.60231
466.439 6.18551
466.520 6.86633
466.601 7.66776
466.682 8.62130
466.763 9.76487
466.844 11.1542
466.925 12.8647
467.006 15.0032
467.086 17.7248
467.167 21.2609
467.248 25.9697
467.329 32.4377
467.410 41.6266
467.491 55.2973
467.572 76.8406
467.653 113.439
467.693 142.019
467.734 182.146
467.774 240.727
467.815 328.941
467.855 466.706
467.896 681.903
467.948 1091.59
468.000 1365.10
468.052 1092.61
468.105 683.295
468.141 484.936
468.177 352.598
468.214 264.079
468.250 203.499
468.323 129.828
468.395 89.3413
468.468 64.9593
468.540 49.2772
468.686 31.0520
468.831 21.3171
468.976 15.5292
469.122 11.8155
469.267 9.29318
469.558 6.18730
469.848 4.42142
470.139 3.32299
470.429 2.59381
471.011 1.71676
471.592 1.22993
472.173 0.932458
472.754 0.737991
473.916 0.509160
475.079 0.387580
477.404 0.282470
479.728 0.275928
480.891 0.311431
482.053 0.396156
483.215 0.595665
483.797 0.799478
484.378 1.17265
484.668 1.48642
484.959 1.96346
485.250 2.73939
485.540 4.12667
485.686 5.27178
485.758 6.03737
485.831 6.98486
485.867 7.54756
485.904 8.18022
485.940 8.89693
485.976 9.71322
486.013 10.6511
486.049 11.7298
486.085 12.9822
486.121 14.4477
486.158 16.1824
486.194 18.2441
486.230 20.7272
486.267 23.7539
486.303 27.5055
486.339 32.2031
486.376 38.2074
486.412 46.0449
486.448 56.5658
486.485 71.0326
486.521 91.6944
486.557 122.509
486.594 170.955
486.630 252.089
486.666 397.557
486.684 512.814
486.703 668.701
486.736 1070.61
486.770 1338.20
486.804 1070.56
486.838 669.612
486.877 382.776
486.916 236.119
486.955 157.210
486.994 111.337
487.033 82.5736
487.073 63.5334
487.151 40.8439
487.229 28.3897
487.308 20.8680
487.464 12.6349
487.621 8.47250
487.778 6.08662
487.934 4.59305
488.091 3.59854
488.404 2.39905
488.717 1.73436
489.031 1.33246
489.344 1.07680
489.971 0.813408
490.597 0.806011
490.911 0.978078
491.067 1.18015
491.224 1.56262
491.381 2.37400
491.459 3.15450
491.537 4.50910
491.616 7.16356
491.655 9.55584
491.694 13.4362
491.733 20.3547
491.753 26.0055
491.772 34.2695
491.792 47.0769
491.811 67.9745
491.821 83.4703
491.831 104.080
491.841 131.647
491.850 167.756
491.860 214.635
491.870 268.205
491.890 335.120
491.900 315.393
491.910 268.110
491.930 167.673
491.945 113.498
491.961 79.3848
491.977 57.7498
491.993 43.6261
492.024 27.1088
492.056 18.3794
492.087 13.2538
492.119 10.0244
492.182 6.33718
492.245 4.39540
492.308 3.25354
492.434 2.03042
492.560 1.42295
492.686 1.07655
492.938 0.713922
493.191 0.535168
493.443 0.432213
493.947 0.321161
494.956 0.228430
495.965 0.189138
497.982 0.159626
500.000 0.159374
502.953 0.202250
504.430 0.255582
505.907 0.356612
506.645 0.442257
507.383 0.572705
508.122 0.785286
508.860 1.16722
509.229 1.48491
509.598 1.96460
509.967 2.74051
510.152 3.32277
510.244 3.68876
510.336 4.12026
510.429 4.63515
510.521 5.25574
510.613 6.01318
510.706 6.95093
510.752 7.50652
510.798 8.13119
510.890 9.64544
510.983 11.6326
511.075 14.3084
511.167 18.0400
511.259 23.4561
511.352 31.7371
511.444 45.2950
511.490 55.5641
511.536 69.6661
511.582 89.8135
511.629 119.722
511.675 166.695
511.721 244.831
511.767 383.935
511.813 640.925
511.857 1025.96
511.900 1285.67
511.944 1031.23
511.987 645.009
512.023 428.304
512.060 295.190
512.096 212.120
512.132 158.555
512.205 97.0570
512.278 65.0986
512.350 46.5442
512.423 34.8983
512.568 21.7162
512.714 14.8401
512.859 10.8252
513.005 8.28435
513.150 6.58394
513.441 4.53823
513.731 3.43338
514.022 2.81256
514.313 2.48662
514.894 2.49027
515.185 2.88477
515.475 3.77949
515.766 5.81050
515.911 7.81786
516.057 11.3552
516.129 14.2196
516.166 16.1082
516.202 18.4129
516.220 19.7668
516.239 21.2809
516.257 22.9811
516.275 24.8878
516.293 27.0601
516.311 29.5206
516.329 32.3546
516.347 35.6027
516.384 43.8233
516.420 55.2230
516.456 71.6801
516.493 96.5732
516.529 136.615
516.547 166.150
516.565 205.405
516.584 259.266
516.602 333.776
516.620 439.316
516.638 586.168
516.669 937.094
516.700 1168.89
516.731 933.310
516.762 583.176
516.797 340.032
516.831 213.026
516.866 143.361
516.901 102.233
516.935 76.2808
516.970 58.9786
517.039 38.1919
517.108 26.7054
517.177 19.7373
517.316 12.0730
517.454 8.17603
517.593 5.93081
517.731 4.51747
517.870 3.57068
518.147 2.41650
518.423 1.76392
518.977 1.08540
519.531 0.753095
520.085 0.563118
521.192 0.361270
522.300 0.259277
523.407 0.199463
525.622 0.134506
527.838 0.101505
530.053 0.0827096
534.483 0.0652642
538.913 0.0638463
541.128 0.0698627
543.343 0.0844735
545.558 0.119132
546.666 0.154723
547.773 0.220295
548.327 0.275821
548.881 0.360870
549.435 0.500688
549.989 0.754649
550.265 0.967776
550.542 1.29187
550.819 1.81982
551.096 2.76618
551.235 3.55054
551.373 4.72719
551.442 5.55152
551.511 6.61171
551.546 7.26005
551.581 8.00901
551.615 8.88048
551.650 9.90263
551.685 11.1160
551.719 12.5623
551.754 14.3102
551.788 16.4493
551.823 19.1049
551.858 22.4565
551.892 26.7680
551.927 32.4401
551.961 40.1034
551.996 50.7939
552.031 66.3024
552.065 89.9176
552.100 128.128
552.134 194.814
552.152 247.565
552.169 321.855
552.186 428.065
552.204 579.142
552.232 927.608
552.260 1160.48
552.288 929.178
552.317 581.374
552.342 373.032
552.368 250.131
552.394 176.320
552.419 129.991
552.471 78.0133
552.522 51.6717
552.573 36.6028
552.625 27.2576
552.727 16.7646
552.830 11.3306
552.933 8.16876
553.035 6.16690
553.138 4.82289
553.343 3.18416
553.549 2.26298
553.754 1.69422
553.959 1.31870
554.370 0.869499
554.780 0.621654
555.191 0.470773
555.602 0.372415
556.423 0.256861
557.244 0.195239
558.887 0.139819
560.529 0.128925
561.351 0.138438
562.172 0.165362
562.993 0.231858
563.404 0.300793
563.815 0.427795
564.020 0.535045
564.225 0.698471
564.431 0.965071
564.636 1.44346
564.739 1.83989
564.841 2.43422
564.944 3.38573
565.047 5.04504
565.149 8.34051
565.201 11.3572
565.252 16.3588
565.278 20.1975
565.303 25.5443
565.316 29.0528
565.329 33.2852
565.342 38.4909
565.355 44.9826
565.367 53.2759
565.380 63.8879
565.393 77.8225
565.406 96.5016
565.419 122.320
565.432 158.171
565.444 208.967
565.457 280.505
565.468 359.522
565.479 448.935
565.500 560.689
565.511 527.526
565.522 448.607
565.543 280.241
565.567 162.409
565.592 101.149
565.616 67.7777
565.640 48.1726
565.665 35.8452
565.689 27.6484
565.737 17.8424
565.786 12.4311
565.834 9.15573
565.932 5.55689
566.029 3.73381
566.126 2.68605
566.223 2.02939
566.320 1.59103
566.514 1.06060
566.708 0.764189
566.903 0.581961
567.097 0.462008
567.485 0.318914
567.874 0.240163
568.650 0.161167
569.427 0.124705
570.204 0.105429
571.758 0.0883416
574.865 0.0860026
577.972 0.106039
581.080 0.159151
582.633 0.213719
584.187 0.313350
584.964 0.396992
585.741 0.524135
586.517 0.731296
587.294 1.10357
587.683 1.41311
587.877 1.62100
588.071 1.87992
588.265 2.20813
588.362 2.40624
588.460 2.63285
588.557 2.89372
588.654 3.19615
588.751 3.54947
588.848 3.96580
588.945 4.46111
589.042 5.05673
589.236 6.67647
589.333 7.79840
589.431 9.23139
589.528 11.1017
589.625 13.6067
589.722 17.0679
589.819 22.0375
589.916 29.5274
590.013 41.5460
590.110 62.5149
590.159 79.3303
590.207 103.565
590.256 140.137
590.304 197.745
590.353 293.125
590.402 453.134
590.456 726.046
590.510 911.737
590.564 732.869
590.619 458.865
590.660 316.301
590.701 224.512
590.742 164.944
590.783 125.336
590.865 78.4623
590.947 53.3583
591.029 38.5363
591.111 29.1165
591.275 18.3376
591.439 12.6763
591.604 9.37975
591.768 7.32901
591.932 6.01640
592.260 4.75238
592.424 4.69311
592.589 5.16136
592.753 6.67263
592.835 8.28513
592.917 11.1717
592.999 16.8992
593.040 22.0667
593.081 30.4070
593.122 45.1174
593.143 56.9509
593.153 64.7425
593.163 74.1284
593.173 85.7869
593.184 100.157
593.194 118.445
593.204 141.557
593.214 171.699
593.225 210.603
593.235 261.970
593.245 327.815
593.256 419.663
593.268 523.336
593.290 650.963
593.301 611.247
593.313 519.221
593.335 325.266
593.358 197.367
593.382 127.224
593.405 87.4251
593.428 63.4483
593.451 47.9804
593.475 37.5766
593.521 24.8731
593.568 17.7614
593.614 13.3937
593.707 8.53192
593.800 6.02073
593.893 4.55195
594.079 2.97105
594.265 2.16675
594.451 1.69203
594.823 1.16483
595.195 0.881202
595.568 0.704315
596.312 0.495923
597.056 0.378011
597.800 0.303339
599.288 0.217487
600.777 0.175076
602.265 0.162219
603.009 0.173663
603.753 0.224965
604.125 0.301989
604.311 0.379303
604.497 0.519018
604.684 0.809955
604.777 1.08972
604.870 1.57871
604.963 2.55015
605.009 3.44120
605.056 4.92045
605.102 7.63503
605.125 9.93033
605.149 13.4034
605.172 19.0323
605.195 28.7726
605.218 47.2949
605.230 62.6221
605.242 84.2938
605.251 108.067
605.261 134.947
605.280 168.499
605.299 134.695
605.319 84.3132
605.339 50.7616
605.359 32.5596
605.379 22.2678
605.399 16.0628
605.419 12.0728
605.439 9.39957
605.480 6.15244
605.520 4.33766
605.560 3.23066
605.641 2.00477
605.721 1.37933
605.802 1.01820
605.962 0.639249
606.123 0.454686
606.284 0.351231
606.606 0.245260
606.928 0.194821
607.250 0.166962
607.894 0.139125
609.181 0.121013
610.469 0.118943
613.044 0.135373
615.620 0.180359
616.907 0.221339
618.195 0.285443
619.482 0.391901
620.770 0.585996
621.414 0.748870
622.058 0.996184
622.380 1.17098
622.702 1.39809
622.863 1.53808
623.023 1.70066
623.184 1.89118
623.345 2.11616
623.506 2.38477
623.667 2.70863
623.828 3.10450
623.989 3.59473
624.150 4.21266
624.311 5.00562
624.472 6.04777
624.633 7.45322
624.794 9.41459
624.955 12.2627
625.116 16.6259
625.277 23.7773
625.357 29.1989
625.438 36.6720
625.518 47.3459
625.599 63.2422
625.679 88.2622
625.760 130.171
625.840 205.340
625.921 345.327
625.995 552.941
626.070 692.585
626.145 555.223
626.220 347.311
626.276 239.143
626.333 169.472
626.390 124.434
626.447 94.4840
626.560 59.0473
626.674 40.0916
626.787 28.8875
626.901 21.7685
627.128 13.6007
627.355 9.28606
627.582 6.74031
627.809 5.11573
628.036 4.01729
628.490 2.67003
628.944 1.90800
629.399 1.43605
629.853 1.12419
630.761 0.752219
631.669 0.549859
632.577 0.431097
633.486 0.360007
635.302 0.307473
636.210 0.323484
637.119 0.385559
638.027 0.549702
638.481 0.722825
638.935 1.04328
639.162 1.31391
639.389 1.72590
639.616 2.39606
639.843 3.59170
639.957 4.57717
640.071 6.04627
640.184 8.37661
640.241 10.0925
640.269 11.1571
640.298 12.3959
640.326 13.8597
640.354 15.5997
640.383 17.6897
640.411 20.2294
640.440 23.3565
640.468 27.2649
640.496 32.2349
640.525 38.6563
640.553 47.2089
640.581 58.8819
640.610 75.3452
640.638 99.3904
640.667 136.451
640.695 196.570
640.723 299.603
640.738 377.696
640.752 479.792
640.781 766.989
640.810 957.318
640.839 765.283
640.868 478.441
640.891 327.947
640.913 231.945
640.936 169.852
640.958 128.810
641.003 80.3602
641.048 54.4950
641.093 39.2485
641.138 29.5642
641.228 18.4763
641.317 12.6195
641.407 9.16560
641.497 6.96199
641.587 5.47287
641.766 3.64431
641.946 2.60911
642.125 1.96652
642.305 1.54042
642.664 1.02796
643.023 0.743222
643.382 0.568596
643.741 0.453828
644.459 0.317082
645.177 0.242197
646.613 0.170261
648.050 0.148129
648.768 0.152477
649.486 0.173624
650.204 0.231970
650.563 0.294371
650.922 0.410585
651.102 0.509137
651.281 0.659478
651.461 0.904686
651.640 1.34390
651.730 1.70698
651.820 2.25048
651.909 3.11651
651.999 4.61763
652.089 7.57111
652.134 10.2503
652.179 14.6324
652.224 22.5412
652.246 29.1032
652.268 38.8429
652.280 45.6451
652.291 54.2195
652.302 65.2914
652.313 79.8357
652.325 99.2726
652.336 125.646
652.347 161.737
652.358 210.728
652.369 269.865
652.379 337.435
652.400 421.322
652.411 396.402
652.421 336.706
652.442 210.656
652.458 144.494
652.474 102.313
652.490 75.0888
652.506 56.9780
652.538 35.6115
652.570 24.1813
652.602 17.4344
652.634 13.1447
652.698 8.22472
652.762 5.62421
652.826 4.09252
652.890 3.11467
652.954 2.45296
653.082 1.64056
653.210 1.18060
653.338 0.894801
653.466 0.705389
653.722 0.477407
653.979 0.350532
654.491 0.221193
655.003 0.159468
655.515 0.124972
656.539 0.0892053
657.564 0.0715384
658.588 0.0612749
660.636 0.0501699
664.734 0.0419204
668.831 0.0416894
672.928 0.0490745
674.977 0.0579534
677.025 0.0743470
679.074 0.107917
680.098 0.139505
681.123 0.193906
682.147 0.301851
682.659 0.402990
683.171 0.578498
683.683 0.933094
683.939 1.27124
684.195 1.86591
684.324 2.35310
684.452 3.07893
684.580 4.23516
684.708 6.24664
684.772 7.87031
684.804 8.93710
684.836 10.2429
684.868 11.8647
684.900 13.9131
684.932 16.5511
684.948 18.1641
684.964 20.0269
684.996 24.7331
685.028 31.3173
685.060 40.9069
685.092 55.5901
685.124 79.5369
685.140 97.4793
685.156 121.823
685.172 155.667
685.188 203.845
685.204 273.625
685.220 374.315
685.245 599.523
685.270 750.627
685.295 601.646
685.320 376.722
685.340 254.733
685.361 177.965
685.381 129.323
685.401 97.4322
685.441 60.3731
685.481 40.8423
685.521 29.4303
685.562 22.2291
685.642 14.0392
685.722 9.76228
685.803 7.26903
685.964 4.66761
686.124 3.46520
686.285 2.88300
686.607 2.65345
686.768 2.89275
686.928 3.42164
687.089 4.40612
687.250 6.25387
687.330 7.79067
687.411 10.0763
687.451 11.6551
687.491 13.6631
687.511 14.8775
687.531 16.2678
687.551 17.8693
687.572 19.7262
687.592 21.8952
687.612 24.4492
687.632 27.4835
687.652 31.1244
687.672 35.5422
687.692 40.9698
687.712 47.7326
687.732 56.2949
687.752 67.3341
687.773 81.8647
687.793 101.448
687.813 128.551
687.833 167.177
687.853 223.889
687.873 309.178
687.893 437.433
687.922 699.822
687.950 873.812
687.979 698.892
688.007 436.684
688.024 324.665
688.041 245.346
688.075 149.827
688.109 99.1425
688.144 69.8890
688.178 51.7179
688.212 39.7406
688.280 25.5125
688.348 17.7435
688.416 13.0557
688.553 7.93317
688.689 5.34547
688.826 3.85885
688.962 2.92616
689.098 2.30224
689.371 1.54395
689.644 1.11737
689.917 0.853102
690.190 0.677869
690.735 0.467221
691.281 0.351173
692.372 0.240916
693.464 0.212030
694.009 0.224562
694.555 0.267743
695.101 0.379617
695.373 0.496851
695.646 0.712930
695.783 0.894682
695.919 1.17037
696.055 1.61657
696.192 2.40737
696.260 3.05388
696.328 4.01166
696.396 5.51648
696.465 8.07638
696.533 12.9531
696.567 17.2306
696.601 24.0001
696.618 28.9715
696.635 35.5710
696.644 39.7751
696.652 44.6793
696.661 50.5086
696.669 57.4972
696.678 66.0615
696.686 76.4119
696.695 89.1764
696.703 105.066
696.712 125.272
696.720 150.515
696.729 182.388
696.737 222.244
696.748 284.521
696.759 355.649
696.780 444.026
696.791 417.911
696.801 355.151
696.823 221.849
696.847 128.003
696.872 79.4846
696.896 53.1600
696.920 37.7863
696.945 28.0896
696.969 21.6740
697.018 13.9745
697.067 9.73307
697.115 7.16868
697.213 4.35586
697.310 2.93019
697.408 2.11180
697.505 1.59870
697.602 1.25597
697.797 0.840611
697.992 0.608024
698.187 0.464609
698.382 0.369877
698.772 0.255996
699.161 0.192454
699.941 0.126971
700.720 0.0950240
701.500 0.0767152
703.059 0.0571367
706.177 0.0416217
709.294 0.0367718
712.412 0.0379260
713.971 0.0416006
715.530 0.0496037
717.089 0.0680026
717.869 0.0867638
718.648 0.121274
719.038 0.150488
719.428 0.195213
719.817 0.268701
720.207 0.402083
720.402 0.513909
720.597 0.683767
720.792 0.959998
720.987 1.45377
721.084 1.86205
721.181 2.47269
721.279 3.44611
721.376 5.13748
721.474 8.47391
721.522 11.5056
721.571 16.4919
721.596 20.2895
721.608 22.6923
721.620 25.5151
721.632 28.9186
721.644 33.0340
721.656 38.0681
721.669 44.2485
721.681 52.0722
721.693 62.0581
721.705 75.0233
721.717 92.0038
721.729 115.033
721.742 146.563
721.754 190.160
721.766 249.409
721.788 399.224
721.810 498.832
721.821 469.446
721.832 399.276
721.854 249.443
721.868 184.835
721.881 139.545
721.908 84.8263
721.934 55.9409
721.961 39.3770
721.988 29.0676
722.014 22.2868
722.068 14.2607
722.121 9.87855
722.174 7.24384
722.281 4.36768
722.388 2.91929
722.494 2.09001
722.601 1.57164
722.708 1.22627
722.921 0.809216
723.135 0.576649
723.348 0.433892
723.561 0.340033
723.988 0.228224
724.415 0.166730
724.842 0.129359
725.269 0.104987
726.122 0.0762510
726.976 0.0606908
728.683 0.0455706
732.097 0.0364811
735.512 0.0367110
738.926 0.0435566
740.633 0.0513561
742.340 0.0658551
744.047 0.0968559
744.901 0.127637
745.754 0.183623
746.181 0.230747
746.608 0.302693
747.035 0.420622
747.462 0.634210
747.675 0.812957
747.888 1.08411
748.102 1.52436
748.315 2.31019
748.422 2.95800
748.529 3.92601
748.635 5.46541
748.689 6.60192
748.742 8.13098
748.769 9.10486
748.795 10.2646
748.822 11.6602
748.849 13.3530
748.875 15.4498
748.902 18.0785
748.929 21.4334
748.955 25.7860
748.982 31.6154
749.009 39.6257
749.036 51.0212
749.062 67.8496
749.089 94.1922
749.115 137.637
749.129 170.558
749.142 214.568
749.155 274.224
749.169 354.417
749.194 567.543
749.220 710.490
749.246 569.689
749.271 356.779
749.296 222.175
749.321 145.874
749.346 101.170
749.371 73.7257
749.396 55.7954
749.421 43.6194
749.471 28.6235
749.521 20.1651
749.571 14.9517
749.670 9.14967
749.770 6.16611
749.870 4.43801
749.970 3.34730
750.069 2.61673
750.269 1.72803
750.469 1.22965
750.668 0.922426
750.868 0.719833
751.267 0.477774
751.666 0.344376
752.065 0.263230
752.464 0.210313
753.262 0.148020
754.060 0.114471
755.656 0.0823641
757.252 0.0694387
758.848 0.0647546
762.040 0.0686948
765.233 0.0904645
766.829 0.114197
768.425 0.158071
769.223 0.195134
770.021 0.251766
770.819 0.344646
771.617 0.513025
772.016 0.654189
772.415 0.868671
772.814 1.21788
773.014 1.48134
773.213 1.84391
773.313 2.07880
773.413 2.36265
773.513 2.71007
773.613 3.14105
773.712 3.68587
773.812 4.38684
773.912 5.31176
774.012 6.56417
774.111 8.32247
774.211 10.8933
774.311 14.8721
774.411 21.4817
774.460 26.5631
774.510 33.6573
774.560 43.9593
774.610 59.6295
774.660 85.0739
774.710 129.612
774.735 165.037
774.760 214.876
774.785 286.362
774.810 388.492
774.850 623.108
774.890 784.618
774.930 632.332
774.971 396.170
775.011 242.078
775.052 156.441
775.093 107.438
775.134 77.6578
775.175 58.4810
775.215 45.5068
775.297 29.7055
775.378 20.8483
775.460 15.4184
775.623 9.40383
775.786 6.32710
775.949 4.54985
776.113 3.43102
776.276 2.68255
776.602 1.77423
776.928 1.26552
777.255 0.952451
777.581 0.746332
778.234 0.500715
778.886 0.365923
779.539 0.284470
780.191 0.231875
781.497 0.171419
782.802 0.140924
785.412 0.119081
788.023 0.126829
789.328 0.143147
790.633 0.175415
791.938 0.244573
792.591 0.312426
793.243 0.434420
793.896 0.690474
794.222 0.941480
794.549 1.39195
794.712 1.76601
794.875 2.32886
794.956 2.72400
795.038 3.23432
795.120 3.90936
795.201 4.82704
795.242 5.41620
795.283 6.12264
795.324 6.97957
795.364 8.03285
795.405 9.34713
795.446 11.0159
795.487 13.1781
795.527 16.0398
795.568 19.9566
795.609 25.4968
795.650 33.6810
795.691 46.4138
795.731 67.7821
795.752 84.2133
795.772 107.043
795.793 139.742
795.813 188.069
795.833 261.375
795.854 372.114
795.882 595.959
795.910 749.326
795.938 602.568
795.967 377.266
795.993 237.565
796.020 157.247
796.047 109.834
796.073 80.3613
796.127 47.8098
796.180 31.5155
796.234 22.2677
796.287 16.5626
796.394 10.1852
796.501 6.90258
796.608 4.99711
796.715 3.79497
796.822 2.98941
797.035 2.00966
797.249 1.46071
797.463 1.12328
797.677 0.901847
798.104 0.639861
798.532 0.498895
799.387 0.366619
800.242 0.318438
801.097 0.308451
802.807 0.359276
804.518 0.524795
804.945 0.598889
805.373 0.695849
805.800 0.825565
806.014 0.907361
806.228 1.00404
806.442 1.11953
806.655 1.25897
806.869 1.42951
807.083 1.64106
807.297 1.90830
807.510 2.25265
807.724 2.70718
807.938 3.32463
808.152 4.19497
808.366 5.47840
808.579 7.48636
808.793 10.8874
808.900 13.5532
809.007 17.3484
809.114 23.0058
809.221 31.9414
809.327 47.2201
809.434 76.1897
809.488 101.158
809.541 139.227
809.595 199.490
809.648 295.934
809.714 475.284
809.780 604.583
809.846 492.538
809.912 309.439
809.990 175.501
810.067 107.705
810.145 71.5293
810.223 50.6525
810.300 37.6756
810.378 29.1512
810.533 19.0835
810.688 13.6750
810.844 10.5268
811.154 7.52064
811.465 7.03521
811.620 7.74708
811.775 9.56742
811.930 13.7401
811.969 15.5014
812.008 17.7489
812.047 20.6652
812.066 22.4555
812.086 24.5271
812.105 26.9535
812.125 29.7865
812.144 33.1368
812.163 37.1340
812.183 41.9507
812.202 47.8193
812.222 55.0586
812.241 64.1136
812.260 75.6174
812.280 90.4898
812.299 110.094
812.319 136.487
812.338 172.819
812.357 223.890
812.377 296.704
812.396 399.859
812.428 637.989
812.460 792.145
812.492 630.552
812.524 394.590
812.548 273.463
812.572 195.303
812.596 144.240
812.620 110.195
812.668 69.6474
812.716 47.7987
812.763 34.8323
812.811 26.5515
812.907 17.0007
813.003 11.9184
813.099 8.89385
813.290 5.61381
813.482 3.95136
813.673 2.98485
814.056 1.94489
814.440 1.41408
814.823 1.10014
815.589 0.754625
816.355 0.574851
817.121 0.468917
818.654 0.358341
820.186 0.311620
821.719 0.297592
824.784 0.334923
826.316 0.388434
827.082 0.427513
827.848 0.477796
828.232 0.508220
828.615 0.542924
828.998 0.582667
829.381 0.628386
829.764 0.681264
830.147 0.742800
830.530 0.814929
830.913 0.900170
831.297 1.00189
831.680 1.12453
832.063 1.27426
832.446 1.45971
832.829 1.69326
833.212 1.99318
833.595 2.38741
833.978 2.92026
834.361 3.66557
834.744 4.75368
835.128 6.43207
835.511 9.21741
835.894 14.3339
836.085 18.6585
836.277 25.2437
836.468 35.9178
836.660 54.5835
836.852 90.3472
836.947 120.448
837.043 163.540
837.197 262.349
837.350 333.475
837.504 271.894
837.657 171.007
837.789 112.239
837.922 76.5430
838.054 54.6167
838.186 40.6114
838.451 24.7473
838.715 16.6005
838.980 11.9248
839.244 9.01550
839.773 5.76611
840.302 4.12094
840.831 3.21218
841.360 2.70215
841.889 2.44693
842.947 2.54169
843.476 2.97002
843.740 3.34475
843.873 3.59067
844.005 3.88707
844.137 4.24626
844.269 4.68370
844.402 5.22186
844.468 5.53735
844.534 5.89004
844.600 6.28631
844.666 6.73187
844.798 7.80777
844.930 9.21026
845.063 11.0812
845.195 13.6505
845.327 17.2979
845.459 22.7142
845.592 31.2029
845.724 45.5231
845.790 56.5902
845.856 72.0421
845.922 94.3039
845.988 127.437
846.054 178.091
846.121 255.595
846.210 407.718
846.300 504.965
846.390 400.629
846.480 250.162
846.583 143.620
846.687 89.0149
846.791 59.5384
846.895 42.3337
846.999 31.5436
847.103 24.3931
847.310 15.8394
847.518 11.1374
847.726 8.28966
848.141 5.16514
848.557 3.58111
848.972 2.67072
849.803 1.72256
850.634 1.27358
851.465 1.04025
853.127 0.883263
854.788 1.01997
855.619 1.24885
856.450 1.70493
856.866 2.09619
857.073 2.36066
857.281 2.69042
857.385 2.88654
857.489 3.10810
857.593 3.35961
857.696 3.64627
857.800 3.97549
857.904 4.35520
858.008 4.79699
858.112 5.31393
858.216 5.92509
858.320 6.65381
858.424 7.53195
858.527 8.60168
858.631 9.92514
858.735 11.5849
858.839 13.7081
858.943 16.4761
859.047 20.1818
859.150 25.2801
859.254 32.5598
859.358 43.3867
859.462 60.3806
859.566 88.6962
859.670 139.181
859.722 178.739
859.774 232.180
859.872 370.592
859.970 459.052
860.068 364.057
860.167 227.167
860.245 153.931
860.323 107.834
860.401 78.5009
860.479 59.2389
860.635 36.7593
860.792 24.8650
860.948 17.8929
861.104 13.4808
861.417 8.44325
861.729 5.79251
862.042 4.23140
862.667 2.56258
863.292 1.73582
863.917 1.26652
864.543 0.974308
865.168 0.779922
866.418 0.545095
867.668 0.414092
870.169 0.282846
872.669 0.229120
875.170 0.225049
876.420 0.255382
877.046 0.291704
877.671 0.361558
878.296 0.513912
878.608 0.665723
878.921 0.940346
879.077 1.16954
879.234 1.51591
879.390 2.07508
879.546 3.06362
879.624 3.87218
879.702 5.06808
879.781 6.94918
879.859 10.1450
879.898 12.6582
879.937 16.2423
879.956 18.6411
879.976 21.5940
879.995 25.3024
880.015 30.0418
880.035 36.2585
880.054 44.5207
880.074 55.8526
880.093 71.8880
880.113 95.5453
880.132 131.435
880.152 187.992
880.171 277.739
880.196 444.362
880.220 554.668
880.232 521.700
880.245 443.532
880.269 277.651
880.286 196.134
880.303 142.210
880.321 106.121
880.338 81.6720
880.372 52.0022
880.407 35.7423
880.441 25.9914
880.476 19.7233
880.545 12.4657
880.614 8.58877
880.683 6.28664
880.821 3.81038
880.959 2.57729
881.097 1.87720
881.235 1.44167
881.373 1.15293
881.648 0.805851
881.924 0.613559
882.476 0.420043
883.028 0.330823
883.580 0.283985
884.683 0.243409
886.890 0.241396
889.097 0.296324
891.304 0.437165
892.408 0.580075
893.511 0.838268
894.063 1.05285
894.339 1.19679
894.615 1.37579
894.891 1.60223
895.029 1.73872
895.167 1.89449
895.305 2.07364
895.443 2.28076
895.581 2.52219
895.719 2.80594
895.857 3.14274
895.994 3.54608
896.270 4.63601
896.546 6.33549
896.684 7.56524
896.822 9.19535
896.960 11.4206
897.098 14.5606
897.236 19.1929
897.374 26.3965
897.512 38.4256
897.650 60.3846
897.719 78.5793
897.788 105.276
897.857 145.537
897.926 206.118
898.023 330.028
898.120 413.818
898.217 332.173
898.315 207.885
898.417 124.913
898.519 79.7964
898.621 54.3924
898.724 39.1255
898.826 29.3721
898.928 22.8115
899.133 14.8610
899.338 10.4371
899.542 7.73554
899.951 4.75456
900.360 3.23770
900.770 2.36537
901.179 1.81994
901.588 1.45793
902.406 1.02670
903.225 0.796292
904.861 0.598892
906.498 0.584268
907.316 0.639943
908.135 0.765590
908.953 1.04119
909.362 1.30840
909.771 1.77945
910.181 2.74079
910.283 3.14209
910.385 3.65826
910.488 4.33839
910.590 5.25994
910.641 5.85061
910.692 6.55632
910.743 7.41270
910.794 8.46160
910.846 9.77096
910.897 11.4276
910.948 13.5750
910.999 16.4146
911.050 20.2939
911.101 25.7591
911.152 33.8290
911.204 46.3595
911.255 67.3070
911.280 83.3610
911.306 105.496
911.331 137.179
911.357 183.550
911.383 253.672
911.408 359.006
911.444 574.985
911.480 723.535
911.516 583.000
911.552 365.267
911.576 264.854
911.599 196.136
911.646 116.118
911.693 75.4158
911.740 52.5834
911.787 38.6794
911.833 29.6466
911.927 19.0747
912.021 13.3911
912.115 10.0030
912.302 6.35928
912.490 4.56344
912.677 3.56810
913.053 2.61208
913.428 2.26077
913.803 2.19526
914.178 2.31798
914.366 2.44307
914.553 2.61341
914.741 2.83510
914.928 3.11745
915.022 3.28551
915.116 3.47437
915.210 3.68676
915.303 3.92567
915.397 4.19555
915.491 4.50093
915.678 5.24225
915.866 6.21477
916.054 7.51719
916.241 9.31201
916.429 11.8714
916.616 15.6850
916.804 21.6940
916.991 31.9017
917.085 39.8524
917.179 51.0143
917.273 67.2481
917.367 91.6754
917.460 129.538
917.554 188.294
917.677 300.313
917.800 371.375
917.923 294.063
918.046 183.383
918.133 129.610
918.220 93.9457
918.307 70.1993
918.394 54.0324
918.568 34.4522
918.742 23.7134
918.915 17.2617
919.089 13.1124
919.437 8.29514
919.785 5.72232
920.132 4.19207
920.828 2.54194
921.523 1.71925
922.219 1.25182
922.914 0.962534
923.609 0.773328
925.000 0.562002
926.391 0.503997
927.086 0.562349
927.434 0.646222
927.782 0.815615
928.130 1.19244
928.303 1.56823
928.477 2.24213
928.651 3.62777
928.738 4.94133
928.825 7.20056
928.912 11.5827
928.955 15.4959
928.999 21.7877
929.042 32.8571
929.064 41.7548
929.075 47.6105
929.086 54.6681
929.097 63.4302
929.108 74.3494
929.118 88.1297
929.129 105.563
929.140 128.298
929.151 157.678
929.162 196.475
929.173 246.263
929.185 315.315
929.196 393.222
929.220 489.124
929.232 458.995
929.244 389.776
929.267 243.561
929.286 165.263
929.305 116.022
929.324 84.6270
929.342 63.9352
929.380 39.7055
929.417 26.9026
929.455 19.3710
929.492 14.6154
929.567 9.17888
929.642 6.31397
929.717 4.62699
929.866 2.82494
930.016 1.93219
930.166 1.42595
930.465 0.900864
930.765 0.646365
931.064 0.502721
931.663 0.352284
932.262 0.276809
932.861 0.232035
934.059 0.181161
936.455 0.133996
938.851 0.111343
943.642 0.0921899
948.434 0.0919965
953.225 0.112574
955.621 0.137840
958.017 0.185941
960.413 0.289289
961.611 0.391192
962.809 0.574372
963.408 0.726641
964.006 0.956265
964.605 1.32667
964.905 1.60380
965.055 1.77756
965.204 1.98230
965.354 2.22605
965.504 2.51896
965.654 2.87572
965.803 3.31570
965.953 3.86773
966.103 4.57224
966.253 5.49153
966.402 6.72227
966.552 8.42326
966.702 10.8626
966.851 14.5351
967.001 20.4195
967.151 30.6715
967.226 38.8658
967.301 50.6562
967.376 68.3791
967.450 96.1908
967.525 141.911
967.600 218.011
967.685 348.771
967.770 436.159
967.855 349.155
967.940 218.299
968.033 128.767
968.126 81.2005
968.219 54.8721
968.312 39.2356
968.405 29.3288
968.497 22.7057
968.683 14.7320
968.869 10.3197
969.055 7.63876
969.426 4.69494
969.798 3.21075
970.169 2.36976
970.541 1.85913
970.912 1.54082
971.655 1.26176
972.027 1.27986
972.398 1.45504
972.770 1.95978
972.955 2.49605
973.141 3.47581
973.327 5.50256
973.420 7.42203
973.513 10.7033
973.606 17.0038
973.629 19.4955
973.652 22.5735
973.675 26.4511
973.698 31.4249
973.710 34.4817
973.722 37.9714
973.733 42.0125
973.745 46.7238
973.757 52.2567
973.768 58.8057
973.791 76.0415
973.815 101.575
973.838 140.989
973.849 168.758
973.861 204.150
973.873 249.291
973.884 306.283
973.912 489.226
973.940 607.434
973.954 569.812
973.968 483.174
973.996 302.082
974.020 199.815
974.043 137.479
974.067 98.8059
974.090 73.8450
974.138 45.2746
974.185 30.4256
974.232 21.8067
974.279 16.4089
974.374 10.2890
974.468 7.08861
974.563 5.21353
974.752 3.21375
974.940 2.22483
975.129 1.66306
975.507 1.07867
975.885 0.794114
976.263 0.633452
977.018 0.468379
977.774 0.393328
978.529 0.360152
980.040 0.369276
981.551 0.489266
982.307 0.630419
983.062 0.897204
983.440 1.12359
983.818 1.46820
984.196 2.02740
984.574 3.02026
984.668 3.38970
984.762 3.83342
984.857 4.37386
984.951 5.03968
985.046 5.87454
985.140 6.93814
985.235 8.32331
985.282 9.17834
985.329 10.1731
985.424 12.7221
985.518 16.3598
985.612 21.8100
985.707 30.4593
985.754 36.8272
985.801 45.3415
985.849 57.0683
985.896 73.7505
985.943 98.3747
985.990 136.205
986.037 196.461
986.085 293.212
986.142 468.610
986.200 582.419
986.258 463.321
986.316 289.319
986.369 184.331
986.423 123.014
986.476 86.4462
986.529 63.5664
986.636 38.0859
986.743 25.1955
986.850 17.8528
986.957 13.2967
987.171 8.19016
987.385 5.55074
987.599 4.01537
987.812 3.04455
988.026 2.39218
988.454 1.59724
988.881 1.14999
989.309 0.873568
989.737 0.690945
990.592 0.472222
991.447 0.351418
993.158 0.230605
994.868 0.176691
996.579 0.151837
998.290 0.144450
1000.00 0.153292
1001.71 0.187969
1002.57 0.225406
1003.42 0.293404
1004.28 0.434394
1004.71 0.570399
1005.13 0.810830
1005.56 1.30737
1005.77 1.78635
1005.99 2.62746
1006.09 3.31788
1006.20 4.34354
1006.31 5.96367
1006.36 7.16450
1006.42 8.74560
1006.44 9.76512
1006.47 10.9773
1006.50 12.4335
1006.52 14.1313
1006.55 16.2940
1006.58 18.9966
1006.60 22.4323
1006.63 26.7001
1006.66 32.5493
1006.68 40.5186
1006.71 51.7313
1006.74 67.3880
1006.76 92.0361
1006.79 129.764
1006.82 195.208
1006.84 302.248
1006.87 483.788
1006.90 605.425
1006.93 484.676
1006.96 302.941
1006.98 195.630
1007.01 131.873
1007.04 93.3533
1007.06 69.7489
1007.11 42.0278
1007.16 28.1367
1007.22 20.0112
1007.27 15.0489
1007.37 9.44350
1007.47 6.51089
1007.57 4.82534
1007.78 3.05628
1007.98 2.22955
1008.19 1.81380
1008.60 1.57724
1009.01 1.91852
1009.21 2.41281
1009.42 3.36641
1009.62 5.37867
1009.73 7.30791
1009.83 10.5856
1009.86 11.7945
1009.88 13.2301
1009.91 14.9521
1009.93 16.9524
1009.96 19.4974
1009.98 22.5314
1010.01 26.5072
1010.03 31.4094
1010.06 38.0886
1010.09 47.1055
1010.11 59.6429
1010.14 76.8570
1010.16 103.448
1010.19 142.987
1010.21 209.172
1010.24 312.464
1010.27 502.995
1010.30 623.351
1010.32 582.351
1010.33 494.131
1010.36 310.641
1010.38 224.878
1010.40 168.584
1010.44 100.509
1010.48 65.5092
1010.52 45.7255
1010.56 33.6107
1010.60 25.7064
1010.67 16.4102
1010.75 11.3827
1010.83 8.36814
1010.99 5.09305
1011.14 3.44738
1011.30 2.50513
1011.45 1.91532
1011.61 1.52352
1011.92 1.04475
1012.23 0.776538
1012.85 0.500053
1013.48 0.367864
1014.10 0.295142
1015.35 0.224945
1016.59 0.198624
1017.84 0.193537
1020.33 0.226294
1022.82 0.334160
1024.07 0.447427
1025.32 0.653693
1025.94 0.825480
1026.56 1.08417
1026.87 1.26594
1027.19 1.49985
1027.34 1.64367
1027.50 1.81016
1027.65 2.00436
1027.81 2.23121
1027.96 2.50214
1028.12 2.82721
1028.28 3.22186
1028.43 3.70405
1028.59 4.31008
1028.74 5.08102
1028.90 6.08248
1029.05 7.40614
1029.21 9.23179
1029.37 11.8289
1029.52 15.6953
1029.68 21.7457
1029.83 32.0904
1029.91 40.1683
1029.99 51.5543
1030.07 68.1627
1030.15 93.2870
1030.22 132.514
1030.30 193.080
1030.40 308.342
1030.50 385.245
1030.60 307.600
1030.70 192.505
1030.82 111.395
1030.93 69.3601
1031.04 46.5171
1031.16 33.2159
1031.27 24.7791
1031.38 19.2249
1031.61 12.5569
1031.84 8.92180
1032.06 6.76208
1032.52 4.56921
1032.97 3.88785
1033.20 4.03602
1033.43 4.70119
1033.65 6.44702
1033.77 8.23302
1033.88 11.3491
1033.99 17.5014
1034.05 23.0100
1034.08 26.8061
1034.11 31.6821
1034.12 34.8828
1034.14 38.3406
1034.15 42.3491
1034.16 47.0279
1034.18 52.9589
1034.19 59.5617
1034.21 67.4611
1034.22 77.0007
1034.24 89.5633
1034.25 104.130
1034.26 122.300
1034.28 145.208
1034.29 174.374
1034.31 211.766
1034.32 259.745
1034.33 320.628
1034.37 510.639
1034.40 627.954
1034.42 583.101
1034.43 494.233
1034.47 307.792
1034.50 184.812
1034.54 119.749
1034.57 81.7841
1034.60 59.5153
1034.64 44.7924
1034.67 35.1385
1034.74 23.3066
1034.81 16.5647
1034.88 12.4791
1035.02 7.88612
1035.15 5.50354
1035.29 4.12286
1035.56 2.64206
1035.84 1.89295
1036.11 1.45702
1036.66 0.980983
1037.21 0.730942
1037.76 0.579194
1038.86 0.406236
1039.95 0.313103
1041.05 0.257827
1043.24 0.205378
1045.44 0.205365
1046.54 0.230263
1047.63 0.288535
1048.73 0.425568
1049.28 0.565525
1049.83 0.820879
1050.10 1.03595
1050.38 1.36105
1050.65 1.88764
1050.93 2.82310
1051.06 3.59684
1051.20 4.74018
1051.34 6.54538
1051.41 7.87858
1051.47 9.63846
1051.51 10.7848
1051.54 12.1066
1051.58 13.6871
1051.61 15.5979
1051.65 18.0137
1051.68 20.9368
1051.71 24.6262
1051.75 29.3698
1051.78 35.8132
1051.82 44.2843
1051.85 56.0464
1051.89 72.9551
1051.92 99.1864
1051.95 139.364
1051.99 205.098
1052.02 314.116
1052.06 502.187
1052.10 625.169
1052.14 497.868
1052.18 310.736
1052.22 189.035
1052.26 121.908
1052.30 83.6420
1052.34 60.4338
1052.38 45.5059
1052.42 35.4132
1052.50 23.2287
1052.58 16.3036
1052.66 12.1048
1052.82 7.40738
1052.98 4.99105
1053.13 3.60364
1053.29 2.72961
1053.45 2.14391
1053.77 1.43084
1054.09 1.03244
1054.41 0.786256
1054.73 0.624551
1055.36 0.431309
1056.00 0.325219
1057.27 0.220229
1058.55 0.174391
1059.82 0.153900
1062.37 0.152453
1064.92 0.199724
1066.19 0.256597
1067.46 0.364382
1068.10 0.456148
1068.74 0.596323
1069.38 0.825054
1070.01 1.23507
1070.33 1.57480
1070.65 2.08232
1070.81 2.43907
1070.97 2.89513
1071.13 3.49495
1071.21 3.87091
1071.29 4.30573
1071.37 4.82597
1071.45 5.44733
1071.53 6.19765
1071.61 7.10234
1071.69 8.23680
1071.76 9.64625
1071.84 11.4758
1071.92 13.8418
1072.00 17.0614
1072.08 21.4651
1072.16 27.8770
1072.24 37.3989
1072.32 52.7408
1072.40 78.5199
1072.44 98.6547
1072.48 126.438
1072.52 165.181
1072.56 217.209
1072.63 348.006
1072.70 431.476
1072.77 342.392
1072.84 214.343
1072.89 157.566
1072.93 118.694
1073.02 71.7047
1073.10 47.1127
1073.19 33.1719
1073.28 24.4442
1073.36 18.7209
1073.54 11.9853
1073.71 8.30024
1073.88 6.09655
1074.23 3.69342
1074.58 2.48109
1074.92 1.79026
1075.27 1.35835
1075.61 1.07263
1076.31 0.730289
1077.00 0.545252
1077.69 0.438791
1078.39 0.378513
1079.77 0.352825
1080.47 0.391630
1081.16 0.493237
1081.85 0.738598
1082.20 0.990476
1082.55 1.44814
1082.72 1.83254
1082.89 2.40907
1083.07 3.33470
1083.24 4.95717
1083.41 8.22050
1083.46 9.56972
1083.50 11.2392
1083.54 13.3887
1083.59 16.2195
1083.61 18.0274
1083.63 20.1535
1083.65 22.6760
1083.67 25.5483
1083.70 29.1764
1083.72 33.3989
1083.74 38.8651
1083.76 45.4034
1083.78 54.1324
1083.80 65.5304
1083.83 80.7358
1083.85 100.406
1083.87 129.034
1083.89 167.832
1083.91 226.517
1083.93 306.798
1083.97 488.088
1084.00 604.518
1084.03 481.723
1084.07 301.779
1084.09 219.814
1084.11 163.233
1084.16 98.1087
1084.20 64.2693
1084.24 44.9982
1084.29 32.9168
1084.33 25.2185
1084.41 16.1185
1084.50 11.1296
1084.59 8.17131
1084.76 4.94637
1084.93 3.31507
1085.10 2.38721
1085.28 1.80374
1085.45 1.41707
1085.80 0.946846
1086.14 0.684727
1086.49 0.523053
1086.83 0.416121
1087.52 0.287270
1088.21 0.215260
1089.59 0.140746
1090.97 0.104316
1092.35 0.0836303
1095.11 0.0626409
1097.88 0.0550824
1100.64 0.0593629
1102.02 0.0713156
1102.71 0.0839537
1103.40 0.107102
1104.09 0.155989
1104.43 0.203853
1104.78 0.289835
1104.95 0.361650
1105.12 0.469582
1105.30 0.645345
1105.47 0.956404
1105.56 1.21562
1105.64 1.59858
1105.73 2.20634
1105.81 3.25600
1105.90 5.33930
1105.94 7.20400
1105.99 10.2451
1106.03 15.6785
1106.05 20.2606
1106.07 26.7238
1106.09 37.2549
1106.11 44.8527
1106.12 53.7871
1106.13 66.7021
1106.14 84.1093
1106.15 107.710
1106.16 136.089
1106.17 175.613
1106.18 216.278
1106.20 268.983
1106.21 251.942
1106.22 215.942
1106.24 135.821
1106.26 85.8121
1106.28 56.8527
1106.30 39.7350
1106.32 29.0860
1106.36 17.3328
1106.40 11.4327
1106.44 8.08898
1106.48 6.02169
1106.56 3.71308
1106.64 2.52484
1106.72 1.83538
1106.80 1.40074
1106.88 1.11264
1107.04 0.758535
1107.20 0.561588
1107.52 0.365429
1107.84 0.278944
1108.16 0.239911
1108.80 0.233424
1109.44 0.310441
1109.76 0.404381
1110.08 0.582052
1110.24 0.733422
1110.40 0.964198
1110.56 1.33947
1110.72 2.00243
1110.80 2.54918
1110.88 3.36228
1110.96 4.64634
1111.03 6.80995
1111.11 11.0086
1111.15 14.7266
1111.19 20.6690
1111.21 25.0591
1111.23 30.9699
1111.24 34.7172
1111.25 39.1625
1111.26 44.4824
1111.27 50.9088
1111.28 58.7500
1111.29 68.4187
1111.30 80.4705
1111.31 95.6525
1111.32 114.959
1111.33 139.668
1111.34 171.299
1111.35 206.896
1111.37 265.420
1111.38 331.736
1111.40 409.029
1111.41 384.080
1111.42 325.189
1111.45 206.069
1111.47 139.136
1111.49 97.0427
1111.50 70.3989
1111.52 53.7037
1111.56 33.0645
1111.60 22.4444
1111.64 16.0472
1111.67 12.1093
1111.75 7.58432
1111.82 5.16628
1111.90 3.74573
1111.97 2.84180
1112.05 2.23836
1112.20 1.48834
1112.34 1.06681
1112.49 0.804931
1112.64 0.631154
1112.94 0.421501
1113.24 0.305313
1113.54 0.233767
1113.84 0.186828
1114.43 0.130597
1115.03 0.0994542
1116.22 0.0678623
1117.42 0.0530377
1118.61 0.0451707
1121.00 0.0388656
1123.39 0.0405092
1124.58 0.0452372
1125.78 0.0554262
1126.97 0.0787930
1127.57 0.102573
1128.17 0.146255
1128.47 0.183232
1128.76 0.239552
1129.06 0.332148
1129.36 0.498899
1129.51 0.639029
1129.66 0.849617
1129.81 1.18964
1129.96 1.79153
1130.03 2.28746
1130.11 3.02455
1130.18 4.18800
1130.26 6.14532
1130.33 9.94337
1130.37 13.2487
1130.41 18.4884
1130.43 22.4496
1130.44 27.7930
1130.45 31.3806
1130.46 35.2150
1130.47 39.7654
1130.48 45.2114
1130.49 52.6008
1130.50 60.7997
1130.51 70.8999
1130.52 83.4584
1130.53 101.187
1130.54 121.559
1130.55 147.253
1130.56 179.323
1130.57 232.511
1130.58 287.635
1130.60 354.782
1130.61 331.520
1130.62 282.256
1130.65 179.009
1130.66 132.028
1130.67 99.0434
1130.70 60.7157
1130.73 39.7179
1130.76 28.0941
1130.78 20.6227
1130.81 15.8881
1130.86 10.2292
1130.92 7.07690
1130.97 5.20967
1131.08 3.14676
1131.19 2.10632
1131.30 1.51001
1131.41 1.13701
1131.52 0.888357
1131.74 0.587914
1131.95 0.420263
1132.17 0.317298
1132.39 0.249568
1132.83 0.168696
1133.26 0.124297
1134.14 0.0796257
1135.01 0.0587379
1135.88 0.0473845
1137.62 0.0362243
1141.11 0.0291053
1144.60 0.0282968
1148.09 0.0307404
1151.58 0.0381348
1153.33 0.0470813
1154.20 0.0553481
1155.07 0.0697508
1155.94 0.0994335
1156.38 0.128359
1156.81 0.180420
1157.03 0.223907
1157.25 0.289901
1157.47 0.397283
1157.69 0.589844
1157.80 0.749441
1157.90 0.989280
1158.01 1.37375
1158.12 2.04737
1158.23 3.39211
1158.29 4.64698
1158.34 6.70512
1158.40 10.5950
1158.42 13.8545
1158.45 18.8420
1158.48 27.3609
1158.49 33.8454
1158.50 42.0209
1158.51 47.6115
1158.52 54.2893
1158.53 62.3155
1158.53 70.5127
1158.54 81.9569
1158.55 95.8541
1158.56 129.733
1158.57 167.429
1158.58 206.251
1158.60 256.815
1158.61 240.714
1158.62 206.408
1158.64 129.856
1158.67 75.2101
1158.69 46.7839
1158.71 31.3160
1158.74 22.5374
1158.76 16.7326
1158.78 13.0174
1158.83 8.42807
1158.88 5.89038
1158.93 4.34676
1159.02 2.64845
1159.11 1.78608
1159.21 1.28977
1159.30 0.978466
1159.40 0.770567
1159.58 0.518040
1159.77 0.377981
1159.96 0.292002
1160.15 0.235554
1160.53 0.168503
1160.90 0.132200
1161.65 0.0968996
1162.41 0.0819591
1163.16 0.0753487
1164.67 0.0729827
1167.68 0.0877037
1170.69 0.124764
1172.19 0.157296
1173.70 0.207288
1175.20 0.289264
1176.71 0.436781
1177.46 0.559415
1178.22 0.744074
1178.59 0.873802
1178.97 1.04084
1179.16 1.14319
1179.34 1.26160
1179.53 1.39961
1179.72 1.56180
1179.91 1.75527
1180.10 1.98595
1180.29 2.26554
1180.47 2.60887
1180.66 3.03935
1180.85 3.58268
1181.04 4.28568
1181.23 5.21709
1181.42 6.49450
1181.60 8.28881
1181.79 10.9308
1181.98 15.0353
1182.17 21.8674
1182.26 27.0881
1182.36 34.2992
1182.45 44.5493
1182.54 59.5489
1182.64 82.0103
1182.73 115.611
1182.87 184.929
1183.00 230.189
1183.14 183.661
1183.27 114.611
1183.43 65.6599
1183.58 40.5795
1183.74 27.0556
1183.89 19.1646
1184.05 14.2262
1184.21 10.9537
1184.52 7.04647
1184.83 4.90328
1185.14 3.60695
1185.77 2.18906
1186.39 1.47439
1187.01 1.06675
1187.64 0.814780
1188.26 0.651311
1189.51 0.474092
1190.76 0.444796
1191.38 0.524299
1191.69 0.625358
1192.00 0.822923
1192.32 1.25439
1192.47 1.68046
1192.63 2.43979
1192.78 3.98659
1192.86 5.44102
1192.94 7.91961
1193.02 12.6512
1193.06 16.8087
1193.10 23.3985
1193.12 28.3703
1193.14 34.6823
1193.15 38.8611
1193.16 43.8151
1193.17 49.7380
1193.17 56.1052
1193.18 64.6349
1193.19 75.1170
1193.20 88.1270
1193.21 102.623
1193.22 122.728
1193.23 145.394
1193.24 176.937
1193.25 212.083
1193.26 274.595
1193.28 339.637
1193.30 417.474
1193.31 389.244
1193.33 330.773
1193.35 209.335
1193.37 128.191
1193.40 83.0393
1193.42 57.1527
1193.45 41.3941
1193.47 31.2324
1193.50 24.3498
1193.55 15.9496
1193.60 11.2420
1193.65 8.35269
1193.75 5.14677
1193.85 3.50528
1193.95 2.55491
1194.05 1.95585
1194.15 1.55393
1194.35 1.06437
1194.55 0.788166
1194.95 0.502219
1195.35 0.363026
1195.75 0.283641
1196.55 0.198891
1197.35 0.154951
1198.15 0.128136
1199.75 0.0968948
1202.95 0.0681448
1206.15 0.0567603
1209.34 0.0561217
1210.94 0.0612787
1212.54 0.0739113
1214.14 0.104334
1214.94 0.135825
1215.74 0.193948
1216.14 0.243244
1216.54 0.318698
1216.94 0.442487
1217.34 0.666459
1217.54 0.853502
1217.74 1.13651
1217.94 1.59423
1218.14 2.40636
1218.24 3.07172
1218.34 4.05986
1218.44 5.61800
1218.54 8.28296
1218.59 10.3874
1218.62 11.7524
1218.64 13.4032
1218.67 15.4247
1218.69 17.9351
1218.72 21.1032
1218.74 25.1756
1218.77 30.5232
1218.79 37.7220
1218.82 47.6980
1218.84 62.0004
1218.87 83.3232
1218.89 116.506
1218.92 170.220
1218.94 253.642
1218.97 408.526
1219.00 506.241
1219.02 474.811
1219.03 401.180
1219.06 252.193
1219.09 158.882
1219.11 106.574
1219.14 74.2872
1219.17 54.8352
1219.22 32.7647
1219.28 21.7802
1219.33 15.3902
1219.39 11.4355
1219.50 7.04228
1219.61 4.75149
1219.72 3.43113
1219.83 2.59492
1219.93 2.03238
1220.15 1.34405
1220.37 0.957233
1220.59 0.718514
1220.81 0.561521
1221.25 0.372701
1221.68 0.268561
1222.12 0.204966
1222.56 0.163305
1223.43 0.113815
1224.31 0.0867264
1226.06 0.0597785
1227.81 0.0475955
1229.56 0.0415182
1233.05 0.0377557
1236.55 0.0412792
1240.05 0.0564467
1241.80 0.0769617
1242.68 0.0967046
1243.55 0.131759
1244.43 0.204889
1244.86 0.276423
1245.30 0.405140
1245.52 0.512760
1245.74 0.675852
1245.96 0.940598
1246.17 1.41058
1246.28 1.80175
1246.39 2.38156
1246.50 3.30312
1246.61 4.89794
1246.72 8.06159
1246.78 10.9385
1246.80 12.9466
1246.83 15.5580
1246.86 19.1867
1246.89 24.0126
1246.90 27.2502
1246.91 30.8655
1246.93 35.6010
1246.94 41.0100
1246.95 48.2750
1246.97 57.5461
1246.98 69.5757
1246.99 84.1676
1247.01 105.053
1247.02 131.160
1247.04 169.331
1247.05 216.984
1247.07 347.361
1247.10 434.454
1247.11 408.910
1247.13 347.519
1247.15 217.104
1247.17 143.500
1247.20 100.072
1247.22 72.6359
1247.24 54.6707
1247.28 33.8027
1247.32 22.8007
1247.36 16.3661
1247.41 12.3005
1247.49 7.66505
1247.57 5.20981
1247.66 3.78715
1247.74 2.88072
1247.83 2.26834
1248.00 1.51526
1248.16 1.09288
1248.33 0.830143
1248.50 0.657764
1248.84 0.451491
1249.17 0.338754
1249.85 0.228886
1250.52 0.182707
1251.20 0.163889
1252.54 0.168713
1253.89 0.225441
1254.56 0.288921
1255.24 0.405790
1255.57 0.503956
1255.91 0.652839
1256.25 0.894564
1256.58 1.32496
1256.75 1.68271
1256.92 2.21596
1257.09 3.07390
1257.26 4.56345
1257.34 5.78068
1257.39 6.57339
1257.43 7.54323
1257.47 8.74689
1257.51 10.2655
1257.55 12.2184
1257.60 14.7865
1257.64 18.2545
1257.68 23.0898
1257.72 30.0993
1257.76 40.7631
1257.81 57.9961
1257.83 70.7937
1257.85 88.0177
1257.87 111.725
1257.89 145.060
1257.91 192.631
1257.93 260.170
1257.97 418.954
1258.00 521.572
1258.04 415.368
1258.07 261.146
1258.10 170.737
1258.13 117.577
1258.16 83.6472
1258.19 62.5980
1258.25 38.1331
1258.31 25.4900
1258.36 18.1921
1258.42 13.6233
1258.54 8.46071
1258.66 5.77403
1258.78 4.20408
1258.90 3.20953
1259.01 2.54570
1259.25 1.73065
1259.48 1.27709
1259.95 0.821194
1260.43 0.620020
1260.90 0.528221
1261.84 0.509262
1262.78 0.676096
1263.25 0.878779
1263.72 1.25996
1263.96 1.58176
1264.19 2.06596
1264.43 2.84767
1264.55 3.42956
1264.66 4.21215
1264.78 5.31985
1264.84 6.04994
1264.90 6.94462
1264.96 8.05698
1265.02 9.46324
1265.08 11.2759
1265.14 13.6194
1265.19 16.8404
1265.25 21.3466
1265.31 27.9076
1265.37 37.9458
1265.43 54.2928
1265.46 66.7593
1265.49 83.0770
1265.52 106.495
1265.55 138.589
1265.58 184.524
1265.61 249.887
1265.65 398.454
1265.70 496.413
1265.75 397.383
1265.79 249.039
1265.83 178.380
1265.86 130.586
1265.92 76.6733
1265.99 49.1808
1266.05 34.1377
1266.11 24.8788
1266.18 18.9812
1266.30 12.0351
1266.43 8.30928
1266.56 6.08836
1266.81 3.69745
1267.06 2.50007
1267.32 1.82318
1267.57 1.40255
1267.82 1.12711
1268.33 0.803353
1268.84 0.638076
1269.85 0.526657
1270.87 0.612394
1271.37 0.759527
1271.88 1.05449
1272.14 1.30957
1272.39 1.69992
1272.64 2.33421
1272.90 3.45241
1273.02 4.36687
1273.09 4.97762
1273.15 5.71699
1273.21 6.65478
1273.28 7.82727
1273.34 9.34379
1273.40 11.3519
1273.44 12.6304
1273.47 14.1379
1273.50 15.9316
1273.53 18.0140
1273.56 20.6195
1273.59 23.8270
1273.63 27.8332
1273.66 32.7405
1273.69 39.2645
1273.72 47.8779
1273.75 59.5268
1273.78 75.1181
1273.82 98.0179
1273.85 130.481
1273.88 180.683
1273.91 253.310
1273.96 403.433
1274.00 500.343
1274.05 398.762
1274.09 249.631
1274.13 158.834
1274.17 106.828
1274.21 75.5055
1274.26 55.7288
1274.34 33.5720
1274.42 22.2861
1274.50 15.7685
1274.58 11.7711
1274.75 7.27357
1274.91 4.93029
1275.08 3.57299
1275.24 2.71263
1275.41 2.13329
1275.73 1.42408
1276.06 1.02419
1276.39 0.776495
1276.72 0.612755
1277.38 0.414979
1278.04 0.304852
1279.35 0.192351
1280.66 0.139140
1281.98 0.110624
1284.61 0.0869839
1287.24 0.0905665
1288.55 0.105125
1289.87 0.137120
1291.18 0.210784
1291.84 0.285605
1292.50 0.422466
1292.83 0.537753
1293.15 0.713206
1293.48 0.998988
1293.81 1.50881
1293.98 1.93275
1294.14 2.56401
1294.30 3.56981
1294.47 5.31610
1294.55 6.73638
1294.59 7.65782
1294.63 8.78181
1294.67 10.1719
1294.72 11.9185
1294.76 14.1533
1294.80 17.0743
1294.84 20.9891
1294.88 26.3953
1294.92 34.1353
1294.96 45.7153
1295.00 64.0000
1295.02 77.6516
1295.04 94.8049
1295.06 119.020
1295.08 150.500
1295.11 196.080
1295.13 255.397
1295.16 410.628
1295.20 509.109
1295.22 477.479
1295.24 403.731
1295.28 253.401
1295.31 154.998
1295.35 101.412
1295.39 70.2932
1295.42 51.1587
1295.46 38.7256
1295.50 30.2552
1295.57 19.8540
1295.65 13.9893
1295.72 10.3750
1295.87 6.34971
1296.02 4.28223
1296.16 3.08349
1296.31 2.32763
1296.46 1.82079
1296.76 1.20323
1297.05 0.858046
1297.35 0.645148
1297.65 0.504686
1298.24 0.336587
1298.83 0.244070
1299.42 0.187733
1300.02 0.151145
1301.20 0.108446
1302.39 0.0862994
1304.76 0.0693988
1307.13 0.0751564
1308.31 0.0891772
1309.50 0.118864
1310.09 0.145227
1310.68 0.186284
1311.27 0.254674
1311.87 0.379522
1312.16 0.484923
1312.46 0.644835
1312.75 0.905217
1313.05 1.37147
1313.20 1.76005
1313.35 2.33918
1313.50 3.26371
1313.64 4.87341
1313.79 8.05390
1313.83 9.33843
1313.87 10.9549
1313.90 13.0273
1313.94 15.7422
1313.98 19.3911
1314.00 21.7715
1314.01 24.4479
1314.03 27.8346
1314.05 31.7205
1314.07 36.7500
1314.09 42.6665
1314.11 50.5402
1314.12 60.0911
1314.14 73.2399
1314.16 89.7834
1314.18 113.450
1314.20 144.340
1314.22 189.780
1314.24 249.213
1314.27 399.234
1314.30 493.445
1314.32 461.557
1314.33 392.442
1314.37 247.654
1314.39 175.223
1314.41 128.671
1314.43 97.1424
1314.45 75.3344
1314.50 48.0907
1314.54 33.3381
1314.59 24.2157
1314.63 18.4540
1314.72 11.6505
1314.81 8.00629
1314.90 5.83556
1315.08 3.50169
1315.25 2.32886
1315.43 1.66459
1315.61 1.24836
1315.79 0.973286
1316.14 0.640763
1316.50 0.455708
1316.85 0.342228
1317.21 0.267637
1317.92 0.178640
1318.63 0.129669
1319.34 0.0997957
1320.05 0.0802135
1321.47 0.0568920
1322.89 0.0440513
1325.73 0.0311342
1328.57 0.0252444
1331.41 0.0223511
1337.09 0.0210652
1342.77 0.0246568
1345.62 0.0294212
1348.46 0.0385571
1351.30 0.0582615
1352.72 0.0778020
1354.14 0.113193
1354.85 0.142936
1355.56 0.188194
1356.27 0.262234
1356.98 0.396127
1357.33 0.508102
1357.69 0.677938
1358.04 0.953746
1358.40 1.44641
1358.58 1.85431
1358.75 2.46105
1358.93 3.43314
1359.02 4.15205
1359.11 5.11081
1359.20 6.46270
1359.24 7.35994
1359.29 8.43031
1359.33 9.78482
1359.38 11.4493
1359.42 13.5739
1359.46 16.3430
1359.51 20.1393
1359.55 25.2639
1359.60 32.7693
1359.64 43.7426
1359.69 61.4648
1359.73 90.6145
1359.75 112.761
1359.77 142.843
1359.80 184.066
1359.82 240.101
1359.86 384.257
1359.90 480.309
1359.94 384.062
1359.98 239.942
1360.02 161.726
1360.05 112.692
1360.08 81.7068
1360.11 61.9348
1360.18 38.1599
1360.24 25.8106
1360.31 18.4700
1360.38 13.9029
1360.51 8.64720
1360.64 5.88847
1360.77 4.26672
1360.90 3.23440
1361.03 2.54186
1361.29 1.68694
1361.55 1.20432
1361.82 0.905804
1362.08 0.709289
1362.60 0.473783
1363.12 0.345320
1363.65 0.268781
1364.17 0.221409
1365.22 0.176732
1366.26 0.187654
1366.79 0.234440
1367.05 0.285854
1367.31 0.381161
1367.57 0.584049
1367.70 0.781923
1367.84 1.13240
1367.97 1.84289
1368.03 2.51544
1368.10 3.64163
1368.16 5.82156
1368.20 7.74243
1368.23 10.6788
1368.26 15.8362
1368.29 25.2356
1368.31 33.7990
1368.33 46.0700
1368.33 54.5296
1368.34 65.1285
1368.35 78.4096
1368.36 95.8186
1368.37 123.184
1368.38 152.649
1368.40 191.472
1368.41 178.937
1368.42 152.568
1368.44 95.7549
1368.46 58.1893
1368.48 37.7827
1368.51 25.6365
1368.53 18.6413
1368.55 13.9379
1368.57 10.9123
1368.61 7.13296
1368.66 5.02567
1368.70 3.73700
1368.79 2.31254
1368.87 1.58640
1368.96 1.16776
1369.13 0.729903
1369.30 0.518846
1369.47 0.402531
1369.82 0.289213
1370.16 0.243647
1370.51 0.228795
1371.19 0.254342
1371.88 0.365964
1372.23 0.487778
1372.57 0.713265
1372.74 0.902932
1372.91 1.19042
1373.09 1.65528
1373.26 2.47812
1373.34 3.15007
1373.43 4.14451
1373.52 5.70481
1373.60 8.35400
1373.64 10.4307
1373.69 13.3856
1373.71 15.4043
1373.73 17.7844
1373.75 20.9125
1373.77 24.7213
1373.80 29.9161
1373.82 36.5153
1373.84 45.9690
1373.86 58.6721
1373.88 78.0735
1373.90 106.007
1373.92 149.007
1373.94 215.413
1373.97 344.727
1374.00 430.610
1374.01 404.996
1374.03 344.021
1374.06 214.858
1374.08 153.798
1374.09 112.551
1374.11 84.7285
1374.13 65.5557
1374.17 42.0898
1374.21 29.0749
1374.25 21.2071
1374.28 16.1206
1374.36 10.2478
1374.44 7.04642
1374.51 5.14069
1374.66 3.09422
1374.81 2.06501
1374.97 1.48269
1375.12 1.11934
1375.27 0.877530
1375.57 0.585060
1375.87 0.422685
1376.18 0.322696
1376.48 0.257169
1377.08 0.178873
1377.69 0.135998
1378.90 0.0935462
1380.11 0.0750222
1381.32 0.0668161
1383.74 0.0664633
1386.16 0.0854413
1387.37 0.107753
1388.58 0.149456
1389.79 0.238418
1390.40 0.326007
1391.00 0.483777
1391.31 0.615532
1391.61 0.814971
1391.91 1.13816
1392.21 1.71147
1392.37 2.18641
1392.52 2.89063
1392.67 4.00740
1392.74 4.83517
1392.82 5.93380
1392.90 7.48046
1392.93 8.49145
1392.97 9.72201
1393.01 11.2401
1393.05 13.1417
1393.09 15.5663
1393.12 18.6266
1393.16 22.7990
1393.20 28.5161
1393.24 36.6187
1393.27 48.1945
1393.31 66.4988
1393.35 96.4595
1393.39 148.404
1393.42 237.663
1393.46 378.927
1393.50 472.768
1393.54 379.309
1393.58 237.959
1393.61 152.236
1393.65 102.931
1393.68 73.0129
1393.71 54.0231
1393.78 32.4289
1393.85 21.5882
1393.92 15.2903
1393.99 11.4289
1394.12 7.07315
1394.26 4.79704
1394.40 3.47973
1394.53 2.63987
1394.67 2.07976
1394.94 1.39368
1395.22 1.01130
1395.49 0.777132
1395.76 0.624642
1396.31 0.448490
1396.86 0.361341
1397.95 0.311704
1399.04 0.381386
1399.59 0.484128
1400.13 0.685447
1400.41 0.859040
1400.68 1.12370
1400.95 1.55441
1401.23 2.32093
1401.36 2.95210
1401.50 3.88230
1401.57 4.53603
1401.64 5.35886
1401.70 6.43037
1401.77 7.86110
1401.84 9.86425
1401.88 11.1451
1401.91 12.6916
1401.94 14.5820
1401.98 16.9246
1402.01 19.8735
1402.05 23.6530
1402.08 28.7664
1402.11 35.4559
1402.15 44.6869
1402.18 57.8506
1402.22 77.3441
1402.25 107.423
1402.28 155.616
1402.32 233.583
1402.36 373.571
1402.40 465.749
1402.44 371.472
1402.48 231.938
1402.52 142.753
1402.56 92.8325
1402.61 64.0561
1402.65 46.8066
1402.69 35.3136
1402.73 27.5193
1402.81 18.0795
1402.89 12.7013
1402.97 9.43360
1403.13 5.77259
1403.30 3.89511
1403.46 2.80748
1403.62 2.12197
1403.79 1.66237
1404.11 1.10362
1404.44 0.789723
1404.76 0.595904
1405.09 0.468142
1405.74 0.314414
1406.39 0.229177
1407.05 0.177018
1407.70 0.142867
1409.00 0.102465
1410.30 0.0809845
1412.91 0.0629884
1415.52 0.0642151
1416.82 0.0731978
1418.12 0.0932654
1419.43 0.139609
1420.08 0.186763
1420.73 0.272984
1421.06 0.345707
1421.38 0.456556
1421.71 0.637541
1422.04 0.962980
1422.20 1.23317
1422.36 1.63970
1422.52 2.29224
1422.69 3.43744
1422.85 5.72885
1422.93 7.86407
1422.97 9.40842
1423.01 11.3964
1423.05 14.1608
1423.08 15.9795
1423.10 18.0536
1423.12 20.6911
1423.14 23.7690
1423.16 27.5724
1423.18 32.3414
1423.20 38.7667
1423.22 46.7680
1423.24 57.3870
1423.26 71.8091
1423.28 93.0832
1423.30 122.239
1423.32 164.584
1423.34 225.791
1423.37 359.599
1423.40 447.778
1423.43 358.921
1423.46 225.253
1423.50 127.341
1423.54 77.9250
1423.57 51.6048
1423.61 36.7011
1423.65 27.1183
1423.68 20.8060
1423.76 13.3873
1423.83 9.27179
1423.90 6.82111
1424.05 4.13316
1424.20 2.76510
1424.34 1.98562
1424.49 1.49423
1424.64 1.16876
1424.93 0.772777
1425.22 0.552743
1425.52 0.417623
1425.81 0.328801
1426.40 0.223013
1426.98 0.165226
1428.15 0.108059
1429.33 0.0828578
1430.50 0.0709909
1432.85 0.0664311
1435.19 0.0815413
1436.37 0.100848
1437.54 0.137511
1438.71 0.216146
1439.30 0.293905
1439.88 0.433978
1440.18 0.551324
1440.47 0.728495
1440.76 1.01566
1441.06 1.52747
1441.20 1.95071
1441.35 2.57844
1441.50 3.58320
1441.64 5.30993
1441.72 6.71008
1441.79 8.71509
1441.83 10.0930
1441.86 11.7719
1441.90 13.9716
1441.94 16.7558
1441.97 20.5704
1442.01 25.8257
1442.05 33.3254
1442.08 44.1257
1442.12 61.4181
1442.16 89.1895
1442.18 111.239
1442.19 139.404
1442.21 177.349
1442.23 228.027
1442.27 367.046
1442.30 456.492
1442.32 428.970
1442.34 363.154
1442.37 228.200
1442.41 135.936
1442.45 87.2755
1442.48 59.1473
1442.52 42.7086
1442.56 31.9186
1442.60 24.8553
1442.67 16.2428
1442.75 11.3696
1442.82 8.42810
1442.97 5.14719
1443.12 3.46495
1443.27 2.50213
1443.42 1.89698
1443.57 1.49243
1443.86 1.00180
1444.16 0.729828
1444.46 0.564102
1444.76 0.456735
1445.36 0.333890
1445.95 0.274498
1447.15 0.246226
1448.34 0.308504
1448.94 0.393199
1449.53 0.556618
1449.83 0.696724
1450.13 0.909997
1450.43 1.25844
1450.73 1.87791
1450.88 2.39108
1451.03 3.15108
1451.17 4.35369
1451.25 5.24307
1451.32 6.42059
1451.40 8.07372
1451.44 9.13566
1451.47 10.4218
1451.51 12.0468
1451.55 14.0219
1451.58 16.5216
1451.62 19.7461
1451.66 24.1320
1451.70 29.9385
1451.73 38.0510
1451.77 49.8072
1451.81 68.1915
1451.85 96.8159
1451.88 144.573
1451.92 225.736
1451.96 362.901
1452.00 450.779
1452.04 358.192
1452.08 224.837
1452.12 144.032
1452.15 97.4777
1452.19 69.2071
1452.23 51.2468
1452.30 31.0031
1452.37 20.6329
1452.44 14.6149
1452.52 10.9227
1452.66 6.75927
1452.80 4.58479
1452.95 3.32565
1453.09 2.52301
1453.24 1.98726
1453.53 1.33228
1453.82 0.964763
1454.10 0.739002
1454.39 0.591701
1454.97 0.419065
1455.55 0.330534
1456.70 0.268496
1457.86 0.306813
1458.44 0.377989
1459.01 0.522604
1459.30 0.648687
1459.59 0.842885
1459.88 1.16103
1460.17 1.73136
1460.32 2.20389
1460.46 2.90469
1460.60 4.02533
1460.75 5.94624
1460.82 7.49956
1460.86 8.50067
1460.89 9.71665
1460.93 11.2131
1460.97 13.0822
1461.00 15.4572
1461.04 18.5355
1461.07 22.6185
1461.11 28.1842
1461.15 36.0212
1461.18 47.4924
1461.22 65.0751
1461.25 93.4944
1461.29 141.955
1461.31 178.521
1461.33 226.549
1461.36 364.170
1461.40 451.207
1461.42 423.009
1461.44 357.581
1461.48 224.408
1461.50 161.585
1461.53 118.852
1461.58 69.7321
1461.63 44.9774
1461.67 31.3757
1461.72 22.9127
1461.77 17.5213
1461.87 11.1240
1461.97 7.67609
1462.07 5.61370
1462.27 3.37896
1462.47 2.25557
1462.67 1.61835
1462.86 1.22058
1463.06 0.955705
1463.46 0.635224
1463.85 0.456825
1464.25 0.347039
1464.65 0.274642
1465.44 0.187972
1466.23 0.140260
1467.82 0.0933541
1469.40 0.0759906
1470.99 0.0817779
1471.78 0.103956
1472.18 0.128646
1472.57 0.175273
1472.97 0.276281
1473.17 0.376092
1473.37 0.555447
1473.56 0.926890
1473.66 1.28303
1473.76 1.90375
1473.86 3.13190
1473.91 4.26805
1473.96 6.10813
1474.01 9.53623
1474.03 12.4258
1474.06 16.5972
1474.08 23.5228
1474.11 35.4822
1474.12 45.2832
1474.13 57.8890
1474.15 75.4411
1474.15 86.6384
1474.16 101.153
1474.17 128.834
1474.18 162.285
1474.20 201.829
1474.21 189.038
1474.22 162.022
1474.24 100.708
1474.26 65.8089
1474.28 44.3289
1474.30 31.3479
1474.32 23.1395
1474.36 13.9363
1474.39 9.24784
1474.43 6.56611
1474.47 4.89758
1474.55 3.02289
1474.62 2.05213
1474.70 1.48634
1474.77 1.12827
1474.85 0.890147
1475.00 0.595409
1475.15 0.430381
1475.30 0.327565
1475.46 0.259978
1475.76 0.178309
1476.06 0.133112
1476.67 0.0870362
1477.28 0.0650243
1477.88 0.0527749
1479.09 0.0402753
1481.52 0.0318552
1483.94 0.0318593
1486.37 0.0396051
1487.58 0.0491770
1488.79 0.0676951
1489.40 0.0837179
1490.01 0.108447
1490.61 0.149362
1491.22 0.224046
1491.52 0.287136
1491.83 0.383006
1492.13 0.539505
1492.43 0.820892
1492.58 1.05543
1492.73 1.40598
1492.89 1.97254
1493.04 2.96022
1493.11 3.76567
1493.19 4.95080
1493.27 6.79613
1493.34 9.84193
1493.38 12.2251
1493.42 15.5783
1493.44 17.7890
1493.45 20.4969
1493.47 23.8593
1493.49 28.0989
1493.51 33.5383
1493.53 40.6558
1493.55 50.1781
1493.57 63.2362
1493.59 81.6258
1493.61 108.213
1493.63 147.407
1493.64 201.360
1493.67 324.493
1493.70 402.431
1493.72 376.035
1493.73 319.164
1493.76 200.728
1493.78 126.548
1493.81 84.9640
1493.84 59.9788
1493.86 44.2274
1493.91 26.6031
1493.97 17.6357
1494.02 12.4326
1494.07 9.26958
1494.18 5.71064
1494.28 3.85177
1494.38 2.78002
1494.49 2.10084
1494.59 1.64372
1494.80 1.08404
1495.01 0.770562
1495.22 0.575926
1495.43 0.447959
1495.84 0.294022
1496.26 0.209131
1496.68 0.157282
1497.10 0.123303
1497.93 0.0828949
1498.76 0.0607319
1500.43 0.0384445
1502.10 0.0280200
1503.77 0.0223679
1507.11 0.0170636
1510.45 0.0156869
1513.78 0.0183935
1515.45 0.0238665
1516.29 0.0296646
1517.12 0.0404721
1517.96 0.0638661
1518.37 0.0872021
1518.79 0.129673
1519.21 0.219605
1519.42 0.308297
1519.62 0.466602
1519.83 0.796261
1519.94 1.11151
1520.04 1.66163
1520.15 2.76790
1520.20 3.77628
1520.25 5.45098
1520.30 8.52669
1520.33 11.1231
1520.35 15.0730
1520.38 21.4570
1520.39 26.1988
1520.41 32.5828
1520.42 41.3745
1520.43 53.7477
1520.44 62.4763
1520.44 71.4331
1520.45 83.9238
1520.46 97.9861
1520.47 124.811
1520.48 157.242
1520.50 195.679
1520.51 183.343
1520.52 157.175
1520.54 97.7021
1520.56 71.3948
1520.57 52.6065
1520.60 31.4530
1520.63 20.2378
1520.65 14.1635
1520.68 10.3164
1520.71 7.90434
1520.76 5.05073
1520.82 3.47679
1520.87 2.53707
1520.98 1.52708
1521.09 1.01635
1521.20 0.727673
1521.42 0.426211
1521.64 0.281070
1521.86 0.200269
1522.29 0.118164
1522.73 0.0793890
1523.17 0.0580523
1524.05 0.0365783
1524.92 0.0265147
1525.80 0.0209983
1527.55 0.0154647
1531.05 0.0115140
1534.56 0.0102557
1541.57 0.0100023
1548.57 0.0113713
1555.58 0.0150861
1559.09 0.0188994
1562.59 0.0258561
1566.09 0.0406448
1567.84 0.0553110
1569.60 0.0819878
1570.47 0.104445
1571.35 0.138745
1572.22 0.195004
1573.10 0.297012
1573.54 0.382483
1573.98 0.512301
1574.41 0.723452
1574.85 1.10133
1575.07 1.41366
1575.29 1.88160
1575.51 2.62842
1575.62 3.18397
1575.73 3.92828
1575.84 4.97861
1575.89 5.66879
1575.95 6.49553
1576.00 7.53735
1576.06 8.84968
1576.11 10.5340
1576.17 12.6973
1576.22 15.6546
1576.28 19.7580
1576.33 25.6685
1576.39 34.3808
1576.44 48.4713
1576.49 71.9376
1576.52 90.7057
1576.55 115.635
1576.58 150.135
1576.60 197.506
1576.65 316.530
1576.70 393.872
1576.75 314.834
1576.80 198.200
1576.83 136.483
1576.87 97.5676
1576.91 72.1270
1576.94 55.0291
1577.01 34.6439
1577.09 23.6259
1577.16 17.0781
1577.23 12.8955
1577.37 8.07677
1577.52 5.50873
1577.66 4.00209
1577.81 3.03817
1577.95 2.38488
1578.24 1.58012
1578.53 1.12552
1578.82 0.842299
1579.11 0.655225
1579.68 0.430088
1580.26 0.305292
1580.84 0.229071
1581.41 0.179275
1582.57 0.120329
1583.72 0.0885017
1584.87 0.0697613
1586.03 0.0583177
1588.33 0.0481661
1590.64 0.0532652
1591.80 0.0683388
1592.37 0.0847302
1592.95 0.115385
1593.53 0.181575
1593.81 0.247476
1594.10 0.366249
1594.39 0.616139
1594.54 0.858323
1594.68 1.28681
1594.75 1.63685
1594.82 2.15524
1594.90 2.96956
1594.97 4.35477
1595.04 6.99404
1595.08 9.30960
1595.11 12.9753
1595.15 19.2441
1595.17 24.1645
1595.18 31.1333
1595.19 35.7359
1595.20 41.3628
1595.21 48.3095
1595.22 56.9674
1595.23 67.8491
1595.24 81.6057
1595.25 99.0056
1595.26 121.073
1595.27 157.163
1595.28 195.134
1595.30 241.947
1595.31 225.898
1595.32 191.813
1595.35 120.899
1595.37 69.2703
1595.40 43.5392
1595.42 29.3695
1595.45 20.9752
1595.47 15.6638
1595.50 12.1151
1595.55 7.84232
1595.60 5.47884
1595.65 4.04075
1595.75 2.45799
1595.85 1.65394
1595.95 1.19100
1596.05 0.900502
1596.15 0.706407
1596.35 0.471358
1596.55 0.339925
1596.75 0.259113
1596.95 0.205934
1597.35 0.142471
1597.75 0.107765
1598.55 0.0733085
1599.35 0.0579424
1600.15 0.0505480
1601.75 0.0470398
1603.35 0.0547270
1604.15 0.0651254
1604.95 0.0851881
1605.75 0.128852
1606.15 0.172277
1606.55 0.251003
1606.75 0.317296
1606.95 0.417475
1607.15 0.580187
1607.35 0.870784
1607.45 1.11049
1607.55 1.46892
1607.65 2.03944
1607.75 3.02869
1607.85 4.97092
1607.90 6.73060
1607.95 9.61349
1608.00 14.7998
1608.03 19.0849
1608.04 22.0673
1608.05 25.4644
1608.07 30.0715
1608.08 35.4703
1608.09 43.0234
1608.10 52.1714
1608.12 65.4151
1608.13 81.9758
1608.14 106.515
1608.15 137.494
1608.17 176.570
1608.18 221.567
1608.20 274.986
1608.21 258.270
1608.22 218.229
1608.25 137.520
1608.27 94.4018
1608.28 66.7465
1608.30 48.9286
1608.32 37.6372
1608.35 23.7067
1608.39 16.1789
1608.42 11.7047
1608.46 8.84591
1608.53 5.55138
1608.60 3.80399
1608.67 2.76971
1608.74 2.10815
1608.81 1.65986
1608.95 1.10915
1609.09 0.796809
1609.23 0.602879
1609.37 0.474342
1609.65 0.319652
1609.93 0.234419
1610.49 0.148647
1611.05 0.108987
1611.61 0.0880642
1612.73 0.0693123
1613.85 0.0637948
1614.97 0.0647367
1617.21 0.0808200
1618.33 0.0977697
1619.46 0.124970
1620.58 0.170610
1621.70 0.254123
1622.26 0.324468
1622.82 0.431273
1623.38 0.605492
1623.94 0.916988
1624.22 1.17563
1624.50 1.56216
1624.64 1.83214
1624.78 2.17939
1624.92 2.63641
1625.06 3.25465
1625.20 4.11956
1625.27 4.68748
1625.34 5.38134
1625.41 6.24103
1625.48 7.32352
1625.55 8.71221
1625.62 10.5330
1625.69 12.9829
1625.76 16.3827
1625.83 21.2815
1625.90 28.6737
1625.97 40.4854
1626.04 60.7289
1626.07 76.4622
1626.11 98.2700
1626.14 128.869
1626.18 171.530
1626.24 275.570
1626.30 344.175
1626.36 275.031
1626.42 172.526
1626.47 115.094
1626.52 80.0900
1626.57 57.6597
1626.62 43.3551
1626.72 26.6452
1626.82 17.9629
1626.92 12.8455
1627.01 9.62566
1627.21 5.98250
1627.41 4.06508
1627.61 2.94565
1627.80 2.23314
1628.00 1.75209
1628.40 1.16234
1628.79 0.829637
1629.19 0.623927
1629.58 0.488384
1630.37 0.326191
1631.16 0.237663
1631.95 0.185042
1632.74 0.152527
1634.32 0.123004
1635.11 0.122935
1635.89 0.136796
1636.68 0.179863
1637.08 0.226991
1637.47 0.315049
1637.67 0.390204
1637.87 0.504400
1638.07 0.690459
1638.26 1.02304
1638.36 1.29884
1638.46 1.71161
1638.56 2.36906
1638.66 3.49419
1638.76 5.71694
1638.81 7.70203
1638.85 10.9286
1638.88 13.4097
1638.90 16.8263
1638.93 21.6991
1638.94 24.8021
1638.95 28.5960
1638.97 33.7320
1638.98 39.7369
1638.99 47.3845
1639.00 57.2702
1639.02 71.4910
1639.03 89.1362
1639.04 112.742
1639.05 145.864
1639.06 187.748
1639.08 233.974
1639.10 291.367
1639.11 274.526
1639.12 233.963
1639.15 145.553
1639.17 98.1372
1639.19 67.8103
1639.21 48.8521
1639.23 36.5541
1639.27 22.4153
1639.31 15.0395
1639.35 10.7566
1639.39 8.06438
1639.47 5.01014
1639.55 3.41419
1639.63 2.47862
1639.71 1.88417
1639.79 1.48330
1639.95 0.993153
1640.11 0.716331
1640.27 0.544843
1640.43 0.431278
1640.75 0.294870
1641.07 0.219091
1641.71 0.142118
1642.35 0.105572
1642.99 0.0854370
1644.27 0.0654914
1646.83 0.0538573
1649.38 0.0570661
1651.94 0.0746664
1653.22 0.0941233
1654.50 0.130202
1655.78 0.207158
1656.42 0.283162
1657.06 0.420098
1657.38 0.534534
1657.70 0.707793
1658.02 0.988508
1658.34 1.48618
1658.50 1.89632
1658.66 2.50774
1658.74 2.93272
1658.82 3.47705
1658.90 4.18983
1658.98 5.14813
1659.06 6.47841
1659.14 8.39968
1659.18 9.69674
1659.22 11.3173
1659.26 13.3770
1659.30 16.0476
1659.34 19.5917
1659.38 24.4254
1659.42 31.2368
1659.46 41.2164
1659.50 56.5320
1659.54 81.3272
1659.58 123.695
1659.62 195.435
1659.66 314.551
1659.70 392.648
1659.74 313.557
1659.78 197.021
1659.81 144.587
1659.84 108.028
1659.89 65.3643
1659.94 42.9913
1659.99 30.1768
1660.04 22.1351
1660.09 16.9753
1660.19 10.8622
1660.30 7.50856
1660.40 5.51311
1660.60 3.32914
1660.81 2.23201
1661.01 1.60507
1661.22 1.21392
1661.42 0.953852
1661.83 0.640986
1662.24 0.467863
1662.65 0.362892
1663.06 0.295330
1663.88 0.218470
1664.70 0.181941
1666.34 0.167009
1667.98 0.212242
1668.80 0.271490
1669.62 0.385160
1670.03 0.482238
1670.44 0.630524
1670.85 0.872179
1671.26 1.30274
1671.46 1.65827
1671.67 2.18921
1671.77 2.56080
1671.87 3.03267
1671.98 3.65752
1672.08 4.49073
1672.18 5.66120
1672.28 7.33932
1672.34 8.49792
1672.39 9.92194
1672.44 11.7341
1672.49 14.0872
1672.54 17.2869
1672.59 21.5915
1672.64 27.6801
1672.69 36.6455
1672.75 50.4982
1672.80 73.1393
1672.85 112.353
1672.90 182.195
1672.95 290.849
1673.00 363.607
1673.05 291.973
1673.10 183.075
1673.16 103.228
1673.22 63.5274
1673.28 41.9776
1673.34 29.7082
1673.41 21.9401
1673.47 16.8981
1673.59 10.8423
1673.71 7.53375
1673.83 5.53748
1674.07 3.35807
1674.31 2.25988
1674.55 1.63150
1674.80 1.23950
1675.04 0.980170
1675.52 0.668681
1676.01 0.500015
1676.49 0.403040
1676.97 0.348309
1677.94 0.325242
1678.42 0.360834
1678.91 0.453279
1679.39 0.675772
1679.63 0.902679
1679.87 1.31169
1680.00 1.65213
1680.12 2.16245
1680.24 2.97582
1680.36 4.38645
1680.48 7.15289
1680.54 9.68050
1680.57 11.4470
1680.60 13.7435
1680.63 16.9198
1680.66 21.1538
1680.69 27.1595
1680.71 31.1414
1680.72 36.0352
1680.74 42.1272
1680.75 49.8176
1680.77 59.6724
1680.78 72.5001
1680.80 89.4572
1680.81 112.170
1680.83 142.797
1680.84 183.732
1680.87 295.968
1680.90 367.142
1680.92 344.579
1680.93 291.287
1680.96 183.186
1680.98 133.333
1681.00 98.9550
1681.04 58.7986
1681.07 38.2316
1681.11 26.6357
1681.15 19.5476
1681.19 14.9291
1681.26 9.55569
1681.34 6.60493
1681.41 4.83973
1681.57 2.93533
1681.72 1.97311
1681.87 1.42682
1682.02 1.08314
1682.17 0.855561
1682.47 0.579087
1682.78 0.424168
1683.38 0.264959
1683.99 0.188277
1684.60 0.145139
1685.81 0.100397
1687.02 0.0787067
1688.23 0.0668432
1690.65 0.0568916
1693.08 0.0585699
1694.29 0.0648244
1695.50 0.0783152
1696.71 0.108919
1697.32 0.139811
1697.92 0.196082
1698.23 0.243471
1698.53 0.315663
1698.83 0.433534
1699.14 0.645644
1699.29 0.822648
1699.44 1.08755
1699.59 1.51652
1699.74 2.26653
1699.82 2.88000
1699.89 3.78533
1699.97 5.20065
1700.04 7.54996
1700.08 9.39842
1700.12 12.0130
1700.16 15.8747
1700.18 18.5312
1700.20 21.6998
1700.21 25.9876
1700.23 31.6345
1700.25 39.2496
1700.27 49.7964
1700.29 64.8369
1700.31 86.9306
1700.33 120.152
1700.35 166.890
1700.37 267.274
1700.40 334.831
1700.41 314.065
1700.43 268.273
1700.45 167.668
1700.48 114.451
1700.50 80.5524
1700.52 58.8435
1700.54 45.0557
1700.58 27.9529
1700.62 19.0490
1700.66 13.6685
1700.70 10.3339
1700.79 6.45711
1700.87 4.41303
1700.95 3.20786
1701.04 2.43912
1701.12 1.91927
1701.28 1.28200
1701.45 0.921314
1701.62 0.697692
1701.78 0.549624
1702.11 0.372058
1702.45 0.273856
1703.11 0.175091
1703.77 0.129442
1704.44 0.105227
1705.77 0.0832709
1708.42 0.0765524
1711.08 0.0917292
1713.73 0.133615
1715.06 0.175720
1716.39 0.250394
1717.72 0.402047
1718.38 0.545159
1719.04 0.791649
1719.37 0.989432
1719.71 1.27851
1719.87 1.47649
1720.04 1.72754
1720.20 2.05315
1720.37 2.48724
1720.54 3.08611
1720.62 3.47569
1720.70 3.94903
1720.79 4.53286
1720.87 5.26570
1720.95 6.20477
1721.03 7.43811
1721.12 9.10693
1721.20 11.4493
1721.28 14.8920
1721.37 20.2593
1721.45 29.3025
1721.53 46.2094
1721.57 60.8298
1721.62 82.4680
1721.66 116.303
1721.70 169.879
1721.80 351.400
1721.85 292.795
1721.90 187.885
1721.95 119.126
1722.00 80.1674
1722.05 57.9217
1722.10 44.9560
1722.15 36.9113
1722.20 32.2049
1722.25 29.6377
1722.30 28.8414
1722.33 29.0347
1722.35 29.6385
1722.38 30.6797
1722.40 32.2057
1722.43 34.2888
1722.45 37.0335
1722.48 40.5861
1722.50 44.9454
1722.52 50.7479
1722.55 58.2272
1722.57 67.9375
1722.60 80.0822
1722.62 96.7274
1722.65 118.913
1722.67 148.507
1722.70 185.636
1722.75 291.921
1722.80 351.313
1722.85 273.424
1722.90 172.073
1722.97 98.2117
1723.03 61.0397
1723.09 41.1373
1723.15 29.6798
1723.21 22.3455
1723.27 17.4633
1723.40 11.6128
1723.52 8.31566
1723.64 6.29694
1723.89 4.01677
1724.14 2.81043
1724.38 2.09207
1724.88 1.30875
1725.37 0.908015
1725.86 0.675454
1726.85 0.429146
1727.84 0.310032
1728.83 0.246211
1730.80 0.195422
1732.77 0.208031
1733.76 0.243936
1734.75 0.319993
1735.73 0.490685
1736.23 0.661529
1736.72 0.968781
1736.97 1.22408
1737.22 1.60747
1737.46 2.22084
1737.59 2.67350
1737.71 3.28570
1737.83 4.15015
1737.96 5.40252
1738.02 6.26341
1738.08 7.32971
1738.14 8.72006
1738.20 10.5132
1738.26 12.9653
1738.33 16.3772
1738.39 21.3095
1738.45 28.6345
1738.51 40.5446
1738.57 60.6397
1738.60 76.5153
1738.63 98.5984
1738.66 129.700
1738.69 171.575
1738.75 274.762
1738.80 344.593
1738.85 276.525
1738.91 172.947
1738.96 110.197
1739.00 73.5024
1739.05 51.6242
1739.10 37.9235
1739.20 22.7033
1739.30 15.0726
1739.40 10.6748
1739.49 7.97255
1739.69 4.92303
1739.88 3.34685
1740.08 2.42940
1740.27 1.84939
1740.47 1.45978
1740.86 0.984642
1741.25 0.718622
1741.64 0.554709
1742.03 0.446849
1742.81 0.318771
1743.59 0.249650
1745.15 0.184492
1746.71 0.160944
1748.27 0.156830
1751.39 0.186719
1752.95 0.222980
1754.52 0.282203
1756.08 0.381384
1757.64 0.560079
1758.03 0.627070
1758.42 0.707596
1758.81 0.805779
1759.20 0.927139
1759.59 1.07997
1759.78 1.17127
1759.98 1.27502
1760.17 1.39362
1760.37 1.53000
1760.76 1.87207
1761.15 2.34710
1761.54 3.02947
1761.93 4.06135
1762.32 5.72479
1762.51 6.96432
1762.71 8.64670
1762.90 11.0029
1763.10 14.4279
1763.29 19.6301
1763.49 27.9360
1763.68 41.8676
1763.88 65.7093
1764.09 105.201
1764.30 131.440
1764.51 105.151
1764.72 65.8231
1764.90 43.2568
1765.08 29.6102
1765.26 21.1582
1765.44 15.7662
1765.80 9.61303
1766.17 6.43651
1766.53 4.60516
1766.89 3.46054
1767.61 2.17207
1768.33 1.50843
1769.05 1.12907
1769.78 0.899651
1770.50 0.760335
1771.94 0.661781
1772.66 0.702103
1773.39 0.841892
1774.11 1.19842
1774.47 1.56469
1774.83 2.22401
1775.19 3.56739
1775.37 4.82834
1775.46 5.73923
1775.55 6.94846
1775.64 8.62161
1775.69 9.68710
1775.73 10.9663
1775.78 12.5193
1775.82 14.4287
1775.87 16.8099
1775.91 19.8278
1775.96 23.8226
1776.00 28.9909
1776.05 35.9722
1776.09 45.6606
1776.14 59.5099
1776.18 79.9106
1776.23 110.679
1776.27 156.968
1776.34 250.672
1776.40 306.407
1776.46 239.676
1776.53 149.581
1776.59 89.9680
1776.66 58.0004
1776.73 39.8321
1776.79 28.8243
1776.86 21.7456
1776.92 16.9591
1777.06 11.1253
1777.19 7.84055
1777.32 5.84428
1777.59 3.62992
1777.85 2.49489
1778.11 1.84413
1778.64 1.17411
1779.17 0.887900
1779.70 0.851636
1779.96 0.998022
1780.10 1.17641
1780.23 1.51597
1780.36 2.23042
1780.43 2.90866
1780.49 4.06540
1780.56 6.26414
1780.59 8.18322
1780.62 11.2014
1780.66 16.3106
1780.69 25.8452
1780.71 34.2093
1780.72 46.0153
1780.74 65.4359
1780.75 78.1552
1780.76 95.0942
1780.77 120.358
1780.78 150.815
1780.80 188.347
1780.81 176.431
1780.82 149.128
1780.84 93.5569
1780.86 65.9865
1780.88 47.2769
1780.89 35.0359
1780.91 27.2350
1780.94 17.2121
1780.97 11.9399
1781.00 8.68949
1781.03 6.67312
1781.09 4.32350
1781.16 3.04699
1781.22 2.29896
1781.34 1.48079
1781.47 1.06863
1781.59 0.830423
1781.84 0.576013
1782.09 0.446458
1782.34 0.369054
1782.84 0.280700
1783.84 0.197682
1784.84 0.155535
1786.84 0.110378
1788.84 0.0858091
1792.85 0.0597615
1796.85 0.0470502
1800.85 0.0414648
1804.85 0.0440053
1806.85 0.0529876
1807.85 0.0630517
1808.85 0.0821920
1809.85 0.123964
1810.35 0.165801
1810.85 0.242013
1811.10 0.306025
1811.35 0.403379
1811.60 0.561912
1811.85 0.845945
1811.97 1.08091
1812.10 1.43320
1812.22 1.99595
1812.35 2.97667
1812.47 4.91739
1812.53 6.70846
1812.60 9.62235
1812.63 11.9241
1812.66 15.0285
1812.69 19.4936
1812.71 22.5994
1812.72 26.2157
1812.74 31.0810
1812.75 37.3685
1812.77 45.6513
1812.78 55.9894
1812.80 70.9843
1812.82 90.4295
1812.83 119.488
1812.85 157.621
1812.86 203.200
1812.87 251.713
1812.90 314.048
1812.91 293.835
1812.93 250.586
1812.95 156.449
1812.99 88.4784
1813.02 54.9657
1813.05 36.7887
1813.08 26.1323
1813.11 19.2666
1813.14 14.8732
1813.20 9.60211
1813.27 6.66057
1813.33 4.90917
1813.45 2.97220
1813.58 1.99300
1813.70 1.43096
1813.83 1.07904
1813.95 0.844258
1814.20 0.560360
1814.45 0.401812
1814.70 0.304378
1814.95 0.240464
1815.45 0.163872
1815.95 0.121741
1816.95 0.0792481
1817.95 0.0593698
1818.95 0.0485492
1820.95 0.0379832
1824.94 0.0318641
1828.94 0.0330583
1832.94 0.0403720
1834.94 0.0481051
1836.93 0.0617594
1838.93 0.0892413
1839.93 0.115268
1840.93 0.161004
1841.93 0.255068
1842.43 0.346356
1842.93 0.508978
1843.18 0.643968
1843.43 0.847344
1843.68 1.17513
1843.93 1.75199
1844.05 2.22507
1844.18 2.92678
1844.30 4.03194
1844.37 4.84710
1844.43 5.91976
1844.49 7.42313
1844.55 9.54136
1844.58 11.0078
1844.62 12.7742
1844.65 14.9984
1844.68 17.8501
1844.71 21.7225
1844.74 26.7800
1844.77 33.7656
1844.80 43.7399
1844.83 58.5368
1844.86 81.4271
1844.90 118.240
1844.93 178.118
1844.96 285.226
1845.00 357.469
1845.04 286.606
1845.07 179.193
1845.10 121.988
1845.13 85.6709
1845.16 62.4833
1845.19 47.6240
1845.25 29.5264
1845.30 20.0731
1845.36 14.4135
1845.42 10.8880
1845.53 6.83802
1845.65 4.68268
1845.76 3.41499
1845.99 2.06787
1846.22 1.40156
1846.45 1.02889
1846.68 0.799518
1846.91 0.651078
1847.37 0.480680
1847.83 0.398407
1848.75 0.360453
1849.66 0.448829
1850.12 0.566636
1850.58 0.791676
1851.04 1.27076
1851.27 1.73732
1851.50 2.55508
1851.62 3.22200
1851.73 4.20477
1851.79 4.88710
1851.85 5.73800
1851.90 6.83727
1851.96 8.29096
1852.02 10.3086
1852.07 13.1070
1852.10 14.9886
1852.13 17.2146
1852.16 20.0797
1852.19 23.5699
1852.22 28.2140
1852.25 34.3295
1852.28 42.5744
1852.30 53.5249
1852.33 69.5773
1852.36 92.1101
1852.39 126.809
1852.42 176.466
1852.46 282.761
1852.50 351.359
1852.54 280.694
1852.58 176.955
1852.62 109.773
1852.67 71.7665
1852.71 49.7054
1852.75 36.1592
1852.79 27.3707
1852.83 21.3917
1852.91 14.0626
1852.99 9.93883
1853.08 7.40205
1853.24 4.59562
1853.40 3.14871
1853.57 2.31901
1853.89 1.45288
1854.22 1.04560
1854.55 0.837559
1855.20 0.700181
1855.86 0.817109
1856.18 1.01013
1856.51 1.39188
1856.84 2.21505
1857.00 3.01144
1857.17 4.38751
1857.25 5.49530
1857.33 7.10350
1857.37 8.19383
1857.41 9.56067
1857.45 11.3046
1857.49 13.5127
1857.53 16.5208
1857.57 20.6473
1857.62 26.5043
1857.66 35.1661
1857.70 48.6250
1857.74 70.7847
1857.76 87.8163
1857.78 109.525
1857.80 138.548
1857.82 176.984
1857.86 284.297
1857.90 352.290
1857.92 329.297
1857.94 279.288
1857.98 175.242
1858.03 99.1874
1858.08 60.8218
1858.13 40.3622
1858.17 28.7043
1858.22 21.2574
1858.27 16.3457
1858.36 10.5516
1858.46 7.34468
1858.55 5.42727
1858.74 3.32363
1858.94 2.25334
1859.13 1.64161
1859.32 1.25599
1859.51 0.999757
1859.89 0.688518
1860.27 0.514698
1861.03 0.339176
1861.79 0.259952
1862.56 0.222434
1864.08 0.210883
1865.60 0.272326
1866.37 0.350291
1867.13 0.499453
1867.51 0.626775
1867.89 0.820240
1868.27 1.13396
1868.65 1.69021
1868.84 2.14621
1869.03 2.81770
1869.13 3.28636
1869.23 3.87722
1869.32 4.64483
1869.42 5.66679
1869.51 7.08547
1869.56 8.00312
1869.61 9.08511
1869.65 10.4317
1869.70 12.0596
1869.75 14.1439
1869.80 16.7459
1869.84 20.2024
1869.89 24.8152
1869.94 31.1380
1869.99 39.8542
1870.04 52.8262
1870.08 71.9996
1870.13 102.510
1870.18 149.214
1870.24 239.222
1870.30 296.509
1870.36 235.140
1870.42 147.227
1870.47 98.1481
1870.53 67.8244
1870.58 48.8833
1870.63 36.5951
1870.73 22.4587
1870.83 15.0766
1870.93 10.7863
1871.04 8.08748
1871.24 5.03372
1871.44 3.42660
1871.65 2.48433
1871.85 1.88553
1872.05 1.48330
1872.46 0.988622
1872.87 0.709768
1873.28 0.536845
1873.68 0.422253
1874.50 0.284442
1875.31 0.208066
1876.13 0.161320
1876.94 0.130799
1878.57 0.0949900
1880.20 0.0763828
1883.46 0.0625563
1886.72 0.0689324
1888.35 0.0824320
1889.97 0.110556
1890.79 0.135364
1891.60 0.173877
1892.42 0.237770
1893.23 0.353983
1893.64 0.451637
1894.05 0.599411
1894.45 0.838954
1894.86 1.26516
1895.07 1.61627
1895.27 2.13957
1895.47 2.96871
1895.58 3.57799
1895.68 4.38721
1895.78 5.51859
1895.88 7.14970
1895.93 8.24906
1895.98 9.62063
1896.03 11.3610
1896.08 13.5624
1896.13 16.5256
1896.19 20.5514
1896.24 26.1958
1896.29 34.4109
1896.34 46.9051
1896.39 66.8782
1896.44 100.398
1896.49 156.212
1896.55 249.077
1896.60 309.664
1896.66 247.206
1896.71 154.740
1896.76 98.6732
1896.81 66.3555
1896.86 46.5835
1896.91 34.3972
1897.01 20.6356
1897.11 13.7079
1897.21 9.70676
1897.31 7.24335
1897.52 4.45941
1897.72 3.01825
1897.92 2.17847
1898.12 1.64711
1898.32 1.28990
1898.72 0.854584
1899.12 0.609590
1899.53 0.458238
1899.93 0.358248
1900.73 0.238533
1901.54 0.172343
1902.34 0.131970
1903.14 0.105579
1904.75 0.0744364
1906.36 0.0577336
1909.58 0.0425587
1912.79 0.0394613
1914.40 0.0419781
1916.01 0.0491890
1917.62 0.0670412
1918.42 0.0855522
1919.23 0.119731
1919.63 0.148661
1920.03 0.192907
1920.43 0.265448
1920.83 0.396634
1921.04 0.506165
1921.24 0.671880
1921.44 0.939908
1921.64 1.41554
1921.74 1.80764
1921.84 2.38431
1921.94 3.30347
1922.04 4.86090
1922.14 7.88921
1922.19 10.5496
1922.22 12.4088
1922.24 14.7983
1922.27 18.0811
1922.29 22.3579
1922.32 28.2942
1922.33 32.3245
1922.34 36.8241
1922.36 42.7853
1922.37 49.5841
1922.38 58.7966
1922.39 69.5462
1922.41 84.4370
1922.42 102.138
1922.43 126.912
1922.44 157.799
1922.47 251.221
1922.50 314.937
1922.52 294.673
1922.53 250.756
1922.56 157.161
1922.59 98.6642
1922.61 64.6410
1922.64 44.8215
1922.67 32.9684
1922.70 24.9211
1922.72 19.4468
1922.78 12.8253
1922.84 9.01528
1922.89 6.70805
1923.00 4.10817
1923.11 2.77239
1923.22 1.99780
1923.33 1.50937
1923.45 1.18186
1923.67 0.783806
1923.89 0.560423
1924.11 0.422724
1924.33 0.332262
1924.78 0.223662
1925.22 0.163857
1926.11 0.103990
1927.00 0.0764471
1927.88 0.0620516
1929.66 0.0500426
1931.43 0.0498026
1933.21 0.0637836
1934.09 0.0859134
1934.54 0.108208
1934.98 0.148675
1935.43 0.234413
1935.65 0.318679
1935.87 0.468954
1936.09 0.781492
1936.20 1.08200
1936.31 1.60784
1936.42 2.65527
1936.48 3.63018
1936.53 5.22551
1936.59 8.22749
1936.62 10.7888
1936.65 14.5513
1936.67 20.8811
1936.69 25.6307
1936.70 31.5480
1936.71 40.3028
1936.73 52.7417
1936.74 60.8923
1936.74 70.7041
1936.76 95.6359
1936.77 123.160
1936.78 153.449
1936.80 191.066
1936.81 180.063
1936.82 153.509
1936.84 95.4671
1936.86 69.2205
1936.87 50.6974
1936.90 30.0329
1936.93 19.2325
1936.96 13.4129
1936.99 9.75522
1937.02 7.46459
1937.08 4.73291
1937.14 3.26581
1937.20 2.39047
1937.32 1.44983
1937.43 0.974850
1937.55 0.704623
1937.79 0.425699
1938.02 0.291220
1938.26 0.217005
1938.73 0.142227
1939.20 0.107688
1939.67 0.0895765
1940.61 0.0736566
1942.49 0.0710915
1944.37 0.0872601
1946.26 0.128922
1947.20 0.170913
1948.14 0.246708
1948.61 0.309960
1949.08 0.405459
1949.55 0.560608
1950.02 0.836981
1950.26 1.06624
1950.49 1.40839
1950.73 1.95454
1950.84 2.36089
1950.96 2.90603
1951.08 3.67562
1951.20 4.80109
1951.26 5.56967
1951.31 6.53931
1951.37 7.78611
1951.43 9.39354
1951.49 11.5950
1951.55 14.6614
1951.61 19.1002
1951.67 25.6977
1951.73 36.4600
1951.78 55.0859
1951.81 69.9854
1951.84 90.0995
1951.87 118.395
1951.90 157.936
1951.95 253.181
1952.00 315.573
1952.05 252.682
1952.10 159.135
1952.14 108.296
1952.18 76.0088
1952.22 55.4016
1952.25 42.1039
1952.33 26.0906
1952.41 17.7009
1952.49 12.7072
1952.56 9.58493
1952.72 6.00510
1952.87 4.10680
1953.03 2.99616
1953.18 2.28381
1953.34 1.80593
1953.65 1.21814
1953.96 0.888812
1954.26 0.686561
1954.57 0.554651
1955.19 0.402240
1955.81 0.327054
1957.05 0.285479
1958.28 0.348479
1958.90 0.439167
1959.52 0.615686
1959.83 0.766992
1960.14 0.996752
1960.45 1.36871
1960.76 2.02604
1960.91 2.56338
1961.07 3.35089
1961.14 3.90012
1961.22 4.58905
1961.30 5.48096
1961.37 6.66337
1961.45 8.30075
1961.53 10.5886
1961.61 13.9620
1961.68 19.2134
1961.72 23.0531
1961.76 28.1286
1961.80 35.0033
1961.84 44.2863
1961.88 57.8945
1961.92 77.3990
1961.95 107.590
1961.99 151.899
1962.05 242.312
1962.10 302.020
1962.15 241.759
1962.21 151.461
1962.27 88.7719
1962.33 55.7182
1962.39 37.5303
1962.45 26.7728
1962.51 19.9769
1962.57 15.4428
1962.69 9.99243
1962.81 6.98286
1962.93 5.15404
1963.17 3.14960
1963.41 2.12723
1963.65 1.54136
1963.89 1.17236
1964.13 0.927056
1964.60 0.629864
1965.08 0.464563
1966.04 0.298843
1967.00 0.224931
1967.96 0.190169
1969.87 0.179035
1971.79 0.232715
1972.75 0.300776
1973.71 0.430701
1974.19 0.541073
1974.66 0.708911
1975.14 0.980628
1975.62 1.46134
1975.86 1.85433
1976.10 2.43250
1976.22 2.83251
1976.34 3.34128
1976.46 4.00181
1976.58 4.87199
1976.64 5.42268
1976.70 6.07214
1976.82 7.77504
1976.94 10.3006
1977.06 14.2209
1977.12 17.0834
1977.18 20.8749
1977.24 26.0242
1977.30 33.2194
1977.36 43.5964
1977.42 59.0608
1977.48 82.7375
1977.54 118.276
1977.62 188.666
1977.70 234.398
1977.78 186.813
1977.86 116.819
1977.95 69.6095
1978.04 44.4335
1978.12 30.1520
1978.21 21.6939
1978.30 16.2357
1978.38 12.6114
1978.55 8.19366
1978.73 5.73768
1978.90 4.23842
1979.25 2.58340
1979.59 1.74027
1979.94 1.25390
1980.28 0.948266
1980.63 0.743809
1981.32 0.495849
1982.01 0.356950
1982.71 0.271426
1983.40 0.215165
1984.78 0.148076
1986.16 0.111562
1988.93 0.0769521
1991.70 0.0661406
1994.47 0.0737623
1995.85 0.0905676
1997.23 0.131984
1997.93 0.176199
1998.62 0.261247
1998.96 0.336430
1999.31 0.456628
1999.66 0.666281
2000.00 1.08033
2000.14 1.37864
2000.28 1.82135
2000.43 2.53072
2000.57 3.75064
2000.71 6.15988
2000.78 8.34389
2000.81 9.87223
2000.85 11.8583
2000.89 14.5894
2000.92 18.2422
2000.96 23.5990
2000.97 27.1804
2000.99 31.3392
2001.01 36.8269
2001.03 43.8095
2001.05 52.8391
2001.06 63.9631
2001.08 79.5857
2001.10 99.4056
2001.12 127.817
2001.13 163.791
2001.17 262.039
2001.20 327.043
2001.22 307.452
2001.23 261.091
2001.27 163.048
2001.30 110.472
2001.32 78.2829
2001.35 57.5049
2001.37 43.6717
2001.43 27.1101
2001.48 18.4497
2001.53 13.2459
2001.58 10.0052
2001.69 6.27511
2001.79 4.28453
2001.90 3.12080
2002.00 2.37042
2002.11 1.86752
2002.31 1.24706
2002.52 0.895645
2002.73 0.677673
2002.94 0.533307
2003.36 0.359868
2003.78 0.264286
2004.61 0.168419
2005.45 0.124621
2006.29 0.102245
2007.96 0.0856213
2009.63 0.0904493
2010.47 0.101816
2011.30 0.124432
2012.14 0.172657
2012.56 0.219480
2012.98 0.302866
2013.40 0.475779
2013.60 0.643452
2013.81 0.941168
2013.92 1.18723
2014.02 1.55070
2014.13 2.13345
2014.23 3.13107
2014.34 5.10197
2014.39 6.86515
2014.44 9.73563
2014.47 11.9921
2014.49 14.9873
2014.52 19.2361
2014.55 25.5165
2014.56 29.8280
2014.57 35.2718
2014.58 42.2494
2014.60 51.3349
2014.61 63.3504
2014.62 79.4540
2014.64 101.185
2014.65 130.518
2014.66 167.548
2014.68 210.165
2014.70 260.962
2014.71 245.143
2014.73 207.245
2014.75 130.541
2014.78 75.4464
2014.81 46.9122
2014.84 31.4125
2014.87 22.5706
2014.90 16.7782
2014.92 12.9375
2014.98 8.40687
2015.04 5.86604
2015.10 4.35219
2015.21 2.68392
2015.33 1.83064
2015.44 1.34525
2015.67 0.837660
2015.90 0.594533
2016.13 0.463025
2016.59 0.338899
2017.04 0.294213
2017.50 0.286710
2018.42 0.343714
2018.88 0.412512
2019.34 0.524595
2019.79 0.712569
2020.25 1.05267
2020.48 1.33551
2020.71 1.75688
2020.94 2.42639
2021.05 2.92192
2021.17 3.58303
2021.28 4.51006
2021.40 5.83905
2021.46 6.75375
2021.51 7.87912
2021.57 9.30989
2021.63 11.1656
2021.68 13.6795
2021.74 17.0614
2021.80 21.8341
2021.86 28.8415
2021.91 39.8658
2021.97 57.5675
2022.03 88.0561
2022.06 111.740
2022.08 141.973
2022.14 227.057
2022.20 283.251
2022.26 226.097
2022.32 141.220
2022.35 103.104
2022.39 76.7209
2022.46 45.7567
2022.54 29.8193
2022.61 20.8983
2022.69 15.3418
2022.76 11.7586
2022.91 7.50139
2023.05 5.19543
2023.20 3.81187
2023.49 2.30906
2023.79 1.55543
2024.08 1.12563
2024.38 0.858248
2024.67 0.681259
2025.26 0.470535
2025.85 0.358104
2026.43 0.295251
2027.02 0.262284
2028.20 0.262401
2028.79 0.302148
2029.38 0.393171
2029.96 0.603207
2030.26 0.814654
2030.55 1.19580
2030.70 1.51121
2030.85 1.98316
2030.99 2.73395
2031.14 4.03312
2031.29 6.57301
2031.36 8.88202
2031.40 10.5217
2031.43 12.5922
2031.47 15.4213
2031.51 19.3051
2031.54 24.8222
2031.58 32.7206
2031.60 38.4335
2031.62 45.2654
2031.64 54.5105
2031.65 65.9051
2031.67 81.8008
2031.69 101.933
2031.71 128.785
2031.73 164.239
2031.76 262.889
2031.80 324.585
2031.82 303.406
2031.84 257.739
2031.87 162.406
2031.91 97.1548
2031.95 62.5447
2031.99 42.4796
2032.03 30.7148
2032.07 22.9842
2032.10 17.9133
2032.18 11.6639
2032.26 8.18199
2032.34 6.05337
2032.49 3.70036
2032.64 2.50002
2032.80 1.80693
2032.95 1.37103
2033.11 1.07920
2033.41 0.724868
2033.72 0.525993
2034.03 0.403224
2034.34 0.322086
2034.95 0.224784
2035.57 0.170863
2036.80 0.116626
2038.03 0.0922028
2039.27 0.0806916
2041.73 0.0778569
2044.19 0.0993428
2045.42 0.126358
2046.66 0.178222
2047.27 0.222674
2047.89 0.290866
2048.50 0.402633
2049.12 0.604027
2049.43 0.771356
2049.74 1.02316
2050.04 1.42734
2050.35 2.13643
2050.51 2.71080
2050.66 3.55434
2050.74 4.13258
2050.81 4.86444
2050.89 5.80908
2050.97 7.05690
2051.04 8.75122
2051.12 11.1298
2051.20 14.6085
2051.28 19.9632
2051.31 23.8366
2051.35 28.7582
2051.39 35.4910
2051.43 44.4411
2051.47 57.3025
2051.51 75.2765
2051.54 101.398
2051.58 139.179
2051.64 221.953
2051.70 275.984
2051.76 220.309
2051.82 137.886
2051.86 95.7329
2051.91 68.8148
2051.95 51.0947
2051.99 39.1171
2052.08 24.6299
2052.16 16.8665
2052.25 12.1872
2052.34 9.22849
2052.51 5.80503
2052.68 3.97429
2052.85 2.89564
2053.03 2.20092
2053.20 1.73260
2053.54 1.15486
2053.89 0.826928
2054.23 0.623189
2054.58 0.488070
2055.27 0.325753
2055.96 0.235832
2056.65 0.181037
2057.34 0.145359
2058.72 0.103826
2060.10 0.0824426
2062.86 0.0667483
2065.62 0.0738501
2067.00 0.0888029
2068.38 0.119831
2069.07 0.147113
2069.76 0.189450
2070.45 0.259475
2071.14 0.386751
2071.49 0.493240
2071.83 0.654494
2072.18 0.915446
2072.52 1.37864
2072.69 1.75955
2072.87 2.32206
2073.04 3.21464
2073.12 3.86421
2073.21 4.73290
2073.30 5.94724
2073.38 7.66998
2073.43 8.82443
2073.47 10.2578
2073.51 12.0664
2073.56 14.3906
2073.60 17.5239
2073.64 21.6604
2073.69 27.3963
2073.73 35.6265
2073.77 47.9120
2073.81 67.0676
2073.86 98.1735
2073.90 149.263
2073.95 237.940
2074.00 295.784
2074.05 236.175
2074.10 147.874
2074.14 101.998
2074.18 72.3979
2074.21 53.2269
2074.25 40.7172
2074.33 25.4548
2074.40 17.3625
2074.48 12.5047
2074.55 9.45100
2074.70 5.91332
2074.86 4.04238
2075.01 2.93714
2075.16 2.23115
2075.31 1.75326
2075.61 1.16683
2075.91 0.834605
2076.21 0.628523
2076.52 0.492431
2077.12 0.328764
2077.72 0.238803
2078.33 0.184616
2078.93 0.150440
2080.14 0.116010
2081.34 0.117949
2081.95 0.145334
2082.25 0.176992
2082.55 0.236991
2082.85 0.366742
2083.00 0.494526
2083.15 0.722515
2083.31 1.18892
2083.38 1.63372
2083.46 2.38683
2083.53 3.86152
2083.57 5.17904
2083.61 7.23276
2083.65 10.9056
2083.68 17.8627
2083.70 24.1722
2083.72 34.1282
2083.73 41.7108
2083.74 50.5399
2083.75 61.8324
2083.76 76.3132
2083.77 98.0111
2083.78 122.966
2083.80 152.166
2083.81 142.697
2083.82 120.399
2083.84 75.9007
2083.86 56.3033
2083.87 42.4689
2083.89 26.2897
2083.92 17.5623
2083.94 12.4642
2083.97 9.26979
2083.99 7.15058
2084.04 4.61680
2084.09 3.22463
2084.14 2.38128
2084.24 1.45675
2084.35 0.985277
2084.45 0.717671
2084.65 0.437633
2084.85 0.301236
2085.05 0.225365
2085.45 0.147817
2085.85 0.111451
2086.25 0.0921560
2087.05 0.0766099
2087.85 0.0803122
2088.25 0.0915826
2088.66 0.115943
2089.06 0.171428
2089.26 0.227505
2089.46 0.328516
2089.66 0.540080
2089.76 0.742847
2089.86 1.09708
2089.96 1.80021
2090.01 2.44457
2090.06 3.51327
2090.11 5.47174
2090.13 7.12119
2090.16 9.62464
2090.18 13.6574
2090.21 20.6519
2090.23 33.8617
2090.25 45.3481
2090.26 61.2217
2090.27 78.4165
2090.28 97.2816
2090.30 122.155
2090.31 114.070
2090.32 97.1405
2090.34 60.9638
2090.36 38.5742
2090.38 25.8570
2090.40 17.9242
2090.42 13.2361
2090.46 7.89001
2090.50 5.25577
2090.54 3.71320
2090.57 2.76102
2090.65 1.70860
2090.73 1.15843
2090.81 0.842808
2090.96 0.506780
2091.12 0.342374
2091.27 0.249845
2091.58 0.154950
2091.89 0.109324
2092.20 0.0839603
2092.82 0.0578727
2093.44 0.0452418
2094.06 0.0380910
2095.30 0.0305620
2097.77 0.0248491
2100.25 0.0234668
2102.73 0.0248348
2105.20 0.0314248
2106.44 0.0409287
2107.06 0.0503499
2107.68 0.0674185
2108.30 0.103522
2108.61 0.139199
2108.92 0.203358
2109.23 0.338278
2109.38 0.469792
2109.54 0.701511
2109.69 1.17655
2109.77 1.62905
2109.85 2.39527
2109.93 3.89534
2109.96 5.23597
2110.00 7.32869
2110.04 11.0732
2110.08 18.1871
2110.10 24.8588
2110.11 29.5483
2110.12 34.8865
2110.13 42.4787
2110.14 51.2862
2110.15 63.9469
2110.16 79.6326
2110.17 100.881
2110.18 126.607
2110.20 159.058
2110.21 149.478
2110.22 126.604
2110.24 79.4470
2110.26 55.9436
2110.27 40.7934
2110.29 30.6305
2110.30 23.6553
2110.34 14.9494
2110.37 10.3347
2110.40 7.47117
2110.43 5.69059
2110.49 3.58531
2110.55 2.46315
2110.61 1.79689
2110.73 1.08397
2110.85 0.725558
2110.97 0.522153
2111.22 0.312613
2111.46 0.211759
2111.70 0.156110
2112.19 0.0998938
2112.68 0.0738509
2113.17 0.0599919
2114.14 0.0473054
2116.09 0.0428775
2118.03 0.0505288
2119.98 0.0730471
2120.95 0.0965423
2121.93 0.139700
2122.41 0.176143
2122.90 0.231763
2123.39 0.322751
2123.87 0.486422
2124.12 0.623282
2124.36 0.829025
2124.61 1.16222
2124.85 1.74851
2124.97 2.22878
2125.09 2.93986
2125.21 4.05649
2125.28 4.87010
2125.34 5.93431
2125.40 7.41635
2125.46 9.52649
2125.52 12.6705
2125.55 14.8107
2125.58 17.5311
2125.61 21.1906
2125.64 25.9046
2125.67 32.5655
2125.70 41.6435
2125.73 55.3230
2125.76 75.3126
2125.79 106.227
2125.82 154.239
2125.86 248.164
2125.90 308.969
2125.92 290.482
2125.94 246.069
2125.98 154.556
2126.00 114.472
2126.03 86.2131
2126.08 52.3049
2126.12 34.4510
2126.17 24.3662
2126.22 17.9638
2126.27 13.8321
2126.36 8.86119
2126.46 6.12594
2126.55 4.49723
2126.74 2.71771
2126.93 1.81636
2127.12 1.30300
2127.31 0.981737
2127.50 0.767514
2127.88 0.508167
2128.26 0.363989
2128.64 0.275333
2129.02 0.217299
2129.79 0.148289
2130.55 0.110818
2132.07 0.0746038
2133.59 0.0606642
2135.11 0.0605193
2135.88 0.0695019
2136.64 0.0999148
2137.02 0.143196
2137.40 0.262725
2137.59 0.422814
2137.68 0.575795
2137.78 0.842499
2137.87 1.37049
2137.92 1.85952
2137.97 2.65149
2138.02 4.13024
2138.04 5.37883
2138.06 7.18065
2138.09 10.1837
2138.11 15.3897
2138.14 25.2057
2138.15 33.3291
2138.16 44.6734
2138.17 57.2741
2138.18 71.5292
2138.20 89.3343
2138.22 71.5639
2138.24 44.7002
2138.25 32.5564
2138.27 24.6621
2138.29 15.1109
2138.31 10.0282
2138.34 7.08675
2138.36 5.25567
2138.39 4.04671
2138.43 2.60814
2138.48 1.82142
2138.53 1.34634
2138.63 0.827082
2138.72 0.562991
2138.82 0.413497
2139.01 0.257431
2139.40 0.139630
2139.78 0.0969201
2140.55 0.0660225
2141.32 0.0558307
2142.86 0.0513150
2144.40 0.0551681
2145.93 0.0673000
2146.70 0.0795433
2147.47 0.101387
2148.24 0.146912
2148.63 0.191428
2149.01 0.271187
2149.40 0.438487
2149.59 0.601071
2149.78 0.890020
2149.88 1.13030
2149.97 1.48527
2150.07 2.04769
2150.17 3.01660
2150.26 4.89993
2150.31 6.58815
2150.36 9.32271
2150.38 11.3698
2150.41 14.1599
2150.43 18.0887
2150.45 23.8402
2150.47 27.7543
2150.48 32.6601
2150.49 38.8949
2150.50 46.9324
2150.51 57.4393
2150.53 71.3351
2150.54 89.8174
2150.55 115.598
2150.56 148.074
2150.58 184.040
2150.60 231.694
2150.61 217.078
2150.63 185.038
2150.65 116.141
2150.67 75.9496
2150.69 52.1163
2150.71 37.3714
2150.73 27.8748
2150.78 16.8508
2150.82 11.3045
2150.86 8.02902
2150.90 6.02921
2150.99 3.75775
2151.07 2.55879
2151.16 1.86557
2151.24 1.42030
2151.33 1.12397
2151.50 0.758164
2151.67 0.553680
2151.83 0.427398
2152.00 0.344119
2152.34 0.244707
2152.68 0.190620
2153.36 0.137701
2154.03 0.115078
2154.71 0.104886
2156.06 0.100692
2158.77 0.120929
2161.48 0.172869
2162.83 0.218195
2164.19 0.287206
2165.54 0.398800
2166.22 0.482093
2166.55 0.534124
2166.89 0.595277
2167.06 0.630165
2167.23 0.668036
2167.57 0.754968
2167.91 0.860654
2168.25 0.990044
2168.59 1.15178
2168.92 1.35622
2169.26 1.62052
2169.60 1.97034
2169.94 2.44816
2170.28 3.11946
2170.62 4.10911
2170.95 5.63831
2171.29 8.18246
2171.46 10.1145
2171.63 12.7732
2171.80 16.5350
2171.97 22.0079
2172.14 30.1448
2172.31 42.2208
2172.55 67.4940
2172.80 84.1285
2173.05 67.1214
2173.29 41.9262
2173.56 25.0082
2173.82 15.9230
2174.09 10.8152
2174.35 7.76813
2174.61 5.81834
2174.88 4.51395
2175.40 2.93203
2175.93 2.05298
2176.46 1.51661
2177.51 0.924936
2178.56 0.623987
2179.62 0.450857
2180.67 0.342601
2181.73 0.270905
2183.83 0.186718
2185.94 0.148388
2186.99 0.146193
2188.05 0.173011
2188.58 0.221945
2188.84 0.273194
2189.10 0.367291
2189.37 0.567222
2189.50 0.762279
2189.63 1.10430
2189.76 1.80038
2189.83 2.45142
2189.89 3.53316
2189.96 5.60200
2189.99 7.40198
2190.02 10.2262
2190.06 14.9931
2190.09 23.8498
2190.11 31.5809
2190.12 42.4356
2190.13 49.7886
2190.14 58.8740
2190.15 70.0906
2190.16 84.9541
2190.17 109.371
2190.18 136.157
2190.20 168.905
2190.21 158.835
2190.22 135.208
2190.24 84.0204
2190.27 51.4625
2190.29 33.6619
2190.31 22.9812
2190.33 16.7696
2190.36 12.5784
2190.38 9.86507
2190.42 6.52025
2190.47 4.59341
2190.51 3.43435
2190.60 2.12702
2190.69 1.45629
2190.78 1.06756
2190.96 0.658006
2191.14 0.457090
2191.31 0.344807
2191.67 0.229184
2192.03 0.173481
2192.38 0.142397
2193.10 0.110429
2194.52 0.0875904
2195.95 0.0841426
2197.37 0.0959582
2198.08 0.112322
2198.80 0.144677
2199.51 0.216330
2199.86 0.288030
2200.22 0.418078
2200.40 0.526708
2200.58 0.690959
2200.75 0.956221
2200.93 1.42567
2201.02 1.80922
2201.11 2.37727
2201.20 3.26960
2201.29 4.78751
2201.38 7.67952
2201.42 10.2520
2201.47 14.2333
2201.49 17.2884
2201.51 21.2052
2201.53 26.5654
2201.56 34.1309
2201.57 39.6160
2201.58 45.8067
2201.59 53.4373
2201.60 62.9309
2201.61 74.8396
2201.62 89.8629
2201.63 108.825
2201.64 133.976
2201.66 170.074
2201.67 213.095
2201.70 266.375
2201.71 249.834
2201.73 211.427
2201.76 132.435
2201.78 86.0715
2201.81 57.8822
2201.83 40.8904
2201.86 30.1632
2201.91 18.1527
2201.96 12.0411
2202.01 8.54756
2202.06 6.37482
2202.16 3.93450
2202.26 2.67127
2202.36 1.93521
2202.46 1.46951
2202.56 1.15646
2202.76 0.774992
2202.96 0.560335
2203.16 0.427753
2203.35 0.340556
2203.75 0.235642
2204.15 0.177896
2204.95 0.119970
2205.75 0.0936721
2206.55 0.0805290
2208.15 0.0727576
2209.75 0.0829600
2210.55 0.0984141
2211.35 0.129141
2212.14 0.196954
2212.54 0.264917
2212.94 0.387882
2213.14 0.490906
2213.34 0.646906
2213.54 0.899393
2213.74 1.34468
2213.84 1.71085
2213.94 2.25469
2214.04 3.11228
2214.14 4.57911
2214.24 7.39746
2214.29 9.89205
2214.32 11.6360
2214.34 13.8777
2214.37 16.8214
2214.39 20.7842
2214.42 26.2760
2214.44 34.1495
2214.46 39.6395
2214.47 45.8883
2214.48 54.3336
2214.49 64.1565
2214.51 77.7068
2214.52 93.7286
2214.53 114.074
2214.54 139.893
2214.56 179.499
2214.57 224.914
2214.60 278.655
2214.62 261.328
2214.63 220.789
2214.66 138.797
2214.69 88.8417
2214.71 60.3215
2214.74 42.4123
2214.77 31.5097
2214.82 18.9890
2214.87 12.6054
2214.92 8.95166
2214.98 6.67714
2215.08 4.13690
2215.19 2.80473
2215.29 2.03450
2215.40 1.54172
2215.50 1.21329
2215.72 0.809033
2215.93 0.582690
2216.14 0.442756
2216.35 0.350279
2216.77 0.239376
2217.19 0.178302
2218.04 0.116888
2218.88 0.0884758
2219.73 0.0734539
2221.42 0.0600306
2224.79 0.0575332
2228.17 0.0716325
2229.86 0.0863037
2231.55 0.109827
2233.24 0.149205
2234.93 0.220889
2235.77 0.280727
2236.62 0.370834
2237.46 0.515855
2237.88 0.623727
2238.31 0.770350
2238.73 0.977265
2238.94 1.11358
2239.15 1.28083
2239.36 1.48910
2239.57 1.75288
2239.78 2.09366
2240.00 2.54427
2240.21 3.16035
2240.42 4.02337
2240.63 5.28871
2240.84 7.24313
2241.05 10.4690
2241.16 12.9272
2241.26 16.2646
2241.37 21.0080
2241.47 27.7981
2241.58 37.9045
2241.68 52.6077
2241.84 83.9869
2242.00 104.111
2242.16 82.6066
2242.32 51.5266
2242.44 34.7751
2242.57 24.3345
2242.70 17.7055
2242.82 13.3493
2243.07 8.27202
2243.33 5.58683
2243.58 4.01336
2243.83 3.01793
2244.33 1.88168
2244.84 1.28364
2245.34 0.932677
2245.85 0.709174
2246.35 0.558270
2247.36 0.373629
2248.37 0.269850
2249.38 0.206208
2250.38 0.165009
2252.40 0.120045
2254.42 0.110221
2255.43 0.126362
2255.93 0.147927
2256.43 0.190827
2256.94 0.286009
2257.19 0.381304
2257.44 0.553618
2257.57 0.696962
2257.69 0.912708
2257.82 1.25883
2257.95 1.86526
2258.07 3.07468
2258.14 4.18870
2258.20 6.04656
2258.26 9.47964
2258.29 12.4523
2258.32 16.8596
2258.36 24.2848
2258.37 29.8835
2258.39 36.9649
2258.40 47.4091
2258.42 62.3378
2258.43 72.1658
2258.44 84.0342
2258.45 113.294
2258.46 146.112
2258.48 180.758
2258.50 224.818
2258.51 209.865
2258.53 178.816
2258.55 111.551
2258.57 69.9509
2258.60 46.8894
2258.62 33.0742
2258.64 24.3808
2258.69 14.6689
2258.74 9.73363
2258.78 6.91372
2258.83 5.16006
2258.92 3.19019
2259.01 2.16195
2259.10 1.57054
2259.20 1.19590
2259.29 0.943787
2259.47 0.634901
2259.66 0.461886
2259.84 0.354250
2260.03 0.283393
2260.40 0.197962
2260.76 0.150396
2261.50 0.101785
2262.24 0.0785951
2262.98 0.0658673
2264.45 0.0543643
2265.93 0.0539070
2266.67 0.0586666
2267.40 0.0701024
2268.14 0.0973981
2268.51 0.125486
2268.88 0.177112
2269.25 0.286810
2269.43 0.394934
2269.62 0.587221
2269.80 0.985527
2269.90 1.36353
2269.99 2.01768
2270.08 3.29776
2270.13 4.45328
2270.17 6.33880
2270.22 9.71029
2270.24 12.4784
2270.26 16.5737
2270.29 22.9418
2270.30 27.7273
2270.31 33.4422
2270.32 41.7025
2270.33 51.8550
2270.34 66.8237
2270.36 85.3650
2270.37 110.791
2270.38 137.477
2270.40 169.971
2270.41 158.409
2270.42 134.354
2270.45 84.6260
2270.46 55.9906
2270.48 38.4587
2270.50 27.5943
2270.52 20.8907
2270.56 12.8776
2270.59 8.67122
2270.63 6.21768
2270.67 4.67024
2270.74 2.90878
2270.82 1.97601
2270.89 1.43700
2271.04 0.861705
2271.19 0.576167
2271.34 0.415971
2271.63 0.250317
2271.93 0.171098
2272.23 0.127132
2272.82 0.0825452
2273.41 0.0614016
2274.01 0.0497519
2275.19 0.0380422
2277.57 0.0303294
2279.94 0.0300622
2282.32 0.0358801
2283.51 0.0430513
2284.69 0.0568264
2285.88 0.0869027
2286.47 0.116986
2287.07 0.171644
2287.36 0.217620
2287.66 0.287601
2287.96 0.401730
2288.25 0.605791
2288.40 0.776114
2288.55 1.03039
2288.70 1.44087
2288.85 2.15503
2289.00 3.59040
2289.07 4.90568
2289.15 7.09810
2289.18 8.78589
2289.22 11.1469
2289.26 14.5843
2289.29 19.8439
2289.31 23.6870
2289.33 28.4124
2289.35 35.0264
2289.37 43.5174
2289.39 55.9733
2289.40 72.7402
2289.42 98.3494
2289.44 134.645
2289.46 171.707
2289.47 215.720
2289.50 267.931
2289.52 250.874
2289.53 214.296
2289.56 133.300
2289.59 83.0129
2289.62 54.8309
2289.64 38.2556
2289.67 27.9712
2289.73 16.6408
2289.78 10.9593
2289.84 7.69654
2289.90 5.72237
2290.01 3.51435
2290.12 2.36818
2290.23 1.70922
2290.35 1.29273
2290.46 1.01297
2290.68 0.671260
2290.91 0.479587
2291.13 0.361494
2291.36 0.283956
2291.81 0.190983
2292.26 0.139997
2292.71 0.109085
2293.15 0.0891670
2294.05 0.0663111
2294.95 0.0550037
2296.75 0.0483658
2298.55 0.0567141
2299.45 0.0693507
2300.34 0.0944078
2300.79 0.116193
2301.24 0.149769
2301.69 0.205315
2302.14 0.306018
2302.37 0.390522
2302.59 0.518705
2302.82 0.726668
2303.04 1.09499
2303.15 1.40046
2303.27 1.85169
2303.38 2.56515
2303.49 3.79028
2303.60 6.18950
2303.66 8.31771
2303.69 9.81443
2303.72 11.7486
2303.74 14.3049
2303.77 17.7740
2303.80 22.6318
2303.83 29.6917
2303.84 34.4639
2303.86 40.4115
2303.87 47.9194
2303.88 57.5213
2303.90 69.9543
2303.91 86.2142
2303.93 107.562
2303.94 136.689
2303.96 175.723
2303.97 218.989
2304.00 272.078
2304.02 255.832
2304.03 217.636
2304.06 135.404
2304.09 83.0120
2304.12 54.1852
2304.15 37.4928
2304.18 27.2519
2304.21 20.4301
2304.24 15.9650
2304.30 10.4807
2304.36 7.34800
2304.42 5.45530
2304.54 3.33199
2304.67 2.24461
2304.79 1.61535
2304.91 1.21911
2305.03 0.955489
2305.27 0.632331
2305.51 0.451206
2305.75 0.339632
2305.99 0.266330
2306.48 0.178348
2306.96 0.129909
2307.44 0.100393
2307.93 0.0811093
2308.89 0.0583350
2309.86 0.0460459
2311.79 0.0342808
2313.73 0.0296607
2315.66 0.0282349
2319.53 0.0309763
2323.39 0.0418478
2325.33 0.0531043
2327.26 0.0731529
2329.19 0.114229
2330.16 0.153728
2331.13 0.223738
2331.61 0.281702
2332.09 0.368793
2332.58 0.509291
2333.06 0.758936
2333.30 0.964876
2333.54 1.27283
2333.79 1.76362
2333.91 2.12653
2334.03 2.61231
2334.15 3.29593
2334.27 4.29187
2334.39 5.82234
2334.45 6.90477
2334.51 8.31872
2334.57 10.2494
2334.63 12.8778
2334.69 16.7166
2334.75 22.3875
2334.81 31.5455
2334.87 46.8307
2334.90 58.5535
2334.93 74.6084
2334.96 96.8148
2334.99 127.289
2335.05 203.164
2335.10 253.776
2335.15 203.588
2335.21 127.621
2335.25 89.6020
2335.29 65.0312
2335.32 48.6453
2335.36 37.4564
2335.44 23.7659
2335.51 16.3691
2335.59 11.8755
2335.67 9.02647
2335.82 5.70037
2335.97 3.92885
2336.13 2.87812
2336.43 1.75001
2336.74 1.19182
2337.04 0.877659
2337.66 0.560863
2338.27 0.420432
2338.88 0.356390
2340.10 0.344766
2340.72 0.385770
2341.33 0.468009
2341.94 0.618101
2342.55 0.901333
2342.86 1.14122
2343.16 1.50506
2343.47 2.09229
2343.62 2.53038
2343.77 3.12637
2343.93 3.96524
2344.00 4.52272
2344.08 5.19733
2344.16 6.04747
2344.23 7.10818
2344.31 8.49269
2344.39 10.2918
2344.46 12.7545
2344.54 16.1382
2344.62 21.0862
2344.69 28.4342
2344.77 40.1882
2344.85 59.3855
2344.92 91.7907
2345.00 141.809
2345.05 177.468
2345.10 192.222
2345.15 174.295
2345.20 138.515
2345.26 97.6888
2345.33 68.4523
2345.39 49.1770
2345.45 36.4790
2345.57 21.9204
2345.69 14.4936
2345.81 10.2138
2345.93 7.58425
2346.18 4.63464
2346.42 3.12037
2346.66 2.24380
2346.91 1.69198
2347.15 1.32247
2347.63 0.873928
2348.12 0.622399
2348.61 0.467302
2349.09 0.364920
2350.06 0.242344
2351.04 0.174550
2352.01 0.133276
2352.98 0.106537
2354.92 0.0767331
2356.87 0.0678250
2357.84 0.0747659
2358.33 0.0853049
2358.81 0.106943
2359.30 0.155762
2359.54 0.205007
2359.78 0.294455
2360.03 0.481773
2360.15 0.664086
2360.27 0.982331
2360.39 1.62729
2360.45 2.22777
2360.51 3.21910
2360.57 5.10281
2360.61 6.76179
2360.64 9.26002
2360.67 13.5740
2360.70 21.1928
2360.71 27.4444
2360.73 36.5552
2360.74 50.1391
2360.75 59.9681
2360.76 71.3729
2360.77 90.4058
2360.78 113.407
2360.80 142.141
2360.81 133.395
2360.82 112.874
2360.84 70.7934
2360.86 47.7284
2360.88 33.5989
2360.90 24.5589
2360.91 18.5824
2360.95 11.4295
2360.98 7.76260
2361.02 5.55041
2361.05 4.19264
2361.12 2.61639
2361.19 1.78880
2361.26 1.30215
2361.39 0.785445
2361.53 0.527864
2361.67 0.383026
2361.94 0.232703
2362.22 0.160461
2362.49 0.120134
2363.04 0.0787468
2363.60 0.0587009
2364.15 0.0473111
2365.25 0.0350971
2367.45 0.0247243
2369.65 0.0199614
2374.05 0.0153040
2378.45 0.0131853
2382.85 0.0124616
2387.26 0.0133281
2389.46 0.0150944
2391.66 0.0199686
2392.76 0.0263787
2393.86 0.0437101
2394.41 0.0670967
2394.96 0.131285
2395.23 0.217496
2395.51 0.449544
2395.65 0.752489
2395.72 1.03824
2395.78 1.51814
2395.85 2.45006
2395.89 3.28958
2395.92 4.59204
2395.96 6.91858
2395.99 11.2886
2396.01 15.0957
2396.03 20.9766
2396.04 30.4186
2396.05 37.6354
2396.06 46.0901
2396.07 59.7222
2396.08 74.2310
2396.10 92.1049
2396.12 74.1546
2396.14 46.0300
2396.16 29.6897
2396.18 19.7121
2396.20 13.7945
2396.22 10.2618
2396.25 6.17427
2396.29 4.09565
2396.33 2.88314
2396.36 2.15318
2396.44 1.33179
2396.51 0.901568
2396.59 0.654736
2396.74 0.393051
2397.03 0.192097
2397.33 0.118252
2397.92 0.0644749
2398.52 0.0463105
2399.71 0.0365532
2400.90 0.0396997
2402.09 0.0546209
2402.68 0.0709047
2403.27 0.101134
2403.87 0.165909
2404.17 0.229863
2404.46 0.345131
2404.76 0.585731
2404.91 0.819743
2405.06 1.22968
2405.21 2.06265
2405.28 2.83512
2405.35 4.13982
2405.43 6.64579
2405.47 8.80317
2405.50 12.1847
2405.52 14.7132
2405.54 17.8855
2405.56 22.4377
2405.58 28.4647
2405.60 37.6586
2405.61 50.6561
2405.62 60.5780
2405.63 71.7623
2405.64 85.6043
2405.65 103.837
2405.66 132.990
2405.68 165.174
2405.70 207.133
2405.71 193.599
2405.73 164.769
2405.75 103.311
2405.77 75.8315
2405.78 56.1729
2405.81 33.2662
2405.85 21.5737
2405.88 14.9987
2405.91 10.9875
2405.94 8.37780
2406.00 5.35170
2406.07 3.68742
2406.13 2.70555
2406.26 1.62911
2406.39 1.08617
2406.51 0.779140
2406.64 0.587483
2406.77 0.459927
2407.02 0.305671
2407.28 0.220248
2407.53 0.167925
2407.78 0.133629
2408.29 0.0929862
2408.80 0.0710320
2409.82 0.0499218
2410.84 0.0414544
2411.85 0.0385265
2413.89 0.0419741
2415.92 0.0586661
2416.94 0.0767769
2417.96 0.110170
2418.46 0.138315
2418.97 0.181076
2419.48 0.250988
2419.99 0.376580
2420.24 0.481552
2420.50 0.639463
2420.75 0.894184
2421.01 1.34478
2421.13 1.71648
2421.26 2.26393
2421.39 3.12520
2421.52 4.59375
2421.58 5.76082
2421.64 7.40256
2421.71 9.90131
2421.74 11.6476
2421.77 13.8122
2421.80 16.7320
2421.83 20.6572
2421.87 26.0876
2421.90 33.5656
2421.93 44.9641
2421.96 62.6100
2421.99 90.9962
2422.02 136.390
2422.06 218.483
2422.10 271.996
2422.14 217.747
2422.18 135.635
2422.21 87.3568
2422.25 59.0807
2422.28 41.9184
2422.31 31.0219
2422.38 18.6263
2422.45 12.4008
2422.52 8.78292
2422.59 6.56419
2422.72 4.06079
2422.86 2.75224
2423.00 1.99036
2423.13 1.50876
2423.27 1.18735
2423.54 0.793277
2423.82 0.573294
2424.09 0.437893
2424.36 0.349831
2424.91 0.247303
2425.46 0.195320
2426.01 0.169598
2426.55 0.160850
2427.65 0.188393
2428.19 0.235118
2428.74 0.328769
2429.01 0.410206
2429.29 0.534885
2429.56 0.739519
2429.83 1.10430
2429.97 1.40585
2430.11 1.85591
2430.24 2.56990
2430.38 3.78902
2430.52 6.17032
2430.59 8.28330
2430.62 9.76847
2430.65 11.6868
2430.69 14.3071
2430.72 17.7759
2430.76 22.6341
2430.79 29.6958
2430.82 40.4205
2430.84 47.9327
2430.86 57.5409
2430.88 69.9825
2430.89 86.2527
2430.91 107.611
2430.93 136.498
2430.96 217.344
2431.00 271.284
2431.02 253.591
2431.04 215.423
2431.07 134.813
2431.11 88.6851
2431.14 60.9938
2431.17 43.3758
2431.20 32.4296
2431.26 19.7321
2431.32 13.2511
2431.39 9.43598
2431.45 7.05047
2431.58 4.37253
2431.70 2.96548
2431.83 2.14882
2431.95 1.62962
2432.08 1.27931
2432.33 0.849436
2432.58 0.607636
2432.83 0.457179
2433.08 0.357895
2433.58 0.238069
2434.08 0.171552
2434.58 0.130661
2435.08 0.103678
2436.09 0.0712617
2437.09 0.0532112
2439.09 0.0347040
2441.10 0.0258753
2443.10 0.0210592
2447.11 0.0167100
2451.12 0.0160881
2455.13 0.0196237
2457.14 0.0255337
2458.14 0.0315153
2459.14 0.0424134
2460.14 0.0656089
2460.65 0.0885651
2461.15 0.130185
2461.65 0.218114
2461.90 0.304728
2462.15 0.459474
2462.40 0.781730
2462.52 1.09051
2462.65 1.63030
2462.78 2.71640
2462.84 3.72035
2462.90 5.36622
2462.96 8.45603
2462.99 11.0397
2463.03 14.9783
2463.04 17.8632
2463.06 21.6312
2463.07 26.6602
2463.09 33.0348
2463.10 42.4610
2463.12 54.9774
2463.14 74.2304
2463.15 101.343
2463.16 129.800
2463.18 161.229
2463.20 202.301
2463.21 189.148
2463.23 161.016
2463.25 100.972
2463.27 71.2915
2463.28 52.0375
2463.30 39.1023
2463.32 30.2140
2463.35 19.3648
2463.39 13.3622
2463.42 9.65516
2463.46 7.34285
2463.52 4.64535
2463.59 3.18188
2463.66 2.32454
2463.80 1.39694
2463.93 0.930607
2464.07 0.667202
2464.21 0.502012
2464.34 0.393120
2464.62 0.261527
2464.89 0.188464
2465.16 0.143800
2465.43 0.114566
2465.98 0.0800209
2466.53 0.0613377
2467.62 0.0433865
2468.71 0.0361381
2469.80 0.0335431
2471.99 0.0360367
2474.17 0.0492567
2475.26 0.0637458
2476.36 0.0906286
2476.90 0.113415
2477.45 0.148174
2478.00 0.205100
2478.54 0.307985
2478.81 0.393888
2479.09 0.523902
2479.36 0.734350
2479.63 1.10833
2479.77 1.41662
2479.91 1.87196
2480.04 2.59734
2480.18 3.83365
2480.25 4.82929
2480.32 6.24282
2480.38 8.37560
2480.42 9.87231
2480.45 11.8028
2480.49 14.4354
2480.52 17.9132
2480.56 22.7711
2480.59 29.8084
2480.62 40.4474
2480.66 57.3260
2480.69 85.3919
2480.71 106.111
2480.73 133.081
2480.76 213.826
2480.80 265.804
2480.82 249.684
2480.84 211.352
2480.88 132.743
2480.91 83.2028
2480.95 55.4247
2480.98 38.9036
2481.02 28.5684
2481.09 17.0920
2481.16 11.2948
2481.23 7.99549
2481.30 5.94937
2481.44 3.65726
2481.58 2.47361
2481.72 1.78500
2481.86 1.34981
2482.00 1.05754
2482.28 0.701798
2482.56 0.501924
2482.84 0.378677
2483.12 0.297441
2483.68 0.200483
2484.24 0.147487
2485.36 0.0952515
2486.48 0.0725060
2487.60 0.0621852
2489.84 0.0597891
2492.08 0.0773757
2493.20 0.0988268
2494.32 0.139300
2494.88 0.173694
2495.44 0.226081
2496.00 0.311572
2496.56 0.465195
2496.84 0.592736
2497.12 0.784734
2497.40 1.09331
2497.68 1.63617
2497.82 2.07729
2497.96 2.72730
2498.10 3.74162
2498.17 4.47634
2498.24 5.45088
2498.31 6.78103
2498.38 8.66083
2498.45 11.4344
2498.49 13.3407
2498.52 15.7556
2498.56 18.8716
2498.59 22.9771
2498.63 28.5171
2498.66 36.1968
2498.70 47.1628
2498.73 63.3028
2498.77 87.6452
2498.80 124.352
2498.85 198.392
2498.90 247.518
2498.95 198.379
2499.00 124.341
2499.04 83.5059
2499.08 58.5080
2499.12 42.2783
2499.16 31.9195
2499.24 19.7090
2499.31 13.2805
2499.39 9.52552
2499.47 7.15558
2499.63 4.45678
2499.79 3.04182
2499.95 2.21083
2500.10 1.68240
2500.26 1.32789
2500.58 0.891825
2500.89 0.646681
2501.21 0.496077
2501.52 0.397935
2502.16 0.283579
2502.79 0.226014
2504.05 0.189559
2505.31 0.225350
2505.95 0.282616
2506.58 0.396260
2506.89 0.494365
2507.21 0.644618
2507.52 0.889343
2507.84 1.32310
2508.00 1.67932
2508.16 2.20783
2508.31 3.03950
2508.39 3.64650
2508.47 4.45696
2508.55 5.57211
2508.63 7.16424
2508.71 9.54490
2508.75 11.2250
2508.79 13.3219
2508.83 16.1330
2508.87 19.7997
2508.91 24.9736
2508.95 32.1337
2508.99 42.9477
2509.02 59.0722
2509.06 84.4418
2509.10 124.571
2509.15 198.508
2509.20 246.499
2509.25 196.631
2509.30 123.095
2509.36 69.8555
2509.41 42.8864
2509.47 28.4691
2509.53 20.2186
2509.59 14.9669
2509.64 11.5495
2509.76 7.42804
2509.87 5.16799
2509.99 3.80073
2510.22 2.30378
2510.45 1.54685
2510.68 1.11218
2510.91 0.839826
2511.14 0.657972
2511.60 0.437725
2512.06 0.314386
2512.52 0.238336
2512.98 0.188095
2513.90 0.127756
2514.82 0.0942502
2516.66 0.0601054
2518.50 0.0439632
2520.34 0.0352583
2524.02 0.0276017
2527.70 0.0269464
2529.54 0.0291823
2531.38 0.0343576
2533.23 0.0458745
2534.15 0.0570854
2535.07 0.0768953
2535.99 0.117582
2536.45 0.156910
2536.91 0.227012
2537.14 0.285098
2537.37 0.372684
2537.60 0.514170
2537.83 0.765689
2538.06 1.28136
2538.17 1.77200
2538.29 2.62118
2538.40 4.28475
2538.46 5.80528
2538.52 8.24817
2538.54 10.1248
2538.57 12.7120
2538.60 16.4079
2538.63 21.6876
2538.65 25.5873
2538.66 30.2074
2538.67 36.5978
2538.69 44.4202
2538.70 55.6091
2538.72 69.7354
2538.73 88.7903
2538.75 114.482
2538.76 146.938
2538.77 184.268
2538.80 228.895
2538.81 215.033
2538.83 181.849
2538.86 114.466
2538.88 77.3326
2538.90 53.9884
2538.92 39.2038
2538.94 29.5129
2538.99 18.2514
2539.03 12.4159
2539.07 8.90588
2539.12 6.73329
2539.20 4.21484
2539.29 2.89006
2539.38 2.11050
2539.47 1.61424
2539.55 1.27944
2539.73 0.869128
2539.90 0.640713
2540.25 0.410906
2540.60 0.308885
2540.95 0.262334
2541.64 0.252609
2541.99 0.281009
2542.34 0.338217
2542.69 0.443021
2543.04 0.640319
2543.21 0.807905
2543.39 1.06025
2543.56 1.46624
2543.73 2.17837
2543.91 3.59817
2544.00 4.90456
2544.04 5.85580
2544.08 7.08012
2544.13 8.77566
2544.17 11.0908
2544.21 14.5368
2544.26 19.6781
2544.28 23.3970
2544.30 28.2309
2544.32 34.6452
2544.34 42.8925
2544.37 54.8098
2544.39 71.7419
2544.41 96.1844
2544.43 129.573
2544.47 206.999
2544.50 258.374
2544.52 242.082
2544.54 206.296
2544.57 128.838
2544.59 91.9181
2544.62 67.0840
2544.67 39.3288
2544.71 25.1495
2544.76 17.4498
2544.81 12.6909
2544.86 9.67844
2544.95 6.12143
2545.05 4.21439
2545.14 3.07764
2545.33 1.85416
2545.52 1.23894
2545.71 0.888564
2545.90 0.670246
2546.09 0.525680
2546.47 0.350213
2546.85 0.252536
2547.23 0.192271
2547.61 0.152625
2548.37 0.105060
2549.12 0.0786790
2550.64 0.0519224
2552.16 0.0393937
2553.68 0.0327081
2556.71 0.0268768
2559.75 0.0260477
2562.79 0.0298978
2564.30 0.0359331
2565.06 0.0418321
2565.82 0.0523608
2566.58 0.0743442
2566.96 0.0959323
2567.34 0.134726
2567.72 0.216426
2567.91 0.296413
2568.10 0.438425
2568.29 0.732425
2568.38 1.01355
2568.48 1.49552
2568.57 2.45197
2568.62 3.33268
2568.67 4.74989
2568.72 7.36975
2568.74 9.55813
2568.76 12.6818
2568.79 17.8069
2568.81 26.0121
2568.82 32.4958
2568.83 41.3523
2568.85 53.5547
2568.86 68.7807
2568.87 87.8631
2568.88 109.881
2568.90 137.523
2568.91 129.482
2568.92 110.067
2568.94 68.7697
2568.97 39.7490
2568.99 24.7129
2569.02 16.5426
2569.04 11.7512
2569.07 8.74219
2569.09 6.74321
2569.14 4.38495
2569.19 3.05472
2569.24 2.26270
2569.34 1.38101
2569.44 0.933701
2569.54 0.676418
2569.74 0.407455
2569.94 0.276795
2570.13 0.204399
2570.53 0.130997
2570.93 0.0967126
2571.32 0.0784215
2572.12 0.0614527
2573.70 0.0545941
2575.29 0.0622694
2576.87 0.0858344
2577.67 0.110203
2578.46 0.154549
2578.85 0.191826
2579.25 0.248333
2579.65 0.340623
2580.04 0.505914
2580.24 0.643848
2580.44 0.850506
2580.64 1.18233
2580.84 1.76520
2581.03 2.93366
2581.13 4.01663
2581.23 5.83556
2581.28 7.26320
2581.33 9.23426
2581.38 12.1918
2581.43 16.6830
2581.46 19.9690
2581.48 24.2929
2581.51 30.1178
2581.53 37.7969
2581.55 49.1011
2581.58 65.6545
2581.60 90.4687
2581.63 126.938
2581.66 202.547
2581.70 255.156
2581.72 240.597
2581.74 204.462
2581.77 128.252
2581.81 77.1200
2581.85 49.0112
2581.89 33.2786
2581.92 23.8665
2581.96 17.8735
2582.00 13.8523
2582.07 9.03788
2582.15 6.32050
2582.23 4.68260
2582.38 2.85860
2582.53 1.92467
2582.68 1.39044
2582.83 1.05475
2582.98 0.830315
2583.28 0.557879
2583.59 0.406425
2583.89 0.313390
2584.19 0.252791
2584.80 0.181651
2585.40 0.144309
2586.61 0.113151
2587.82 0.112607
2588.43 0.123946
2589.03 0.149670
2589.64 0.208532
2589.94 0.267893
2590.24 0.375112
2590.54 0.600396
2590.70 0.818273
2590.85 1.20274
2591.00 1.97872
2591.07 2.70920
2591.15 3.92939
2591.22 6.27011
2591.26 8.31658
2591.30 11.4365
2591.32 13.7564
2591.34 16.8398
2591.36 21.0452
2591.38 26.9533
2591.39 35.5334
2591.41 48.4352
2591.43 68.4156
2591.45 97.6546
2591.46 125.994
2591.48 156.139
2591.50 195.973
2591.51 183.965
2591.53 157.316
2591.55 98.3773
2591.57 63.9950
2591.59 44.0962
2591.62 31.2644
2591.64 23.4215
2591.68 14.2537
2591.72 9.60753
2591.76 6.84983
2591.81 5.16000
2591.89 3.21787
2591.98 2.19572
2592.06 1.60574
2592.23 0.978192
2592.40 0.668117
2592.57 0.494592
2592.91 0.316289
2593.26 0.232063
2593.60 0.186242
2594.28 0.142044
2595.64 0.116910
2597.00 0.118618
2598.37 0.134426
2599.73 0.170912
2600.41 0.209905
2601.09 0.300625
2601.43 0.412966
2601.60 0.519598
2601.77 0.705249
2601.95 1.08347
2602.03 1.43838
2602.12 2.04743
2602.20 3.22680
2602.24 4.29632
2602.29 5.98366
2602.33 9.03304
2602.35 11.4488
2602.37 14.9600
2602.39 20.6144
2602.41 29.3519
2602.42 36.0796
2602.43 44.1096
2602.45 55.7780
2602.46 70.6074
2602.48 113.392
2602.50 142.046
2602.51 134.361
2602.52 114.857
2602.54 71.5951
2602.56 47.6831
2602.58 32.6171
2602.60 23.3414
2602.62 17.3961
2602.66 10.6436
2602.70 7.23086
2602.73 5.19854
2602.77 3.95751
2602.85 2.52951
2602.92 1.77844
2603.00 1.34697
2603.15 0.890749
2603.30 0.668368
2603.45 0.546920
2603.75 0.429352
2604.35 0.364727
2604.95 0.370907
2605.55 0.406627
2606.15 0.464628
2606.75 0.547225
2607.06 0.600136
2607.36 0.662541
2607.66 0.737021
2607.96 0.826295
2608.26 0.934301
2608.56 1.06595
2608.86 1.22963
2609.16 1.43493
2609.46 1.69885
2609.76 2.04312
2610.06 2.50676
2610.36 3.14852
2610.66 4.07008
2610.96 5.44873
2611.26 7.64320
2611.56 11.3531
2611.72 14.2282
2611.87 18.1547
2612.02 23.6055
2612.17 31.1206
2612.43 49.8227
2612.70 62.5011
2612.97 50.2585
2613.24 31.4607
2613.53 18.6177
2613.82 11.7863
2614.11 7.98061
2614.40 5.72454
2614.69 4.28875
2614.98 3.33176
2615.56 2.17831
2616.14 1.53989
2616.72 1.15297
2617.88 0.732093
2619.04 0.524929
2620.21 0.414101
2622.53 0.329970
2624.85 0.365125
2626.01 0.440657
2627.17 0.593628
2628.34 0.921659
2628.63 1.05922
2628.92 1.23450
2629.21 1.46301
2629.50 1.76806
2629.64 1.96165
2629.79 2.18893
2629.93 2.45996
2630.08 2.78652
2630.22 3.18461
2630.37 3.67633
2630.51 4.29282
2630.66 5.07903
2630.80 6.10956
2630.95 7.47226
2631.09 9.33264
2631.24 11.9490
2631.38 15.7528
2631.53 21.4781
2631.67 30.3486
2631.82 44.0989
2632.01 70.1341
2632.20 85.6517
2632.39 67.0827
2632.58 41.7105
2632.72 29.5055
2632.85 21.4131
2632.99 16.0300
2633.12 12.3581
2633.39 7.90867
2633.66 5.46392
2633.93 3.99504
2634.20 3.04975
2634.74 1.95416
2635.28 1.37229
2635.82 1.03081
2636.90 0.681856
2637.98 0.555545
2638.52 0.557264
2639.06 0.623069
2639.60 0.823040
2639.87 1.03837
2640.14 1.43434
2640.41 2.25692
2640.55 3.03847
2640.68 4.38011
2640.82 6.96420
2640.88 9.27511
2640.95 12.9144
2640.98 15.6414
2641.02 19.3212
2641.05 24.4342
2641.09 31.5266
2641.10 36.3862
2641.12 42.3843
2641.14 49.8678
2641.15 58.6835
2641.17 70.5168
2641.19 85.6594
2641.20 105.031
2641.22 128.060
2641.24 164.970
2641.26 204.344
2641.30 247.611
2641.32 228.279
2641.34 191.847
2641.38 119.679
2641.42 72.6087
2641.46 47.3043
2641.51 32.4671
2641.55 23.6551
2641.59 17.8266
2641.63 13.9703
2641.71 9.23129
2641.80 6.53046
2641.88 4.88787
2642.04 3.04514
2642.21 2.09353
2642.37 1.54467
2642.70 0.963305
2643.03 0.675903
2643.36 0.512852
2644.02 0.341584
2644.69 0.256347
2645.35 0.206958
2646.67 0.153603
2649.31 0.112556
2651.95 0.105562
2654.59 0.126699
2655.91 0.156226
2657.24 0.214452
2657.90 0.264771
2658.56 0.341926
2659.22 0.468260
2659.88 0.693955
2660.21 0.880472
2660.54 1.15784
2660.87 1.59715
2661.20 2.35285
2661.36 2.95719
2661.53 3.82345
2661.61 4.41084
2661.69 5.13441
2661.78 6.06314
2661.86 7.24921
2661.94 8.83672
2662.02 10.9657
2662.11 13.9845
2662.19 18.3181
2662.27 24.9769
2662.35 35.4565
2662.44 53.1714
2662.52 82.7951
2662.61 131.825
2662.70 160.665
2662.79 125.573
2662.88 78.3391
2662.96 52.6120
2663.03 36.7764
2663.10 26.7479
2663.17 20.1661
2663.32 12.4632
2663.47 8.42581
2663.61 6.04553
2663.76 4.55094
2664.05 2.84255
2664.35 1.94092
2664.64 1.41054
2664.93 1.07268
2665.22 0.845027
2665.81 0.564950
2666.39 0.406582
2666.98 0.308049
2667.57 0.242749
2668.74 0.163949
2669.91 0.119926
2672.25 0.0747531
2674.59 0.0529757
2676.93 0.0407352
2681.61 0.0282311
2686.30 0.0230039
2690.98 0.0230282
2693.32 0.0269458
2694.49 0.0315660
2695.66 0.0404482
2696.84 0.0599302
2697.42 0.0794955
2698.01 0.115130
2698.30 0.145162
2698.59 0.190949
2698.89 0.265775
2699.18 0.399934
2699.32 0.512236
2699.47 0.680332
2699.62 0.950337
2699.76 1.42471
2699.84 1.81586
2699.91 2.38516
2699.98 3.27212
2700.06 4.76319
2700.13 7.55273
2700.17 9.99357
2700.20 13.6772
2700.22 16.4774
2700.24 19.9737
2700.26 24.6545
2700.27 31.0807
2700.29 40.7551
2700.31 54.1918
2700.32 63.1654
2700.33 74.1277
2700.34 87.4933
2700.35 103.832
2700.36 134.458
2700.37 166.910
2700.40 205.945
2700.41 191.783
2700.43 162.464
2700.45 102.109
2700.48 61.2385
2700.51 39.6790
2700.54 26.9785
2700.56 19.5801
2700.59 14.6512
2700.62 11.4443
2700.67 7.51030
2700.73 5.26216
2700.78 3.88755
2700.89 2.37750
2701.00 1.59826
2701.11 1.15212
2701.22 0.870867
2701.33 0.682313
2701.55 0.452428
2701.77 0.324188
2701.98 0.244845
2702.20 0.192821
2702.64 0.130622
2703.08 0.0964734
2703.95 0.0625551
2704.83 0.0474071
2705.70 0.0400910
2707.45 0.0366099
2709.20 0.0446056
2710.07 0.0556222
2710.94 0.0772252
2711.38 0.0959070
2711.82 0.124739
2712.26 0.172302
2712.69 0.258700
2712.91 0.331224
2713.13 0.440639
2713.35 0.618797
2713.57 0.934248
2713.68 1.19589
2713.79 1.58222
2713.89 2.19289
2714.00 3.24103
2714.11 5.29283
2714.17 7.13192
2714.22 10.0399
2714.25 12.2898
2714.28 15.2405
2714.30 19.3577
2714.33 25.3146
2714.35 29.4909
2714.36 34.7232
2714.37 41.3666
2714.39 49.2285
2714.40 60.1563
2714.41 73.3615
2714.43 91.9414
2714.44 115.405
2714.46 146.567
2714.47 183.495
2714.50 228.565
2714.52 213.966
2714.53 180.853
2714.56 113.152
2714.58 83.2518
2714.60 62.8409
2714.63 38.2827
2714.67 25.0291
2714.71 17.6495
2714.74 12.9597
2714.78 9.96500
2714.85 6.39807
2714.92 4.42466
2715.00 3.25188
2715.14 1.96139
2715.29 1.30790
2715.43 0.936775
2715.58 0.704594
2715.72 0.549791
2716.01 0.362230
2716.30 0.257972
2716.59 0.193888
2716.88 0.151696
2717.46 0.101266
2718.04 0.0734924
2718.62 0.0565161
2719.20 0.0454088
2720.37 0.0321710
2721.53 0.0248889
2723.85 0.0175658
2726.17 0.0142145
2728.49 0.0125555
2733.14 0.0118144
2737.78 0.0140785
2740.11 0.0171989
2742.43 0.0233824
2743.59 0.0287779
2744.75 0.0371505
2745.91 0.0510624
2747.07 0.0765712
2747.65 0.0981382
2748.23 0.131049
2748.82 0.185100
2749.40 0.282707
2749.69 0.364538
2749.98 0.488014
2750.27 0.687764
2750.56 1.04233
2750.70 1.33537
2750.85 1.76846
2750.99 2.45220
2751.14 3.62369
2751.28 5.88086
2751.36 7.90204
2751.39 9.29989
2751.43 11.0974
2751.46 13.5350
2751.50 16.7445
2751.54 21.2017
2751.57 27.6108
2751.61 37.5372
2751.65 52.7657
2751.66 63.6519
2751.68 77.6927
2751.70 95.8395
2751.72 119.930
2751.76 191.768
2751.80 237.078
2751.84 188.392
2751.88 117.287
2751.91 80.5539
2751.95 56.7723
2751.98 41.5192
2752.01 31.6799
2752.07 19.6925
2752.14 13.3946
2752.20 9.62006
2752.26 7.26007
2752.39 4.52926
2752.52 3.08870
2752.64 2.23906
2752.77 1.69693
2752.90 1.33263
2753.15 0.881841
2753.41 0.626683
2753.66 0.468439
2753.91 0.363946
2754.42 0.237913
2754.93 0.168138
2755.43 0.125432
2755.94 0.0974052
2756.96 0.0640385
2757.97 0.0457126
2758.99 0.0345483
2760.00 0.0272518
2760.00 3.91359
3000.00 3.68751
3500.00 3.30856
4000.00 3.01759
5000.00 2.59886
6000.00 2.31075
7200.00 2.06347
8500.00 1.86843
10000.0 1.70090
12500.0 1.50199
13000.0 1.47021
15000.0 1.36110
17000.0 1.27359
20000.0 1.16933
23000.0 1.08694
25000.0 1.04055
30000.0 0.945619
33000.0 0.899243
35000.0 0.871618
40000.0 0.811751
43000.0 0.780918
53000.0 0.697735
63000.0 0.635622
73000.0 0.587421
77000.0 0.572052
80000.0 0.560526
83000.0 0.548999
90000.0 0.527134
93000.0 0.517763
100000 0.499718
103000 0.491984
113000 0.470455
120000 0.457750
123000 0.452306
123000 0.452081
123877 0.451067
123877 0.451066
150000 0.420825
200000 0.369361
250000 0.335187
300000 0.316778
350000 0.297136
373431 0.294180
373431 0.294179
400000 0.290827
495000 0.290437
495000 0.290437
500000 0.290416
600000 0.297290
650000 0.300537
680000 0.302486
685120 0.302818
685121 0.302818
700000 0.303785
722363 0.305237
722363 0.305237
800000 0.310279
820000 0.310748
820834 0.310767
820834 0.310767
850000 0.311451
900000 0.312623
1.00000E+06 0.307674
1.00279E+06 0.307481
1.00279E+06 0.307480
1.05000E+06 0.304205
1.05446E+06 0.303895
1.05446E+06 0.303895
1.07000E+06 0.302817
1.10000E+06 0.300735
1.13518E+06 0.296725
1.13518E+06 0.296724
1.14332E+06 0.295797
1.14333E+06 0.295796
1.15000E+06 0.295035
1.15197E+06 0.294810
1.15197E+06 0.294810
1.17000E+06 0.292755
1.18984E+06 0.290494
1.18984E+06 0.290494
1.19377E+06 0.290045
1.20000E+06 0.289335
1.22000E+06 0.279550
1.24108E+06 0.269236
1.24108E+06 0.269236
1.24942E+06 0.265156
1.24943E+06 0.265153
1.25000E+06 0.264872
1.25984E+06 0.260058
1.25984E+06 0.260056
1.26239E+06 0.258810
1.26615E+06 0.256971
1.27000E+06 0.255087
1.27207E+06 0.254074
1.27207E+06 0.254073
1.27496E+06 0.252660
1.27713E+06 0.251598
1.28537E+06 0.247568
1.28537E+06 0.247567
1.29438E+06 0.243159
1.29529E+06 0.242713
1.30000E+06 0.240409
1.30267E+06 0.239399
1.30267E+06 0.239398
1.30416E+06 0.238835
1.30416E+06 0.238834
1.30429E+06 0.238786
1.30429E+06 0.238785
1.31000E+06 0.236626
1.31714E+06 0.233924
1.32000E+06 0.232842
1.32204E+06 0.232071
1.32430E+06 0.231216
1.32944E+06 0.229271
1.33000E+06 0.229059
1.33137E+06 0.228541
1.34000E+06 0.225276
1.34002E+06 0.225268
1.35000E+06 0.221493
1.35727E+06 0.218742
1.36851E+06 0.214490
1.37000E+06 0.213926
1.37040E+06 0.213775
1.37395E+06 0.212433
1.37395E+06 0.212433
1.37485E+06 0.212091
1.37485E+06 0.212090
1.37570E+06 0.211769
1.37577E+06 0.211743
1.38003E+06 0.210131
1.38732E+06 0.207373
1.39118E+06 0.205913
1.39893E+06 0.202981
1.40000E+06 0.202576
1.40669E+06 0.201115
1.40669E+06 0.201114
1.40925E+06 0.200555
1.41330E+06 0.199670
1.41330E+06 0.199669
1.41469E+06 0.199366
1.42000E+06 0.198205
1.42370E+06 0.197397
1.42370E+06 0.197397
1.42507E+06 0.197098
1.42617E+06 0.196857
1.42745E+06 0.196577
1.42745E+06 0.196577
1.43059E+06 0.195891
1.43463E+06 0.195008
1.44194E+06 0.193411
1.44194E+06 0.193411
1.44483E+06 0.192779
1.44725E+06 0.192251
1.45000E+06 0.191650
1.45065E+06 0.191508
1.45365E+06 0.190852
1.46841E+06 0.187626
1.47000E+06 0.187279
1.47229E+06 0.186779
1.47415E+06 0.186372
1.47464E+06 0.186265
1.47498E+06 0.186191
1.47730E+06 0.185684
1.47844E+06 0.185435
1.48260E+06 0.184525
1.50000E+06 0.180723
1.60000E+06 0.164045
1.70000E+06 0.147366
1.80000E+06 0.134212
1.90000E+06 0.121059
2.00000E+06 0.107905
2.20000E+06 0.0891688
2.50000E+06 0.0687026
2.70000E+06 0.0607660
3.00000E+06 0.0488610
3.20000E+06 0.0411497
3.50000E+06 0.0333567
3.70000E+06 0.0281614
4.00000E+06 0.0223233
4.50000E+06 0.0150864
5.00000E+06 0.0104363
5.50000E+06 0.00670722
6.00000E+06 0.00462003
6.50000E+06 0.00321462
7.00000E+06 0.00220162
7.11130E+06 0.00208296
7.50000E+06 0.00166853
7.67799E+06 0.00154741
7.80000E+06 0.00146438
8.00000E+06 0.00132828
8.50000E+06 0.00114008
8.95228E+06 0.00102388
8.95228E+06 0.00102388
9.00000E+06 0.00101162
9.50000E+06 0.000969086
1.00000E+07 0.000990372
1.02000E+07 0.000998810
1.05000E+07 0.00101840
1.10000E+07 0.00104358
1.15000E+07 0.00104806
1.20000E+07 0.00105903
1.25000E+07 0.00105281
1.30000E+07 0.00101737
1.35000E+07 0.000964282
1.40000E+07 0.000923010
1.45000E+07 0.000866143
1.50000E+07 0.000798419
1.52402E+07 0.000772163
1.52402E+07 0.000772160
1.55000E+07 0.000743764
1.60000E+07 0.000658416
1.62840E+07 0.000613415
1.65000E+07 0.000579189
1.70000E+07 0.000502303
1.80000E+07 0.000363396
1.82000E+07 0.000335615
1.89000E+07 0.000276799
1.90000E+07 0.000269964
1.91000E+07 0.000263129
1.92000E+07 0.000256294
2.00000E+07 0.000201614