Gd-158(n,tot) ENDF/B-VII.1
Energy(eV) XS(b)
1.00000E-05 116.296
1.25000E-05 104.614
1.50000E-05 95.9899
2.00000E-05 83.8850
2.75000E-05 72.3672
3.50000E-05 64.7871
4.25000E-05 59.3149
5.00000E-05 55.1257
6.25000E-05 49.9011
7.50000E-05 46.0445
0.000100000 40.6310
0.000125000 36.9367
0.000150000 34.2097
0.000200000 30.3818
0.000275000 26.7396
0.000350000 24.3426
0.000425000 22.6121
0.000500000 21.2874
0.000625000 19.6353
0.000750000 18.4157
0.00100000 16.7039
0.00125000 15.5357
0.00150000 14.6733
0.00200000 13.4629
0.00275000 12.3112
0.00350000 11.5533
0.00425000 11.0061
0.00500000 10.5872
0.00625000 10.0649
0.00750000 9.67927
0.0100000 9.13803
0.0125000 8.76870
0.0150000 8.49607
0.0200000 8.11341
0.0253000 7.83913
0.0314750 7.61166
0.0376500 7.44274
0.0500000 7.20436
0.0625000 7.03921
0.0750000 6.91729
0.100000 6.74610
0.125000 6.62922
0.150000 6.54288
0.200000 6.42153
0.275000 6.30575
0.350000 6.22923
0.500000 6.13095
0.750000 6.03696
1.00000 5.97937
1.50000 5.90775
2.00000 5.86165
2.75000 5.81301
3.50000 5.77639
5.00000 5.71950
7.50000 5.64417
10.0000 5.57768
12.5000 5.51769
13.7500 5.49405
15.0000 5.48246
16.2500 5.50063
17.5000 5.59902
18.1250 5.72110
18.7500 5.95229
19.3750 6.41212
20.0000 7.41864
20.2811 8.26717
20.5622 9.62311
20.8432 11.9400
21.1243 16.2928
21.2648 20.0172
21.4054 25.7391
21.5459 35.1164
21.6865 51.9185
21.7216 58.1912
21.7567 65.7392
21.7743 70.1025
21.7919 74.9315
21.8094 80.2936
21.8270 86.2656
21.8446 92.9496
21.8621 100.457
21.8797 108.928
21.8973 118.523
21.9148 129.463
21.9324 141.997
21.9675 173.205
22.0027 215.899
22.0378 276.298
22.0729 365.463
22.1081 504.164
22.1432 735.153
22.1608 911.509
22.1783 1154.58
22.1959 1499.41
22.2135 2001.93
22.2310 2751.38
22.2486 3866.73
22.2743 6223.40
22.3000 7827.89
22.3257 6303.50
22.3514 3966.86
22.3784 2402.67
22.4054 1547.79
22.4324 1063.87
22.4594 771.635
22.4864 584.092
22.5134 457.405
22.5674 302.996
22.6214 216.405
22.6754 163.126
22.7834 103.703
22.8914 73.0054
22.9994 55.0645
23.1074 43.6464
23.2154 35.9133
23.4314 26.3728
23.6474 20.9013
23.8634 17.4530
24.0794 15.1284
24.5115 12.2632
24.9435 10.6126
25.3755 9.56389
25.8075 8.84964
26.6715 7.95478
27.5355 7.42649
28.3995 7.08230
29.2636 6.84193
30.9916 6.52984
32.7196 6.33624
34.4477 6.20381
36.1757 6.10676
39.6318 5.97187
43.0879 5.88002
50.0000 5.75648
56.2500 5.67816
62.5000 5.61555
75.0000 5.51366
87.5000 5.42290
90.6250 5.39887
93.7500 5.37217
95.3125 5.35703
96.8750 5.34070
97.6563 5.33321
98.4375 5.32980
98.8281 5.33314
99.2188 5.34581
99.6094 5.38210
99.8047 5.42091
100.000 5.48989
100.132 5.56836
100.264 5.69470
100.396 5.91092
100.528 6.31464
100.594 6.65628
100.660 7.17406
100.726 8.00512
100.792 9.44645
100.858 12.2369
100.891 14.7048
100.924 18.6217
100.957 25.3094
100.990 37.8804
101.007 48.5545
101.023 64.5880
101.040 89.3608
101.056 127.737
101.067 162.714
101.078 202.863
101.100 254.819
101.122 208.515
101.144 134.838
101.168 82.9221
101.192 55.0546
101.217 39.3934
101.241 30.0444
101.265 24.0446
101.289 20.0172
101.337 15.1068
101.385 12.3413
101.434 10.6338
101.530 8.71805
101.627 7.71608
101.723 7.12392
101.820 6.74195
101.916 6.48030
102.110 6.15159
102.303 5.95839
102.496 5.83370
102.689 5.74767
103.075 5.63803
103.461 5.57191
103.847 5.52791
104.233 5.49653
105.006 5.45444
105.778 5.42701
107.323 5.39187
108.867 5.36863
110.412 5.35082
113.501 5.32278
119.680 5.27834
125.858 5.23914
150.572 5.08834
175.286 4.91665
187.643 4.81085
200.000 4.67827
210.655 4.52268
215.982 4.41785
221.310 4.28002
223.973 4.19145
226.637 4.08278
229.301 3.94482
231.964 3.76248
233.296 3.64749
234.628 3.51178
235.960 3.35299
237.292 3.17856
237.958 3.09858
238.624 3.04775
239.290 3.08050
239.955 3.34911
240.288 3.69681
240.621 4.35499
240.954 5.63623
241.121 6.71404
241.162 7.05358
241.204 7.42820
241.246 7.84231
241.287 8.30102
241.329 8.81157
241.371 9.37842
241.412 10.0108
241.454 10.7183
241.495 11.5142
241.537 12.4079
241.620 14.5616
241.704 17.3564
241.787 21.0407
241.870 26.0089
241.953 32.8851
242.036 42.7240
242.120 57.3380
242.203 80.2324
242.286 118.485
242.328 147.911
242.369 188.682
242.411 247.259
242.453 334.968
242.494 473.019
242.536 703.479
242.577 1112.84
242.619 1864.37
242.660 3034.01
242.700 3867.49
242.741 3156.52
242.782 2008.11
242.816 1364.95
242.849 961.169
242.883 705.599
242.916 538.276
242.983 342.485
243.051 238.225
243.118 176.460
243.185 137.012
243.319 91.1837
243.453 66.4439
243.588 51.5088
243.722 41.7339
243.856 34.9615
244.125 26.3572
244.393 21.2439
244.662 17.9206
244.930 15.6175
245.467 12.6782
246.004 10.9102
246.541 9.74400
247.078 8.92307
248.152 7.85099
249.226 7.18573
250.300 6.73344
251.374 6.40557
253.522 5.95908
255.670 5.66445
257.817 5.45003
259.965 5.28170
264.261 5.01489
266.409 4.89509
268.557 4.77173
270.705 4.63163
271.779 4.54882
272.853 4.45282
273.390 4.39931
273.927 4.34363
274.464 4.29159
275.001 4.26358
275.269 4.27735
275.538 4.33688
275.806 4.49542
276.075 4.88859
276.209 5.27755
276.343 5.92766
276.477 7.07622
276.612 9.27198
276.746 14.0303
276.813 18.6572
276.847 22.0846
276.880 26.6762
276.897 29.5880
276.914 33.0355
276.931 37.1525
276.947 42.0836
276.964 48.1245
276.981 55.5728
276.998 64.8795
277.014 76.6048
277.031 91.8099
277.048 111.803
277.065 138.664
277.081 175.368
277.098 227.448
277.115 302.875
277.132 414.257
277.149 577.253
277.174 943.125
277.200 1204.32
277.213 1146.57
277.226 985.781
277.252 631.908
277.268 468.245
277.285 353.812
277.317 218.278
277.350 147.394
277.383 106.703
277.416 81.3591
277.449 64.6523
277.515 44.6242
277.581 33.4938
277.647 26.6641
277.778 18.9873
277.910 14.9524
278.042 12.5425
278.173 10.9728
278.305 9.88478
278.568 8.49530
278.832 7.66052
279.095 7.11056
279.359 6.72386
279.885 6.21888
280.412 5.90508
280.939 5.69093
281.466 5.53487
282.519 5.32029
283.573 5.17674
285.680 4.98836
287.787 4.86151
289.894 4.76340
294.107 4.60685
302.535 4.34376
310.963 4.06952
319.391 3.72055
323.605 3.48807
327.819 3.18554
329.926 2.99457
332.033 2.76624
334.140 2.49006
336.247 2.15951
337.301 1.97974
338.354 1.80881
339.408 1.69573
340.461 1.78983
340.988 2.04313
341.120 2.14711
341.251 2.27364
341.383 2.42709
341.515 2.61266
341.646 2.83723
341.778 3.10892
341.910 3.43806
342.041 3.83771
342.173 4.32459
342.305 4.92027
342.437 5.65296
342.568 6.55922
342.700 7.69049
342.832 9.11458
342.963 10.9265
343.095 13.2612
343.227 16.3146
343.358 20.3794
343.490 25.9067
343.622 33.6120
343.753 44.7164
343.885 61.3578
344.017 87.6019
344.148 131.833
344.280 213.719
344.346 282.741
344.412 386.673
344.478 551.981
344.543 830.759
344.609 1333.74
344.675 2277.05
344.738 3735.68
344.800 4800.95
344.863 3948.32
344.925 2529.33
344.988 1593.11
345.050 1059.50
345.113 747.555
345.175 554.464
345.238 428.079
345.300 341.290
345.425 233.416
345.550 171.484
345.675 132.599
345.925 88.1409
346.175 64.4162
346.425 50.1489
346.675 40.8199
346.925 34.3450
347.425 26.0860
347.925 21.1428
348.425 17.9032
348.924 15.6389
349.924 12.7136
350.924 10.9249
351.924 9.72602
352.924 8.86878
354.923 7.72438
356.923 6.99113
358.923 6.47516
360.922 6.08660
364.922 5.52251
368.921 5.10811
376.920 4.44971
380.919 4.13636
384.918 3.79996
388.918 3.41295
392.917 2.93844
394.917 2.65338
396.916 2.32881
398.916 1.96702
400.915 1.60568
401.915 1.47141
402.915 1.44464
403.415 1.51513
403.665 1.58524
403.915 1.68696
404.165 1.82906
404.415 2.02285
404.665 2.28366
404.915 2.63168
405.040 2.84685
405.165 3.09504
405.415 3.71227
405.665 4.53795
405.915 5.65031
406.165 7.16660
406.415 9.26236
406.665 12.2172
406.914 16.4827
407.164 22.8415
407.414 32.7053
407.664 48.8617
407.914 77.3041
408.039 100.090
408.164 132.884
408.289 182.071
408.414 259.696
408.539 390.819
408.664 631.889
408.727 831.488
408.789 1123.81
408.852 1561.32
408.914 2214.97
409.007 3649.88
409.100 4709.87
409.193 3888.74
409.286 2501.17
409.375 1614.59
409.463 1094.19
409.552 782.770
409.640 586.669
409.729 456.662
409.818 366.505
409.995 253.268
410.172 187.545
410.349 145.950
410.704 97.9903
411.058 72.1716
411.412 56.5374
411.767 46.2592
412.121 39.0910
412.830 29.8976
413.538 24.3567
414.247 20.7051
414.956 18.1407
416.373 14.8091
417.791 12.7586
419.208 11.3775
420.625 10.3863
423.460 9.05858
426.295 8.20646
429.130 7.60819
431.965 7.16029
437.634 6.52033
443.304 6.06632
454.643 5.39910
465.982 4.82425
471.652 4.51396
477.322 4.15132
482.991 3.68754
485.826 3.39155
488.661 3.02988
491.496 2.57870
492.913 2.31355
494.330 2.02601
495.748 1.73936
497.165 1.53936
497.874 1.55069
498.228 1.61687
498.583 1.74795
498.760 1.84671
498.937 1.97404
499.114 2.13624
499.291 2.34109
499.469 2.59881
499.646 2.92207
499.823 3.32731
500.000 3.83561
500.195 4.54701
500.389 5.46803
500.584 6.66965
500.778 8.25229
500.973 10.3656
501.167 13.2295
501.362 17.1915
501.557 22.8014
501.751 30.9979
501.946 43.4387
502.140 63.2861
502.335 97.0936
502.529 160.234
502.627 213.688
502.724 294.434
502.821 423.026
502.919 640.375
503.016 1032.27
503.113 1764.50
503.207 2913.51
503.300 3769.22
503.394 3126.50
503.487 2021.13
503.570 1347.81
503.653 936.672
503.736 682.172
503.819 518.210
503.985 329.643
504.151 230.500
504.317 172.142
504.482 134.845
504.814 91.4308
505.146 67.8392
505.478 53.4623
505.809 43.9656
506.141 37.3179
506.805 28.7568
507.468 23.5741
508.132 20.1472
508.795 17.7343
510.122 14.5906
511.449 12.6502
512.776 11.3409
514.103 10.4001
516.757 9.13929
519.411 8.33100
522.065 7.76518
524.719 7.34367
530.027 6.74821
535.335 6.33596
545.951 5.76576
556.567 5.33847
561.875 5.13922
567.183 4.93072
572.492 4.68917
575.146 4.54129
577.800 4.35848
579.127 4.24617
580.454 4.11287
581.781 3.95014
583.108 3.74633
583.771 3.62543
584.435 3.49245
585.098 3.35608
585.762 3.25229
586.093 3.24789
586.425 3.32787
586.757 3.59693
587.089 4.32277
587.254 5.06282
587.420 6.31608
587.503 7.26308
587.545 7.85358
587.586 8.54125
587.628 9.35005
587.669 10.3021
587.711 11.4353
587.752 12.7870
587.794 14.4198
587.835 16.4053
587.877 18.8438
587.918 21.8643
587.959 25.6722
588.001 30.5333
588.042 36.8449
588.084 45.1803
588.125 56.5011
588.167 72.2727
588.208 94.9802
588.250 128.894
588.291 182.265
588.333 270.599
588.374 426.217
588.416 707.275
588.458 1169.47
588.500 1512.67
588.542 1252.95
588.585 810.462
588.610 614.476
588.635 473.526
588.686 300.630
588.737 206.775
588.788 151.671
588.838 116.742
588.889 93.3538
588.990 64.8740
589.092 48.7772
589.193 38.7584
589.396 27.3243
589.599 21.2048
589.802 17.4954
590.005 15.0484
590.208 13.3323
590.614 11.1121
591.020 9.75670
591.425 8.85167
591.831 8.20787
592.643 7.35637
593.454 6.81961
594.266 6.44950
595.078 6.17769
596.701 5.80120
598.324 5.54778
601.571 5.21411
604.818 4.98912
608.064 4.81495
614.557 4.53594
627.544 4.06065
640.530 3.55688
653.516 2.91448
660.009 2.49390
666.502 1.96641
669.749 1.65112
672.996 1.29992
676.242 0.928897
679.489 0.614366
680.300 0.570426
681.112 0.556076
681.518 0.564333
681.924 0.585990
682.330 0.624066
682.735 0.682306
683.141 0.765410
683.547 0.879210
683.953 1.03116
684.359 1.23076
684.765 1.49029
685.170 1.82556
685.576 2.25753
685.982 2.81412
686.794 4.46605
687.605 7.29313
688.417 12.3514
688.823 16.3722
689.229 22.0586
689.634 30.3425
690.040 42.8613
690.446 62.7119
690.852 96.2436
691.258 157.979
691.461 209.494
691.663 286.298
691.866 406.167
692.069 603.418
692.272 946.119
692.475 1558.15
692.688 2588.63
692.900 3374.78
693.113 2814.30
693.325 1823.31
693.475 1320.37
693.624 978.788
693.774 747.738
693.923 587.987
694.222 391.129
694.521 280.574
694.820 212.685
695.119 168.058
695.717 114.745
696.315 85.1079
696.913 66.7997
697.511 54.6071
698.109 46.0226
699.304 34.9164
700.500 28.1696
701.696 23.7020
702.892 20.5549
705.284 16.4540
707.676 13.9230
710.067 12.2139
712.459 10.9841
717.243 9.32837
722.026 8.25515
726.810 7.49102
731.593 6.90829
741.160 6.04565
750.727 5.39372
769.861 4.31742
779.428 3.79109
788.995 3.22404
798.562 2.58062
808.129 1.82533
812.913 1.40149
817.696 0.961426
822.480 0.558638
824.871 0.416979
826.067 0.378464
826.665 0.371042
827.263 0.373479
827.861 0.387606
828.459 0.415596
829.057 0.460063
829.655 0.524127
830.253 0.611591
830.851 0.727012
831.449 0.875997
832.047 1.06541
833.242 1.60151
834.438 2.43153
835.634 3.70940
836.830 5.69070
838.026 8.82111
839.222 13.9225
840.418 22.6278
841.614 38.5086
842.212 51.5102
842.809 70.4792
843.407 99.2933
844.005 145.318
844.603 223.789
845.201 369.168
845.500 490.052
845.799 667.374
846.098 933.211
846.397 1331.67
846.849 2228.46
847.300 2921.52
847.752 2450.26
848.203 1598.46
848.532 1150.62
848.861 849.613
849.190 647.765
849.519 509.190
850.177 339.450
850.835 244.539
851.493 186.369
852.150 148.120
853.466 102.327
854.782 76.7567
856.098 60.8722
857.413 50.2301
858.729 42.6918
861.361 32.8499
863.992 26.7924
866.624 22.7409
867.282 21.9473
867.940 21.2571
868.269 20.9877
868.433 20.8991
868.597 20.8794
868.762 21.0196
868.844 21.2276
868.926 21.6447
869.009 22.5302
869.050 23.3513
869.091 24.6988
869.132 27.0928
869.173 31.8577
869.194 36.1630
869.214 42.9957
869.235 54.4830
869.255 73.9616
869.278 106.448
869.300 128.102
869.322 106.414
869.345 73.8881
869.368 52.4852
869.391 40.7308
869.414 34.0525
869.438 30.0082
869.461 27.4060
869.484 25.6433
869.530 23.4869
869.577 22.2609
869.623 21.4942
869.716 20.6090
869.809 20.1159
869.901 19.7968
870.087 19.3852
870.272 19.1042
870.458 18.8792
870.829 18.5041
871.571 17.8733
872.313 17.3143
875.280 15.4499
881.216 12.7579
887.151 10.7915
893.087 9.12907
899.022 7.46197
901.990 6.51098
904.958 5.38367
906.442 4.71913
907.925 3.96608
909.409 3.11851
910.893 2.22464
911.635 1.83058
912.377 1.59332
912.748 1.60323
912.934 1.66249
913.119 1.77127
913.304 1.94344
913.490 2.19691
913.675 2.55539
913.861 3.05016
914.046 3.72446
914.232 4.63659
914.417 5.86805
914.603 7.53446
914.788 9.80328
914.974 12.9229
915.159 17.2723
915.345 23.4446
915.530 32.4234
915.716 45.8815
915.901 66.8540
916.087 101.201
916.272 161.340
916.365 208.911
916.458 276.057
916.550 373.737
916.643 519.631
916.736 742.843
916.829 1084.84
916.964 1842.14
917.100 2430.86
917.236 2050.14
917.372 1354.00
917.533 816.316
917.694 532.330
917.856 375.054
918.017 280.806
918.179 220.223
918.340 178.993
918.663 127.907
918.985 98.3941
919.308 79.6358
919.954 57.7020
920.599 45.5889
921.245 38.0462
921.890 32.9496
922.536 29.2976
923.827 24.4417
925.118 21.3743
926.409 19.2646
927.700 17.7238
930.282 15.6164
932.864 14.2320
938.029 12.4942
943.193 11.4185
948.357 10.6659
958.686 9.64315
969.014 8.94503
979.343 8.41150
1000.00 7.58199
1016.96 6.98314
1025.44 6.66757
1033.92 6.30658
1042.39 5.84219
1046.63 5.53177
1050.87 5.12150
1052.99 4.85567
1055.11 4.52722
1057.23 4.10737
1059.35 3.54973
1060.41 3.19740
1061.47 2.78223
1062.53 2.29921
1063.59 1.77659
1064.12 1.54292
1064.65 1.40356
1064.92 1.41322
1065.18 1.52186
1065.45 1.79305
1065.58 2.02218
1065.71 2.33652
1065.84 2.76874
1065.98 3.35037
1066.11 4.14397
1066.24 5.21352
1066.37 6.68697
1066.51 8.70746
1066.64 11.5625
1066.77 15.6138
1066.90 21.6006
1067.04 30.6010
1067.17 44.9329
1067.30 68.6798
1067.43 111.701
1067.50 146.359
1067.57 196.465
1067.63 271.431
1067.70 387.811
1067.76 574.608
1067.83 877.236
1067.92 1481.68
1068.00 1956.43
1068.09 1651.64
1068.17 1086.42
1068.24 741.304
1068.32 525.935
1068.39 390.451
1068.47 301.781
1068.61 198.138
1068.76 142.828
1068.91 109.448
1069.06 87.8108
1069.35 62.2339
1069.65 47.9718
1069.94 39.1367
1070.24 33.1971
1070.53 28.9714
1071.12 23.4132
1071.72 19.9683
1072.31 17.6444
1072.90 15.9818
1074.08 13.7653
1075.26 12.3640
1076.44 11.3980
1077.62 10.6925
1079.99 9.72644
1082.35 9.09164
1084.71 8.63792
1087.07 8.29380
1091.80 7.79609
1096.52 7.44218
1105.98 6.94039
1115.43 6.56687
1124.88 6.24789
1143.78 5.64875
1162.68 4.96798
1172.13 4.53719
1181.59 3.98734
1186.31 3.64187
1191.04 3.22673
1195.76 2.71607
1200.49 2.07746
1202.85 1.70282
1205.21 1.29914
1207.58 0.904755
1208.76 0.745960
1209.94 0.658365
1210.53 0.662755
1211.12 0.718392
1211.71 0.847743
1212.01 0.949675
1212.30 1.08351
1212.60 1.25670
1212.89 1.47657
1213.19 1.75528
1213.48 2.10436
1214.08 3.09110
1214.67 4.63957
1215.26 7.11179
1215.85 11.1608
1216.44 18.0759
1217.03 30.6088
1217.32 40.8266
1217.62 55.5613
1217.91 77.6526
1218.21 112.294
1218.51 170.005
1218.80 272.354
1219.10 469.255
1219.24 634.765
1219.39 868.789
1219.65 1459.84
1219.90 1924.97
1220.16 1635.22
1220.41 1082.00
1220.70 663.282
1220.99 436.240
1221.28 308.049
1221.57 230.368
1221.86 180.114
1222.15 145.792
1222.72 103.166
1223.30 78.5146
1223.88 62.9043
1225.04 44.7136
1226.19 34.7213
1227.35 28.5411
1228.51 24.3850
1229.66 21.4245
1231.98 17.5108
1234.29 15.0549
1236.60 13.3725
1238.91 12.1454
1243.54 10.4579
1248.16 9.32590
1252.79 8.48154
1257.42 7.79457
1266.67 6.60959
1271.29 6.00617
1275.92 5.31378
1278.23 4.90354
1280.54 4.42494
1282.86 3.84877
1285.17 3.13747
1286.33 2.72074
1287.48 2.26939
1288.64 1.81822
1289.79 1.50230
1290.37 1.52053
1290.66 1.62644
1290.95 1.83695
1291.24 2.20142
1291.53 2.79624
1291.67 3.21715
1291.82 3.74312
1291.96 4.40940
1292.11 5.24307
1292.40 7.64284
1292.69 11.5735
1292.97 18.2635
1293.12 23.3828
1293.26 30.3207
1293.41 40.0705
1293.55 53.9514
1293.70 74.6654
1293.84 106.402
1293.99 158.223
1294.13 246.732
1294.28 410.175
1294.42 719.082
1294.56 1225.87
1294.70 1626.43
1294.84 1379.77
1294.98 914.724
1295.09 651.111
1295.20 477.675
1295.31 363.584
1295.42 286.307
1295.64 192.807
1295.86 140.967
1296.08 109.264
1296.30 88.3949
1296.74 63.3327
1297.18 49.1735
1297.62 40.3074
1298.06 34.2943
1298.50 30.0042
1299.38 24.3281
1300.26 20.7838
1301.14 18.3778
1302.01 16.6442
1303.77 14.3178
1305.53 12.8305
1307.29 11.7940
1309.05 11.0268
1312.56 9.95565
1316.08 9.23001
1323.11 8.26886
1330.15 7.61100
1337.18 7.07160
1340.70 6.80442
1344.21 6.49561
1345.97 6.29362
1346.85 6.16520
1347.73 6.00336
1348.61 5.78402
1349.05 5.63945
1349.49 5.46268
1349.71 5.36125
1349.93 5.25527
1350.15 5.15867
1350.37 5.11764
1350.48 5.15841
1350.59 5.29698
1350.70 5.63965
1350.81 6.44275
1350.92 8.42229
1350.97 10.4634
1351.03 14.0840
1351.05 17.0291
1351.08 21.0656
1351.09 23.8275
1351.11 27.2156
1351.12 31.4155
1351.14 36.2639
1351.15 42.8369
1351.16 51.2923
1351.18 62.3300
1351.19 75.7674
1351.20 95.0244
1351.22 119.067
1351.23 154.114
1351.24 197.777
1351.26 258.661
1351.27 330.743
1351.30 435.356
1351.31 422.361
1351.33 370.886
1351.36 247.945
1351.38 185.838
1351.39 142.391
1351.43 91.9022
1351.47 65.1283
1351.51 49.5263
1351.54 39.6811
1351.58 33.0654
1351.65 24.9622
1351.73 20.3303
1351.80 17.4031
1351.95 13.9943
1352.10 12.1068
1352.25 10.9409
1352.39 10.1521
1352.54 9.58586
1352.84 8.82869
1353.14 8.34985
1353.43 8.01846
1353.73 7.77471
1354.32 7.43687
1354.91 7.21057
1356.10 6.91637
1357.28 6.72237
1358.47 6.57657
1360.84 6.35441
1365.58 6.01995
1370.32 5.73340
1379.80 5.17467
1389.29 4.54857
1398.77 3.75776
1403.51 3.25345
1408.25 2.63407
1412.99 1.85611
1415.36 1.40499
1417.73 0.954826
1418.92 0.776551
1419.51 0.720612
1420.11 0.703987
1420.70 0.748475
1420.99 0.803699
1421.29 0.888588
1421.59 1.01147
1421.88 1.18174
1422.18 1.41316
1422.48 1.72357
1422.77 2.13863
1423.07 2.68854
1423.37 3.42318
1423.66 4.40276
1423.96 5.72880
1424.25 7.53282
1424.55 10.0329
1424.85 13.5683
1425.14 18.7184
1425.44 26.4183
1425.74 38.4586
1426.03 58.3471
1426.33 93.8408
1426.48 122.312
1426.62 163.242
1426.77 224.108
1426.92 317.972
1427.07 467.564
1427.22 708.345
1427.41 1192.88
1427.60 1582.00
1427.79 1341.48
1427.98 879.616
1428.10 665.321
1428.22 512.741
1428.46 325.802
1428.69 224.807
1428.93 165.396
1429.17 127.743
1429.40 102.402
1429.87 71.3807
1430.35 53.6999
1430.82 42.5683
1431.76 29.6660
1432.71 22.5801
1433.65 18.1691
1435.54 12.9825
1437.43 9.97655
1439.32 7.93402
1443.09 5.07066
1444.98 3.91144
1446.87 2.84843
1448.76 1.90937
1449.70 1.53776
1450.65 1.30346
1451.12 1.27195
1451.59 1.32776
1451.83 1.39876
1452.06 1.50577
1452.30 1.65576
1452.54 1.85717
1452.77 2.12038
1453.01 2.45819
1453.24 2.88648
1453.48 3.42511
1453.95 4.94021
1454.42 7.29879
1454.90 11.0085
1455.37 16.9367
1455.84 26.7461
1456.31 43.7876
1456.55 57.0556
1456.78 75.5105
1457.02 101.844
1457.26 140.564
1457.49 199.487
1457.73 292.567
1457.96 444.674
1458.20 695.548
1458.50 1197.09
1458.80 1599.41
1459.10 1368.90
1459.40 918.028
1459.64 652.278
1459.89 478.686
1460.13 365.179
1460.38 288.845
1460.86 196.245
1461.35 144.967
1461.84 113.443
1462.33 92.6481
1463.30 67.4313
1464.28 53.0815
1465.25 43.9883
1466.23 37.7782
1467.20 33.3017
1469.15 27.3090
1471.10 23.5106
1473.05 20.8945
1475.00 18.9864
1478.90 16.3846
1482.80 14.6882
1486.70 13.4873
1490.59 12.5865
1498.39 11.3095
1506.19 10.4285
1521.79 9.22780
1537.38 8.33987
1545.18 7.91709
1552.98 7.45376
1560.78 6.87186
1564.68 6.48580
1568.58 5.97624
1570.53 5.64640
1572.48 5.23981
1574.43 4.72184
1576.38 4.03964
1577.35 3.61358
1578.33 3.11867
1579.30 2.55743
1580.28 1.98448
1580.76 1.75903
1581.25 1.68222
1581.49 1.75910
1581.74 1.97386
1581.98 2.40848
1582.10 2.74818
1582.23 3.19701
1582.35 3.79609
1582.47 4.58822
1582.59 5.63675
1582.71 7.03044
1582.84 8.89608
1582.96 11.4188
1583.08 14.8759
1583.20 19.6480
1583.32 26.4896
1583.44 36.4933
1583.57 51.6153
1583.69 75.1974
1583.81 114.566
1583.93 184.115
1584.05 315.863
1584.11 424.303
1584.17 573.657
1584.29 985.028
1584.40 1318.32
1584.51 1129.18
1584.63 755.315
1584.70 567.081
1584.78 434.610
1584.85 342.135
1584.93 276.461
1585.08 192.969
1585.23 144.633
1585.39 113.872
1585.54 93.1758
1585.84 67.8125
1586.14 53.1817
1586.45 43.9140
1586.75 37.5681
1587.05 33.0179
1587.66 26.9599
1588.27 23.1593
1588.88 20.5740
1589.48 18.7130
1590.70 16.2168
1591.91 14.6296
1593.12 13.5318
1594.34 12.7283
1596.76 11.6271
1599.19 10.9046
1601.62 10.3901
1604.04 10.0022
1608.90 9.44856
1613.75 9.06402
1623.46 8.54367
1633.17 8.18713
1642.88 7.91164
1662.29 7.47823
1681.71 7.11049
1701.12 6.74689
1720.54 6.32507
1730.25 6.05767
1735.10 5.89967
1737.53 5.82142
1738.14 5.80977
1738.74 5.81916
1739.05 5.85240
1739.35 5.96276
1739.50 6.11698
1739.65 6.51708
1739.73 7.00863
1739.77 7.44498
1739.80 8.14315
1739.84 9.35428
1739.88 11.6999
1739.90 13.7612
1739.92 16.9704
1739.94 22.1689
1739.96 30.2848
1739.98 45.2688
1740.00 54.8472
1740.02 45.2759
1740.04 30.2923
1740.06 22.5265
1740.08 17.6335
1740.10 14.3205
1740.11 12.2587
1740.15 9.76353
1740.18 8.44140
1740.22 7.66563
1740.25 7.17422
1740.32 6.61758
1740.46 6.14098
1740.60 5.95018
1740.88 5.79432
1741.16 5.72866
1741.72 5.66380
1742.27 5.62379
1744.50 5.50071
1748.96 5.24122
1753.41 4.91179
1757.87 4.46540
1760.10 4.17364
1762.33 3.81452
1764.56 3.36244
1766.78 2.78402
1767.90 2.43823
1769.01 2.05997
1770.13 1.68001
1771.24 1.41550
1771.80 1.43556
1772.08 1.52945
1772.35 1.71313
1772.63 2.03035
1772.91 2.54387
1773.19 3.36101
1773.33 3.93008
1773.47 4.64514
1773.61 5.55359
1773.75 6.69649
1774.03 10.0220
1774.30 15.6524
1774.44 19.8933
1774.58 25.6346
1774.72 33.6350
1774.86 44.8986
1775.00 61.3322
1775.14 86.1798
1775.28 125.741
1775.42 190.956
1775.56 304.567
1775.70 507.332
1775.85 870.550
1776.00 1167.87
1776.15 1001.07
1776.30 667.719
1776.40 505.902
1776.50 391.469
1776.69 251.471
1776.89 176.230
1777.08 132.155
1777.28 103.975
1777.47 85.0207
1777.86 61.5699
1778.25 48.0604
1778.64 39.4705
1779.42 29.3989
1780.20 23.8046
1780.97 20.3083
1781.75 17.9349
1782.53 16.2275
1784.09 13.9459
1785.64 12.4992
1787.20 11.5008
1788.76 10.7709
1791.87 9.77123
1794.98 9.11395
1798.10 8.64354
1801.21 8.28568
1807.43 7.76426
1813.66 7.38583
1826.11 6.81597
1838.56 6.31645
1844.79 6.04578
1851.01 5.72690
1857.24 5.30546
1860.35 5.02022
1863.47 4.64262
1865.02 4.39894
1866.58 4.10019
1868.14 3.72278
1869.69 3.23245
1870.47 2.93076
1871.25 2.58697
1872.03 2.20936
1872.81 1.85307
1873.19 1.74235
1873.58 1.76815
1873.78 1.88235
1873.97 2.11280
1874.17 2.52856
1874.36 3.23611
1874.56 4.43745
1874.65 5.31929
1874.75 6.47626
1874.85 8.02530
1874.95 10.0799
1875.04 12.8681
1875.14 16.7191
1875.24 22.2207
1875.33 30.1291
1875.43 41.9796
1875.53 60.4786
1875.63 91.2621
1875.72 144.634
1875.82 244.430
1875.87 326.736
1875.92 439.194
1876.01 754.852
1876.10 1010.46
1876.19 865.169
1876.28 578.090
1876.35 420.296
1876.42 313.751
1876.49 242.113
1876.55 193.361
1876.69 132.294
1876.83 98.0635
1876.96 76.7064
1877.10 62.6278
1877.37 45.4657
1877.64 35.7121
1877.91 29.5551
1878.18 25.3713
1878.45 22.3791
1878.99 18.3953
1879.53 15.8993
1880.08 14.2013
1880.62 12.9779
1881.70 11.3317
1882.78 10.2788
1883.87 9.54462
1884.95 9.00186
1887.12 8.24422
1889.29 7.73051
1893.62 7.04683
1897.95 6.57407
1902.29 6.19092
1906.62 5.84423
1908.79 5.67974
1909.87 5.62028
1910.14 5.62523
1910.41 5.67508
1910.55 5.75703
1910.68 5.97807
1910.75 6.25037
1910.82 6.85447
1910.85 7.48695
1910.89 8.66679
1910.92 11.1546
1910.94 13.4508
1910.95 16.8922
1910.98 23.6400
1911.00 28.3036
1911.02 23.6411
1911.05 16.8908
1911.06 13.4464
1911.08 11.2562
1911.11 8.75143
1911.14 7.54268
1911.18 6.90115
1911.24 6.25474
1911.31 5.95905
1911.44 5.70177
1911.57 5.59220
1911.83 5.49357
1912.09 5.44307
1913.13 5.32629
1915.21 5.13731
1919.37 4.73477
1923.53 4.25421
1927.69 3.64257
1929.77 3.26241
1931.85 2.81343
1933.93 2.27918
1936.01 1.65559
1937.05 1.32706
1938.09 1.02761
1939.13 0.854300
1939.65 0.886898
1939.91 0.958262
1940.17 1.08289
1940.43 1.27890
1940.69 1.57134
1940.95 1.99542
1941.21 2.60149
1941.47 3.46306
1941.73 4.69000
1941.99 6.45112
1942.25 9.01430
1942.51 12.8213
1942.77 18.6345
1943.03 27.8456
1943.29 43.1729
1943.55 70.3924
1943.68 92.1334
1943.81 123.088
1943.94 168.437
1944.07 236.866
1944.20 342.713
1944.33 507.063
1944.51 870.952
1944.70 1171.25
1944.89 1007.17
1945.07 672.852
1945.25 450.415
1945.43 316.369
1945.60 233.612
1945.78 180.676
1946.13 119.474
1946.49 86.9642
1946.84 67.5546
1947.19 54.9522
1947.90 39.9515
1948.60 31.5206
1949.31 26.2221
1950.02 22.6210
1950.72 20.0329
1952.13 16.5699
1953.54 14.3693
1954.96 12.8421
1956.37 11.7147
1959.19 10.1336
1962.01 9.03753
1967.66 7.45679
1973.30 6.08399
1976.13 5.32232
1978.95 4.41596
1980.36 3.87763
1981.77 3.26485
1983.19 2.57162
1984.60 1.83860
1985.30 1.51400
1986.01 1.31507
1986.36 1.31796
1986.71 1.44569
1987.07 1.77481
1987.24 2.05126
1987.42 2.43194
1987.60 2.95161
1987.77 3.64714
1987.95 4.58559
1988.13 5.83840
1988.30 7.53744
1988.48 9.83318
1988.66 13.0061
1988.83 17.4068
1989.01 23.7000
1989.18 32.8142
1989.36 46.5750
1989.54 67.8962
1989.71 102.889
1989.89 162.849
1990.07 272.153
1990.24 477.829
1990.42 830.214
1990.60 1121.82
1990.78 968.658
1990.96 653.284
1991.10 469.783
1991.24 348.985
1991.38 268.433
1991.52 213.938
1991.81 147.192
1992.09 109.889
1992.37 86.7492
1992.65 71.4244
1993.22 52.7210
1993.78 42.0194
1994.35 35.2136
1994.91 30.5545
1995.48 27.1879
1996.61 22.6777
1997.74 19.8199
1998.87 17.8541
2000.00 16.4217
2001.77 14.8268
2003.53 13.7061
2007.06 12.2296
2010.59 11.2928
2014.12 10.6391
2021.18 9.77332
2028.24 9.21311
2035.30 8.81164
2042.36 8.50403
2056.48 8.05075
2070.60 7.71951
2084.72 7.45592
2098.83 7.23350
2105.89 7.13550
2107.66 7.11464
2109.42 7.10097
2110.31 7.10369
2111.19 7.13321
2111.63 7.18395
2112.07 7.33373
2112.29 7.53840
2112.40 7.73534
2112.51 8.07967
2112.62 8.77155
2112.68 9.40140
2112.73 10.4449
2112.79 12.3534
2112.82 13.9927
2112.84 16.3858
2112.87 20.3766
2112.90 27.0178
2112.93 39.9679
2112.94 50.7509
2112.95 65.7738
2112.98 101.229
2113.00 124.621
2113.02 101.259
2113.05 65.8106
2113.06 49.0002
2113.08 37.5613
2113.09 29.9035
2113.11 24.6599
2113.14 18.2863
2113.17 14.7759
2113.21 12.6636
2113.24 11.3024
2113.30 9.73838
2113.37 8.88528
2113.43 8.38446
2113.56 7.83735
2113.68 7.56174
2113.81 7.40554
2114.06 7.24181
2114.57 7.11470
2115.08 7.06430
2116.10 7.01878
2117.12 6.99394
2121.19 6.92965
2129.33 6.82307
2145.60 6.61992
2178.16 6.19785
2194.44 5.94722
2210.72 5.61839
2218.86 5.38339
2222.93 5.22700
2227.00 5.02205
2231.07 4.72619
2233.10 4.51488
2235.14 4.22627
2236.15 4.03607
2237.17 3.80008
2238.19 3.49863
2239.21 3.10370
2239.72 2.85965
2240.22 2.58071
2240.73 2.27456
2241.24 1.98866
2241.50 1.90271
2241.75 1.93198
2242.00 2.22745
2242.13 2.57631
2242.26 3.16891
2242.39 4.17425
2242.51 5.87050
2242.58 7.15222
2242.64 8.83677
2242.70 11.1541
2242.77 14.2956
2242.83 18.7858
2242.89 25.1658
2242.96 34.8281
2243.02 49.5669
2243.09 73.9292
2243.15 115.223
2243.21 192.123
2243.24 253.847
2243.28 335.830
2243.34 577.977
2243.40 774.756
2243.46 666.775
2243.53 448.360
2243.60 277.738
2243.67 184.868
2243.74 132.413
2243.81 100.907
2243.88 80.1110
2243.96 65.8604
2244.10 48.1555
2244.24 37.7569
2244.39 31.1455
2244.67 23.3392
2244.96 18.9736
2245.25 16.2467
2245.53 14.3888
2245.82 13.0577
2246.39 11.2762
2246.97 10.1508
2247.54 9.37664
2248.11 8.81194
2249.26 8.04183
2250.40 7.53968
2251.55 7.18306
2252.70 6.91470
2254.99 6.53044
2257.28 6.26040
2261.87 5.88156
2266.46 5.59988
2271.04 5.35605
2280.21 4.88078
2284.80 4.61597
2289.38 4.30984
2293.97 3.93684
2298.56 3.45575
2300.85 3.15384
2303.14 2.79447
2305.43 2.36196
2307.73 1.84653
2308.87 1.56598
2310.02 1.29626
2311.17 1.10334
2311.74 1.08633
2312.31 1.18205
2312.60 1.29890
2312.89 1.48436
2313.17 1.76424
2313.46 2.17386
2313.75 2.77022
2314.03 3.63003
2314.32 4.88462
2314.61 6.72399
2314.89 9.49172
2315.18 13.7395
2315.47 20.5500
2315.75 31.9370
2316.04 52.4199
2316.18 68.8503
2316.33 92.3758
2316.47 127.368
2316.61 180.308
2316.76 263.030
2316.90 392.997
2317.10 676.617
2317.30 914.171
2317.50 789.822
2317.70 528.998
2317.87 370.160
2318.04 268.217
2318.21 202.665
2318.38 159.028
2318.72 107.086
2319.05 78.6784
2319.39 61.4215
2319.73 50.0945
2320.41 36.4747
2321.08 28.7807
2321.76 23.9305
2322.43 20.6314
2323.11 18.2616
2324.46 15.0978
2325.81 13.0984
2327.16 11.7217
2328.52 10.7160
2331.22 9.33469
2333.92 8.41605
2336.62 7.74454
2339.33 7.21727
2344.73 6.39542
2350.14 5.71587
2355.55 5.06765
2356.90 4.90371
2358.25 4.74418
2358.93 4.67444
2359.60 4.63745
2359.94 4.66417
2360.28 4.81480
2360.45 5.04902
2360.53 5.28255
2360.62 5.68684
2360.70 6.48846
2360.74 7.19865
2360.78 8.34012
2360.83 10.3312
2360.87 14.2184
2360.89 17.6638
2360.91 23.0783
2360.93 31.9695
2360.95 47.1637
2360.98 72.5885
2361.00 89.9137
2361.02 72.6062
2361.05 47.1807
2361.07 30.4100
2361.10 21.2567
2361.12 15.8260
2361.15 12.6731
2361.17 10.5616
2361.19 9.19297
2361.24 7.48472
2361.29 6.52801
2361.34 5.93967
2361.44 5.28228
2361.54 4.93968
2361.64 4.73575
2361.83 4.50879
2362.22 4.29968
2362.61 4.18549
2363.39 4.02457
2364.18 3.88589
2367.31 3.32682
2370.43 2.68129
2373.56 1.91836
2375.13 1.49945
2376.69 1.08644
2378.26 0.761860
2379.04 0.697086
2379.43 0.712013
2379.82 0.773691
2380.21 0.899266
2380.60 1.11137
2381.00 1.44295
2381.39 1.94087
2381.78 2.67354
2382.17 3.74316
2382.56 5.30644
2382.95 7.61112
2383.34 11.0742
2383.73 16.3754
2384.12 24.7776
2384.52 38.6923
2384.91 63.1160
2385.30 109.360
2385.49 148.309
2385.69 205.367
2385.88 291.404
2386.08 419.778
2386.39 732.266
2386.70 994.702
2387.01 862.467
2387.32 582.368
2387.67 369.054
2388.01 250.189
2388.36 181.561
2388.70 139.191
2389.05 111.275
2389.39 92.0063
2390.08 67.6532
2390.77 53.2689
2391.46 43.9892
2392.85 32.9301
2394.23 26.7007
2395.61 22.7609
2396.99 20.0657
2398.37 18.1158
2401.13 15.4902
2403.89 13.8106
2406.65 12.6436
2409.41 11.7849
2414.94 10.6004
2420.46 9.81546
2425.98 9.25075
2431.51 8.82010
2442.55 8.19387
2453.60 7.74500
2475.69 7.09576
2497.78 6.57596
2508.83 6.31793
2519.87 6.03297
2530.92 5.67987
2536.44 5.45058
2541.97 5.15322
2544.73 4.96275
2547.49 4.72861
2550.25 4.42899
2553.01 4.02621
2554.39 3.76594
2555.77 3.44940
2557.16 3.05842
2558.54 2.57471
2559.23 2.29775
2559.92 2.01207
2560.61 1.76073
2561.30 1.68310
2561.64 1.82867
2561.99 2.25778
2562.16 2.66083
2562.33 3.26241
2562.51 4.16737
2562.68 5.52072
2562.85 7.59898
2563.02 10.8290
2563.20 16.0863
2563.37 24.9524
2563.46 31.8075
2563.54 41.0950
2563.63 54.0978
2563.71 72.7859
2563.80 100.840
2563.89 143.275
2563.97 209.804
2564.06 314.657
2564.18 544.584
2564.30 738.667
2564.42 641.154
2564.54 432.230
2564.62 325.010
2564.71 250.237
2564.87 160.507
2565.03 112.666
2565.19 84.9287
2565.36 67.2633
2565.52 55.4212
2565.84 40.7720
2566.17 32.3202
2566.49 26.9300
2566.82 23.2394
2567.14 20.5827
2567.79 17.0238
2568.44 14.7793
2569.09 13.2390
2569.74 12.1215
2571.04 10.6030
2572.34 9.61177
2573.64 8.90115
2574.94 8.35211
2577.53 7.49541
2578.83 7.10830
2580.13 6.69657
2581.43 6.19576
2582.08 5.87336
2582.73 5.46285
2583.05 5.20693
2583.38 4.90410
2583.70 4.54266
2584.03 4.11993
2584.19 3.89403
2584.35 3.68622
2584.52 3.55624
2584.68 3.68004
2584.84 4.61678
2584.92 5.90134
2584.96 6.99178
2585.00 8.52584
2585.04 10.8336
2585.08 14.2136
2585.13 19.5830
2585.17 28.0258
2585.19 34.5250
2585.21 42.7289
2585.23 53.7122
2585.25 68.6800
2585.27 90.6929
2585.29 120.559
2585.31 163.256
2585.33 224.058
2585.36 392.480
2585.40 530.606
2585.42 519.436
2585.44 460.036
2585.47 313.899
2585.51 215.249
2585.54 154.457
2585.58 116.620
2585.61 92.5897
2585.68 63.8559
2585.74 48.2792
2585.81 38.7243
2585.88 32.5540
2586.01 25.0940
2586.15 20.8168
2586.28 18.1201
2586.41 16.2694
2586.55 14.9279
2586.82 13.1176
2587.09 11.9624
2587.36 11.1627
2587.62 10.5780
2588.16 9.77251
2588.70 9.24342
2589.77 8.57964
2590.85 8.16963
2591.92 7.88402
2594.07 7.49700
2596.22 7.23395
2598.37 7.03452
2602.67 6.73522
2611.26 6.31078
2619.86 5.96510
2628.45 5.61128
2632.75 5.40309
2637.05 5.14571
2641.35 4.78951
2643.50 4.54061
2645.65 4.20461
2646.72 3.98521
2647.80 3.71490
2648.87 3.37284
2649.94 2.93118
2650.48 2.66286
2651.02 2.36334
2651.56 2.04800
2652.09 1.78599
2652.36 1.74237
2652.63 1.85623
2652.90 2.31740
2653.03 2.80012
2653.17 3.58146
2653.30 4.85799
2653.44 6.94461
2653.50 8.47317
2653.57 10.4823
2653.64 13.1577
2653.71 16.7762
2653.77 21.8512
2653.84 28.9197
2653.91 39.1628
2653.97 54.4951
2654.04 78.3359
2654.11 117.027
2654.18 182.473
2654.24 295.102
2654.32 510.483
2654.40 692.568
2654.48 601.871
2654.56 406.229
2654.61 309.684
2654.66 241.546
2654.76 157.666
2654.86 111.646
2654.96 84.6527
2655.06 67.2215
2655.16 55.5034
2655.36 40.8884
2655.56 32.4159
2655.76 26.9997
2656.17 20.6197
2656.57 17.0413
2656.97 14.7925
2657.37 13.2539
2657.77 12.1447
2658.57 10.6531
2659.38 9.70068
2660.18 9.04049
2660.98 8.55555
2662.59 7.88863
2664.20 7.44829
2665.80 7.13258
2667.41 6.89258
2670.62 6.54509
2673.83 6.29813
2680.26 5.94983
2686.68 5.69463
2693.11 5.48285
2699.53 5.29357
2702.74 5.20660
2704.35 5.17644
2705.15 5.20873
2705.35 5.25605
2705.55 5.38889
2705.65 5.56031
2705.75 5.97175
2705.80 6.43385
2705.85 7.38771
2705.88 8.28574
2705.90 9.79022
2705.93 12.4910
2705.95 17.7641
2705.98 25.3943
2706.00 30.4265
2706.02 25.4022
2706.05 17.7730
2706.07 13.1095
2706.09 10.3929
2706.13 7.80057
2706.18 6.70690
2706.22 6.16749
2706.31 5.66157
2706.40 5.44341
2706.57 5.26179
2706.74 5.18882
2707.44 5.09802
2708.84 5.04035
2711.63 4.95888
2717.21 4.80403
2728.37 4.48449
2739.53 4.13214
2750.69 3.72116
2761.85 3.20772
2767.43 2.88620
2773.01 2.49317
2778.59 1.98549
2781.38 1.66643
2784.17 1.28962
2785.57 1.08011
2786.96 0.866151
2788.36 0.676170
2789.06 0.613325
2789.75 0.600622
2790.45 0.684061
2790.80 0.787684
2791.15 0.955431
2791.50 1.21661
2791.85 1.61422
2792.20 2.21651
2792.54 3.13152
2792.89 4.55329
2793.24 6.81877
2793.59 10.5770
2793.94 17.1529
2794.11 22.3738
2794.29 29.7018
2794.46 40.4344
2794.64 56.5632
2794.81 82.2123
2794.99 124.694
2795.16 199.308
2795.33 334.424
2795.52 570.118
2795.70 770.938
2795.88 667.090
2796.07 443.000
2796.20 318.098
2796.34 234.514
2796.48 178.892
2796.62 140.931
2796.89 94.7075
2797.17 68.9574
2797.45 53.1788
2797.72 42.7850
2798.27 30.2986
2798.83 23.2522
2799.38 18.8400
2799.93 15.8488
2800.48 13.7120
2801.58 10.8781
2802.69 9.09668
2803.79 7.87483
2804.89 6.98192
2807.10 5.75108
2809.30 4.92307
2813.72 3.81747
2818.13 3.04019
2822.54 2.40241
2831.36 1.29490
2835.78 0.797247
2840.19 0.378018
2842.39 0.230862
2843.50 0.184061
2844.60 0.161996
2845.15 0.162392
2845.70 0.171793
2846.81 0.222796
2847.91 0.327347
2849.01 0.501914
2850.12 0.768695
2851.22 1.15800
2852.32 1.71179
2853.42 2.48913
2854.53 3.57465
2855.63 5.09224
2856.73 7.22770
2857.84 10.2675
2858.94 14.6680
2860.04 21.1839
2861.15 31.1205
2862.25 46.8536
2863.35 72.9700
2864.45 118.893
2865.56 204.896
2866.11 274.940
2866.66 372.336
2867.73 652.531
2868.80 893.119
2869.87 780.689
2870.94 529.609
2871.92 364.087
2872.89 260.912
2873.87 196.029
2874.84 153.572
2876.79 103.673
2878.74 76.6212
2880.69 60.1968
2882.64 49.3901
2886.55 36.2794
2890.45 28.7361
2894.35 23.8594
2898.25 20.4222
2902.15 17.8226
2909.95 13.9142
2913.85 12.2262
2917.76 10.4927
2921.66 8.47609
2923.61 7.23798
2925.56 5.73790
2926.53 4.85534
2927.51 3.87549
2928.48 2.82174
2929.46 1.82942
2929.95 1.49384
2930.19 1.42541
2930.44 1.46799
2930.68 1.67604
2930.92 2.13242
2931.17 2.96603
2931.29 3.58441
2931.41 4.37566
2931.53 5.39964
2931.65 6.71210
2931.90 10.5550
2932.14 16.9559
2932.39 27.8578
2932.63 47.3982
2932.75 62.8359
2932.87 84.4124
2933.00 115.115
2933.12 159.542
2933.24 224.532
2933.36 318.156
2933.58 577.327
2933.80 800.080
2934.02 705.704
2934.24 490.914
2934.37 388.300
2934.51 312.464
2934.77 214.838
2935.04 159.133
2935.31 124.839
2935.58 102.242
2935.84 86.5088
2936.38 66.4226
2936.91 54.3802
2937.44 46.4684
2938.51 36.8294
2939.58 31.2336
2940.65 27.5959
2941.72 25.0434
2942.78 23.1513
2944.92 20.5228
2947.06 18.7693
2951.33 16.5374
2955.60 15.1391
2959.87 14.1555
2968.41 12.8194
2976.96 11.9191
2985.50 11.2500
3002.59 10.2855
3019.68 9.58854
3036.76 9.02132
3045.31 8.75349
3053.85 8.46478
3058.12 8.29016
3060.26 8.18393
3062.39 8.05294
3064.53 7.87404
3065.60 7.75027
3066.66 7.58327
3067.20 7.47346
3067.73 7.33617
3068.27 7.15802
3068.80 6.91577
3069.07 6.75858
3069.33 6.56745
3069.60 6.33261
3069.87 6.04621
3070.14 5.72797
3070.27 5.60212
3070.40 5.60445
3070.54 6.04334
3070.60 6.71783
3070.67 8.11759
3070.74 11.2435
3070.77 14.1136
3070.80 18.7042
3070.84 26.6902
3070.85 32.7836
3070.87 40.5232
3070.89 51.8079
3070.90 66.5689
3070.92 88.5744
3070.94 117.446
3070.95 158.725
3070.97 206.101
3071.00 280.416
3071.02 276.052
3071.03 246.201
3071.07 171.115
3071.09 129.960
3071.11 101.161
3071.13 81.1874
3071.16 67.5896
3071.20 49.7516
3071.25 39.2819
3071.29 32.6099
3071.34 28.0770
3071.43 22.4345
3071.52 19.1368
3071.61 17.0096
3071.70 15.5385
3071.79 14.4675
3071.97 13.0162
3072.15 12.0951
3072.33 11.4584
3072.51 10.9930
3072.87 10.3577
3073.23 9.94627
3073.59 9.65646
3073.95 9.44035
3074.67 9.13642
3075.39 8.92987
3076.83 8.65600
3078.27 8.47035
3079.71 8.32462
3082.59 8.07677
3085.48 7.81805
3086.92 7.65805
3088.36 7.45153
3089.08 7.31831
3089.80 7.15320
3090.52 6.93904
3091.24 6.64683
3091.60 6.45483
3091.96 6.21910
3092.32 5.92341
3092.68 5.54851
3092.86 5.32622
3093.04 5.08809
3093.22 4.85633
3093.40 4.71125
3093.58 4.93836
3093.67 5.47500
3093.76 6.75297
3093.81 7.94378
3093.85 9.80798
3093.90 12.8043
3093.94 17.8062
3093.97 21.6519
3093.99 26.5966
3094.01 33.6748
3094.03 43.1201
3094.06 57.2006
3094.08 76.7762
3094.10 107.002
3094.12 150.738
3094.14 203.081
3094.16 265.309
3094.20 363.424
3094.22 359.046
3094.24 320.854
3094.28 220.741
3094.31 155.308
3094.35 113.541
3094.38 87.1971
3094.42 70.2846
3094.48 49.8579
3094.55 38.6580
3094.62 31.8097
3094.69 27.2780
3094.83 21.7622
3094.97 18.5944
3095.11 16.5678
3095.24 15.1715
3095.38 14.1563
3095.66 12.7861
3095.93 11.9084
3096.21 11.3000
3096.49 10.8538
3097.04 10.2432
3097.59 9.84406
3098.14 9.56152
3098.69 9.34999
3099.80 9.05140
3100.90 8.84790
3103.11 8.57960
3105.32 8.40194
3107.53 8.26897
3111.94 8.06868
3120.78 7.77076
3129.61 7.50485
3138.45 7.20709
3142.86 7.02075
3147.28 6.78072
3149.49 6.62616
3151.70 6.43410
3153.91 6.18365
3156.11 5.83642
3157.22 5.60404
3158.32 5.31144
3159.43 4.93043
3160.53 4.41479
3161.08 4.08427
3161.63 3.68950
3162.19 3.22023
3162.74 2.68677
3163.01 2.42256
3163.29 2.21084
3163.57 2.16287
3163.70 2.27831
3163.84 2.57358
3163.98 3.17670
3164.12 4.32447
3164.26 6.48231
3164.33 8.21311
3164.39 10.6399
3164.46 14.0981
3164.53 19.1300
3164.60 26.6479
3164.67 38.2542
3164.74 56.8998
3164.81 88.2733
3164.88 143.597
3164.95 243.386
3165.02 429.882
3165.10 591.892
3165.18 520.181
3165.25 356.051
3165.33 238.101
3165.41 167.980
3165.49 125.570
3165.57 98.5080
3165.64 80.2894
3165.72 67.4436
3165.88 50.9061
3166.03 40.9679
3166.19 34.4629
3166.50 26.6188
3166.81 22.1474
3167.13 19.2979
3167.44 17.3389
3167.75 15.9163
3168.37 13.9979
3169.00 12.7698
3169.62 11.9187
3170.25 11.2955
3171.49 10.4415
3172.74 9.88408
3173.99 9.48979
3175.24 9.19537
3177.73 8.78114
3180.23 8.50021
3182.72 8.29381
3185.22 8.13334
3190.21 7.89405
3195.20 7.71776
3205.18 7.45879
3225.14 7.09576
3245.10 6.80741
3285.03 6.28207
3304.99 6.01130
3314.97 5.87024
3319.96 5.80525
3321.21 5.79605
3322.45 5.80447
3323.08 5.83274
3323.70 5.92827
3324.01 6.06509
3324.33 6.44067
3324.48 6.92948
3324.56 7.38757
3324.64 8.16496
3324.72 9.63876
3324.75 10.9241
3324.79 12.9451
3324.83 16.3662
3324.87 22.7487
3324.89 28.3119
3324.91 36.2256
3324.93 48.2846
3324.95 66.6936
3324.97 103.312
3325.00 127.749
3325.03 103.368
3325.05 66.7636
3325.07 48.3507
3325.09 36.2848
3325.11 28.3641
3325.13 23.2584
3325.16 16.8806
3325.20 13.3844
3325.24 11.2420
3325.28 9.90734
3325.35 8.35598
3325.43 7.51753
3325.50 7.02623
3325.65 6.49214
3325.95 6.07256
3326.24 5.91222
3326.84 5.78645
3327.44 5.73483
3328.63 5.68490
3329.82 5.65478
3334.58 5.56617
3344.12 5.39979
3363.18 5.02906
3382.24 4.57528
3401.31 3.98580
3410.84 3.61203
3420.37 3.16066
3429.90 2.60274
3439.43 1.90001
3444.20 1.48343
3448.97 1.02697
3453.73 0.560944
3456.11 0.353440
3457.31 0.267497
3458.50 0.201515
3459.69 0.164462
3460.88 0.169270
3462.07 0.234480
3463.26 0.387022
3463.86 0.508036
3464.46 0.667431
3465.65 1.13643
3466.84 1.89045
3468.03 3.08203
3469.22 4.97042
3470.41 8.00134
3471.60 13.0088
3472.80 21.6173
3473.99 37.3423
3474.58 50.1104
3475.18 68.4330
3475.77 95.5450
3476.37 136.672
3476.97 200.780
3477.56 300.774
3478.43 530.126
3479.30 731.632
3480.17 644.884
3481.04 439.886
3481.88 296.938
3482.73 210.191
3483.57 156.836
3484.41 122.487
3485.25 99.1847
3486.10 82.7051
3487.78 61.4106
3489.46 48.5730
3491.15 40.1624
3494.52 30.0178
3497.89 24.2284
3501.26 20.5331
3504.63 17.9832
3508.00 16.1207
3514.73 13.5759
3521.47 11.9004
3524.84 11.2519
3528.21 10.6912
3529.90 10.4400
3531.58 10.2145
3532.42 10.1221
3533.27 10.0774
3533.69 10.1159
3534.11 10.3191
3534.32 10.6345
3534.42 10.9468
3534.53 11.4977
3534.64 12.6056
3534.69 13.6200
3534.74 15.2536
3534.79 18.2555
3534.82 20.6931
3534.85 24.3083
3534.87 30.2264
3534.90 39.7790
3534.92 56.7394
3534.95 89.3025
3534.98 136.170
3535.00 168.790
3535.03 136.224
3535.05 89.3633
3535.07 58.5729
3535.10 41.2935
3535.12 31.4044
3535.15 25.3919
3535.17 21.5179
3535.20 18.8950
3535.25 15.7408
3535.30 13.9265
3535.35 12.8307
3535.45 11.5914
3535.55 10.9497
3535.64 10.5727
3535.84 10.1641
3536.24 9.82187
3536.64 9.66551
3537.43 9.48930
3538.22 9.36572
3539.81 9.15908
3541.39 8.97086
3544.56 8.61537
3547.73 8.27289
3554.07 7.59029
3560.41 6.84922
3566.75 5.93297
3569.92 5.33877
3573.09 4.57772
3574.68 4.10243
3576.26 3.53828
3577.85 2.86130
3579.43 2.05697
3580.22 1.61964
3581.02 1.19787
3581.81 0.886840
3582.21 0.844635
3582.60 0.960236
3583.00 1.35977
3583.20 1.73192
3583.39 2.27689
3583.59 3.06147
3583.79 4.18322
3583.99 5.78783
3584.19 8.09860
3584.39 11.4887
3584.58 16.5037
3584.78 24.1409
3584.98 36.1504
3585.18 55.8085
3585.38 89.5575
3585.57 150.439
3585.77 263.086
3585.99 471.391
3586.20 653.920
3586.42 578.018
3586.63 398.448
3586.78 303.302
3586.92 236.086
3587.07 188.725
3587.21 154.805
3587.51 111.084
3587.80 85.3694
3588.09 68.8586
3588.38 57.6446
3588.97 43.6245
3589.55 35.3791
3590.14 30.0420
3591.31 23.6396
3592.48 19.9751
3593.65 17.6217
3594.82 15.9856
3595.98 14.7825
3598.32 13.1276
3600.66 12.0375
3603.00 11.2581
3605.34 10.6682
3610.02 9.82087
3614.69 9.22890
3617.03 8.99420
3619.37 8.79863
3620.54 8.72581
3621.71 8.70552
3622.29 8.76171
3622.59 8.83967
3622.88 8.99822
3623.17 9.35454
3623.32 9.70835
3623.46 10.3387
3623.61 11.6136
3623.68 12.7996
3623.75 14.7940
3623.83 18.5196
3623.86 21.7717
3623.90 26.6656
3623.94 34.9945
3623.97 49.5899
3623.99 62.2173
3624.01 79.6468
3624.03 105.321
3624.05 143.050
3624.07 223.932
3624.10 277.926
3624.13 224.099
3624.15 143.258
3624.18 87.2980
3624.21 58.5756
3624.24 42.5071
3624.27 32.8835
3624.30 26.5770
3624.33 22.5060
3624.39 17.5660
3624.45 14.7748
3624.51 13.1012
3624.62 11.2327
3624.74 10.2778
3624.86 9.72385
3625.09 9.13701
3625.32 8.84190
3625.56 8.67021
3626.02 8.47877
3626.96 8.29882
3627.89 8.19616
3629.76 8.04962
3631.63 7.92884
3635.37 7.71571
3639.10 7.52316
3646.58 7.17466
3654.05 6.85610
3669.00 6.25750
3676.47 5.96406
3680.21 5.83518
3681.14 5.82128
3682.08 5.85213
3682.54 5.92786
3683.01 6.16901
3683.24 6.50487
3683.36 6.83036
3683.48 7.39277
3683.59 8.50936
3683.65 9.53405
3683.71 11.1855
3683.77 14.2112
3683.80 16.6711
3683.83 20.3184
3683.86 26.0062
3683.89 35.4216
3683.92 52.0227
3683.94 82.2877
3683.97 128.322
3684.00 159.052
3684.03 128.415
3684.06 82.4031
3684.08 58.7668
3684.10 44.0395
3684.12 34.2786
3684.14 27.6423
3684.18 19.4873
3684.22 15.1604
3684.26 12.5098
3684.30 10.8525
3684.38 8.92364
3684.46 7.87997
3684.54 7.26640
3684.70 6.59730
3685.02 6.06515
3685.35 5.85744
3685.99 5.68426
3686.64 5.60357
3687.93 5.50842
3689.21 5.43755
3694.37 5.18810
3699.53 4.93457
3704.69 4.66339
3715.00 4.04221
3725.32 3.26382
3730.48 2.78849
3735.63 2.23736
3740.79 1.59987
3745.95 0.893776
3748.53 0.550875
3751.11 0.280771
3752.40 0.211275
3753.69 0.225103
3754.33 0.278859
3754.98 0.375939
3755.62 0.528907
3756.27 0.753930
3756.91 1.07379
3757.56 1.51802
3758.20 2.12745
3758.84 2.95724
3759.49 4.08989
3760.13 5.63944
3760.78 7.77533
3761.42 10.7476
3762.07 14.9610
3762.71 21.0458
3763.36 30.0551
3764.00 43.7833
3764.65 65.5544
3765.29 101.447
3765.94 163.316
3766.58 271.582
3767.34 483.876
3768.10 672.446
3768.86 594.961
3769.62 407.826
3770.27 289.049
3770.92 212.246
3771.57 162.563
3772.22 129.328
3773.53 89.3383
3774.83 67.1948
3776.13 53.5603
3777.43 44.5092
3780.03 33.4463
3782.64 27.0671
3785.24 22.9707
3787.84 20.1365
3790.44 18.0653
3795.65 15.2444
3800.86 13.4073
3806.06 12.1057
3811.27 11.1250
3821.68 9.71248
3832.09 8.69977
3852.91 7.18684
3873.74 5.86377
3884.15 5.15486
3894.56 4.34480
3904.97 3.34889
3910.18 2.73859
3915.38 2.02034
3920.59 1.17807
3923.19 0.734196
3925.80 0.359384
3927.10 0.269134
3927.75 0.277849
3928.40 0.344479
3929.05 0.496197
3929.70 0.774247
3930.35 1.24359
3931.00 2.00838
3931.65 3.24944
3932.30 5.28326
3932.95 8.70891
3933.60 14.7336
3933.93 19.4807
3934.26 26.1045
3934.58 35.6135
3934.91 49.6901
3935.23 71.3730
3935.56 105.926
3935.88 163.301
3936.21 260.234
3937.00 625.963
3937.20 620.097
3937.40 552.089
3937.79 371.958
3938.13 259.713
3938.46 187.537
3938.80 141.182
3939.13 110.370
3939.80 73.7425
3940.47 53.7124
3941.14 41.5230
3941.81 33.4945
3943.15 23.7712
3944.49 18.1848
3945.83 14.5859
3948.51 10.1831
3951.19 7.50500
3953.87 5.60627
3959.23 2.85379
3961.91 1.76882
3964.59 0.879150
3965.93 0.546944
3966.60 0.423684
3967.27 0.338228
3967.94 0.299748
3968.27 0.301886
3968.61 0.320680
3969.28 0.417077
3969.94 0.609692
3970.61 0.927081
3971.28 1.40654
3971.95 2.09885
3972.62 3.07189
3973.29 4.42517
3973.96 6.29401
3974.63 8.87468
3975.30 12.4486
3975.97 17.4569
3976.64 24.5564
3977.31 34.7879
3977.98 49.8071
3978.65 72.4387
3979.32 107.330
3979.99 162.170
3980.66 248.159
3981.68 456.425
3982.70 640.643
3983.72 571.584
3984.74 400.713
3985.50 302.083
3986.27 233.547
3987.03 186.225
3987.79 152.835
3989.32 110.467
3990.85 85.6667
3992.37 69.8238
3993.90 59.0051
3996.95 45.4084
4000.00 37.3411
4003.05 32.0561
4009.16 25.6041
4015.26 21.8311
4021.37 19.3561
4027.47 17.6035
4033.57 16.2924
4045.78 14.4478
4057.99 13.1940
4082.41 11.5402
4106.82 10.4053
4131.24 9.41477
4143.45 8.84938
4149.55 8.50070
4155.66 8.05904
4158.71 7.77879
4161.76 7.43425
4164.81 6.99092
4167.86 6.38577
4169.39 5.98721
4170.92 5.49190
4172.44 4.85913
4173.97 4.02733
4174.73 3.51164
4175.49 2.91795
4176.26 2.25414
4177.02 1.59111
4177.40 1.33808
4177.78 1.25712
4178.16 1.57731
4178.36 2.03653
4178.55 2.84401
4178.74 4.22014
4178.83 5.23216
4178.93 6.53035
4179.12 10.4452
4179.31 17.2106
4179.40 22.4607
4179.50 29.5510
4179.60 39.4912
4179.69 53.3864
4179.79 73.6192
4179.88 103.014
4179.98 146.673
4180.07 211.327
4180.24 385.590
4180.40 540.948
4180.57 483.011
4180.73 337.580
4180.89 231.244
4181.06 166.622
4181.22 126.822
4181.39 101.047
4181.55 83.4773
4181.72 70.9567
4182.05 54.6292
4182.38 44.6680
4182.71 38.0661
4183.37 29.9977
4184.03 25.3122
4184.69 22.2865
4185.35 20.1831
4186.01 18.6429
4187.33 16.5375
4188.65 15.1710
4189.97 14.2116
4191.28 13.4998
4193.92 12.5096
4196.56 11.8481
4199.20 11.3699
4201.84 11.0040
4207.12 10.4705
4212.39 10.0896
4215.03 9.93527
4217.67 9.80277
4218.99 9.74941
4220.31 9.72197
4220.97 9.74069
4221.63 9.84799
4221.96 10.0190
4222.29 10.5058
4222.45 11.1495
4222.54 11.7620
4222.62 12.7954
4222.70 14.7969
4222.74 16.5380
4222.78 19.2924
4222.83 23.9962
4222.87 32.8956
4222.89 40.7613
4222.91 52.1573
4222.93 71.0240
4222.95 100.403
4222.97 154.426
4223.00 191.441
4223.03 154.558
4223.05 100.566
4223.07 73.4924
4223.09 55.2325
4223.11 43.2950
4223.13 35.6274
4223.16 25.9045
4223.20 20.7741
4223.24 17.6324
4223.28 15.6756
4223.35 13.3795
4223.43 12.1591
4223.50 11.4348
4223.65 10.6574
4223.80 10.2646
4223.95 10.0400
4224.25 9.80033
4224.85 9.60519
4225.45 9.51881
4226.64 9.42510
4227.84 9.36175
4232.62 9.16722
4237.41 8.99719
4242.20 8.83586
4251.77 8.51816
4261.34 8.17617
4270.92 7.75347
4275.70 7.47552
4280.49 7.10873
4282.88 6.86954
4285.28 6.57088
4287.67 6.18146
4290.06 5.64475
4291.26 5.28968
4292.46 4.84864
4293.65 4.28629
4294.85 3.55387
4295.45 3.10489
4296.05 2.59766
4296.64 2.04933
4297.24 1.54861
4297.54 1.40381
4297.84 1.45790
4297.99 1.62568
4298.14 1.94816
4298.29 2.51024
4298.44 3.43184
4298.59 4.93736
4298.74 7.36703
4298.89 11.4070
4299.04 18.2346
4299.19 30.4659
4299.26 40.1231
4299.34 53.4122
4299.41 72.5515
4299.49 100.296
4299.56 141.011
4299.63 199.599
4299.77 361.376
4299.90 506.993
4300.03 453.415
4300.17 316.146
4300.25 248.978
4300.33 199.156
4300.49 135.843
4300.66 100.118
4300.82 78.4209
4300.99 64.1160
4301.15 54.2116
4301.48 41.6752
4301.80 34.1843
4302.13 29.3049
4302.79 23.3978
4303.44 19.9952
4304.10 17.8054
4304.75 16.2850
4305.40 15.1719
4306.71 13.6492
4308.02 12.6591
4309.33 11.9619
4310.64 11.4438
4313.26 10.7204
4315.88 10.2347
4318.50 9.88154
4321.12 9.60971
4326.36 9.20989
4331.59 8.91987
4342.07 8.49988
4352.55 8.18117
4363.02 7.90683
4383.97 7.39618
4404.92 6.84370
4415.40 6.51649
4425.87 6.12500
4436.35 5.62373
4441.59 5.30427
4446.83 4.90844
4452.06 4.38504
4454.68 4.04262
4457.30 3.60911
4459.92 3.02433
4461.23 2.64029
4462.54 2.16531
4463.19 1.88567
4463.85 1.57848
4464.50 1.25879
4465.16 0.989236
4465.49 0.932150
4465.81 1.01222
4465.98 1.14805
4466.14 1.38882
4466.30 1.79258
4466.47 2.44294
4466.63 3.49812
4466.80 5.22103
4466.96 8.10845
4467.12 13.1149
4467.20 17.0305
4467.29 22.4619
4467.37 30.1711
4467.45 41.2447
4467.53 58.0497
4467.61 84.1323
4467.70 125.810
4467.78 191.967
4467.89 337.976
4468.00 469.557
4468.06 466.140
4468.11 416.316
4468.22 283.721
4468.35 180.478
4468.47 122.577
4468.60 89.1803
4468.72 68.7126
4468.85 55.1355
4468.97 45.7347
4469.22 33.8850
4469.47 26.8482
4469.72 22.3052
4470.22 16.8513
4470.72 13.7485
4471.22 11.7619
4471.72 10.3827
4472.22 9.36655
4473.21 7.95661
4474.21 7.00490
4476.21 5.73723
4478.20 4.85012
4480.20 4.12079
4484.19 2.80529
4486.19 2.14736
4488.18 1.47981
4490.18 0.844448
4491.18 0.580503
4492.17 0.406192
4492.67 0.376894
4493.17 0.407226
4493.67 0.521082
4494.17 0.752653
4494.67 1.15165
4495.17 1.79177
4495.67 2.78464
4496.17 4.30386
4496.66 6.62760
4497.16 10.2176
4497.66 15.8721
4498.16 25.0387
4498.66 40.4849
4499.16 67.7968
4499.66 118.665
4500.16 215.873
4500.68 393.500
4501.20 554.244
4501.72 496.165
4502.24 345.864
4502.71 246.565
4503.17 182.452
4503.63 141.010
4504.09 113.279
4505.01 79.8081
4505.93 61.1384
4506.85 49.5701
4507.77 41.8306
4509.61 32.2872
4511.46 26.7177
4513.30 23.1085
4515.14 20.5909
4516.98 18.7387
4520.67 16.1965
4524.35 14.5299
4528.04 13.3450
4531.72 12.4515
4539.09 11.1693
4546.46 10.2591
4561.19 8.92142
4575.93 7.74752
4583.30 7.08833
4590.67 6.28218
4594.35 5.78270
4598.04 5.18258
4601.72 4.43738
4605.40 3.48180
4607.25 2.89925
4609.09 2.23753
4610.93 1.50966
4612.77 0.803241
4613.69 0.550044
4614.16 0.488118
4614.62 0.499584
4615.08 0.621295
4615.54 0.908514
4616.00 1.44947
4616.23 1.85450
4616.46 2.38023
4616.92 3.93348
4617.38 6.49243
4617.84 10.7679
4618.30 18.0583
4618.76 31.0495
4618.99 41.2332
4619.22 55.3822
4619.45 75.4726
4619.68 104.191
4619.91 145.808
4620.14 205.838
4620.57 378.482
4621.00 534.656
4621.43 479.785
4621.86 336.482
4622.20 249.448
4622.54 190.309
4622.88 150.369
4623.22 122.684
4623.90 88.1974
4624.58 68.3910
4625.26 55.8646
4625.94 47.3826
4627.30 36.8190
4628.66 30.6005
4630.02 26.5565
4631.38 23.7327
4632.73 21.6569
4635.45 18.8179
4638.17 16.9725
4640.89 15.6760
4643.61 14.7144
4649.05 13.3771
4654.48 12.4840
4659.92 11.8385
4665.36 11.3448
4676.23 10.6257
4687.11 10.1111
4708.85 9.37390
4730.60 8.79752
4741.48 8.51800
4752.35 8.21404
4763.22 7.84186
4768.66 7.60086
4774.10 7.28681
4776.82 7.08386
4779.54 6.83163
4782.25 6.50340
4784.97 6.05014
4786.33 5.74820
4787.69 5.36954
4789.05 4.87914
4790.41 4.22038
4791.09 3.80093
4791.77 3.30341
4792.45 2.71763
4793.13 2.06247
4793.47 1.74336
4793.81 1.49386
4794.15 1.44800
4794.49 1.94464
4794.66 2.64824
4794.83 3.95344
4795.00 6.33401
4795.08 8.19355
4795.17 10.7423
4795.25 14.2769
4795.34 19.2529
4795.42 26.3888
4795.51 36.8487
4795.59 52.5675
4795.68 76.8109
4795.76 115.017
4795.85 174.485
4795.97 318.240
4796.10 449.669
4796.23 404.247
4796.35 282.952
4796.45 212.701
4796.54 163.972
4796.64 130.483
4796.73 106.964
4796.92 77.3011
4797.11 60.1354
4797.30 49.1688
4797.49 41.7561
4797.87 32.4707
4798.25 27.0081
4798.63 23.4583
4799.01 20.9855
4799.39 19.1728
4800.15 16.7026
4800.90 15.1094
4801.66 13.9981
4802.42 13.1794
4803.94 12.0526
4805.45 11.3122
4806.97 10.7852
4808.49 10.3889
4811.52 9.82503
4814.55 9.43464
4820.62 8.90425
4826.68 8.53051
4832.75 8.22440
4844.88 7.66657
4857.01 7.02599
4863.08 6.60465
4869.14 6.04406
4872.18 5.67791
4875.21 5.22292
4878.24 4.63839
4881.28 3.85865
4882.79 3.36491
4884.31 2.78211
4885.83 2.09921
4887.34 1.34166
4888.86 0.701790
4889.24 0.639653
4889.62 0.671933
4890.00 0.856696
4890.37 1.28974
4890.75 2.13439
4890.94 2.79609
4891.13 3.68072
4891.32 4.87416
4891.51 6.47042
4891.70 8.63954
4891.89 11.5800
4892.08 15.6540
4892.27 21.3187
4892.46 29.4189
4892.65 41.1141
4892.84 58.5752
4893.03 84.9756
4893.22 126.080
4893.41 189.421
4893.70 347.658
4894.00 492.486
4894.30 443.219
4894.59 310.763
4894.95 199.824
4895.30 138.234
4895.66 102.821
4896.01 80.9225
4896.36 66.4535
4896.72 56.3610
4897.43 43.4573
4898.13 35.7143
4898.84 30.6280
4900.26 24.4411
4901.67 20.8640
4903.09 18.5522
4904.51 16.9418
4905.92 15.7588
4908.75 14.1367
4911.58 13.0777
4914.42 12.3298
4917.25 11.7720
4922.91 10.9898
4928.57 10.4608
4934.24 10.0722
4939.90 9.76844
4951.23 9.30194
4962.55 8.90952
4968.22 8.69477
4971.05 8.56526
4973.88 8.40311
4976.71 8.17422
4978.13 8.01043
4979.54 7.78326
4980.25 7.63032
4980.96 7.43575
4981.67 7.17820
4982.38 6.81939
4982.73 6.58111
4983.08 6.28490
4983.44 5.90890
4983.79 5.42370
4984.15 4.80672
4984.32 4.46900
4984.50 4.19202
4984.68 4.24969
4984.77 4.68058
4984.85 5.80324
4984.94 8.59746
4984.99 11.2945
4985.03 15.7013
4985.07 23.1664
4985.12 36.4034
4985.14 46.7685
4985.16 61.0658
4985.18 80.9059
4985.21 109.014
4985.23 148.801
4985.25 197.188
4985.30 279.875
4985.32 279.732
4985.35 252.978
4985.39 179.301
4985.42 143.030
4985.45 115.496
4985.51 80.8607
4985.57 61.0944
4985.62 48.9253
4985.68 40.9057
4985.74 35.3204
4985.85 28.1871
4985.96 23.9091
4986.08 21.0990
4986.31 17.6796
4986.54 15.6949
4986.76 14.4186
4986.99 13.5295
4987.22 12.8761
4987.68 11.9804
4988.13 11.3985
4988.59 10.9885
4989.05 10.6849
4989.96 10.2629
4990.87 9.98223
4991.78 9.78079
4992.70 9.62812
4994.52 9.40943
4996.35 9.25746
5000.00 9.05289
5003.73 8.91202
5007.46 8.80592
5011.19 8.72007
5014.92 8.64756
5018.65 8.58511
5022.38 8.53341
5024.25 8.51546
5026.11 8.51594
5027.05 8.54039
5027.98 8.63241
5028.45 8.76939
5028.91 9.15454
5029.14 9.66834
5029.26 10.1623
5029.38 11.0118
5029.49 12.6927
5029.55 14.2004
5029.61 16.6583
5029.67 21.1502
5029.70 24.7937
5029.73 30.1853
5029.76 38.5727
5029.79 52.4145
5029.81 76.7353
5029.84 122.587
5029.87 191.348
5029.90 236.798
5029.93 191.540
5029.96 122.825
5029.98 87.9959
5030.00 65.9907
5030.02 50.7946
5030.04 41.0363
5030.08 29.0089
5030.12 22.6065
5030.16 18.6755
5030.20 16.2138
5030.28 13.3198
5030.36 11.7773
5030.44 10.8609
5030.61 9.87329
5030.77 9.38040
5030.93 9.09912
5031.25 8.80562
5031.90 8.58046
5032.55 8.49355
5033.85 8.41966
5035.14 8.38327
5040.33 8.30324
5050.71 8.18947
5061.08 8.08991
5071.45 7.99794
5081.83 7.91125
5092.20 7.82859
5102.58 7.75050
5107.76 7.72055
5110.36 7.73971
5111.00 7.77482
5111.65 7.88170
5111.98 8.03059
5112.30 8.43647
5112.46 8.96470
5112.62 10.3040
5112.71 11.9093
5112.75 13.3366
5112.79 15.5359
5112.83 19.3833
5112.87 26.4625
5112.89 32.8515
5112.91 42.1360
5112.93 56.6396
5112.95 80.5976
5112.97 123.647
5113.00 153.610
5113.03 123.823
5113.05 80.8169
5113.07 56.8476
5113.09 42.3234
5113.11 32.6485
5113.13 26.6100
5113.17 19.3778
5113.21 15.6339
5113.26 13.3763
5113.30 11.9803
5113.38 10.3583
5113.54 8.99890
5113.70 8.45861
5114.02 8.03765
5114.35 7.87857
5115.00 7.75641
5115.65 7.70891
5118.24 7.64673
5123.43 7.59693
5133.80 7.51772
5154.55 7.36528
5175.29 7.21158
5185.67 7.13504
5190.86 7.10598
5193.45 7.13130
5194.10 7.17302
5194.75 7.29791
5195.07 7.47011
5195.39 7.93450
5195.56 8.53157
5195.72 10.0195
5195.80 11.7654
5195.88 15.5957
5195.92 19.5213
5195.96 26.4532
5195.98 32.4463
5196.00 40.7973
5196.02 53.1746
5196.04 71.4880
5196.07 110.917
5196.10 136.092
5196.13 109.647
5196.16 71.6503
5196.19 44.1536
5196.23 30.0171
5196.26 22.3788
5196.29 18.0185
5196.36 13.3109
5196.43 11.0965
5196.56 9.12008
5196.70 8.30536
5196.97 7.64913
5197.24 7.39670
5197.78 7.20243
5198.31 7.12848
5200.47 7.04091
5204.77 6.98718
5213.39 6.91028
5222.00 6.83456
5230.61 6.75602
5247.84 6.58564
5265.07 6.38814
5282.30 6.14257
5290.91 5.98744
5299.52 5.79296
5308.14 5.52554
5312.44 5.34059
5316.75 5.09146
5318.90 4.92752
5321.06 4.72221
5323.21 4.45405
5325.36 4.08472
5326.44 3.84059
5327.52 3.53733
5328.59 3.15124
5329.67 2.64882
5330.21 2.34093
5330.75 1.99329
5331.29 1.61782
5331.82 1.27623
5332.36 1.22172
5332.63 1.57061
5332.90 2.62134
5333.04 3.69017
5333.17 5.41992
5333.30 8.31399
5333.44 13.2405
5333.51 17.0576
5333.57 22.1781
5333.64 29.2569
5333.71 39.2357
5333.78 53.8609
5333.84 75.1077
5333.91 106.856
5333.98 154.287
5334.09 278.122
5334.20 392.608
5334.26 392.336
5334.31 353.098
5334.42 245.260
5334.50 186.502
5334.58 145.275
5334.66 116.274
5334.73 95.5411
5334.89 68.8117
5335.04 53.1793
5335.20 43.1244
5335.35 36.3210
5335.66 27.7918
5335.97 22.7858
5336.28 19.5442
5336.59 17.2947
5336.90 15.6518
5337.51 13.4267
5338.13 11.9982
5338.75 11.0071
5339.37 10.2814
5340.60 9.28690
5341.84 8.63755
5343.07 8.17749
5344.31 7.83293
5346.78 7.34459
5349.25 7.00813
5354.19 6.55226
5359.14 6.23106
5364.08 5.96737
5373.96 5.48553
5383.85 4.93664
5388.79 4.58196
5393.73 4.11903
5396.20 3.82202
5398.68 3.45885
5401.15 3.00156
5403.62 2.40883
5404.85 2.04524
5406.09 1.63092
5407.32 1.17379
5408.56 0.731637
5409.18 0.576376
5409.80 0.555749
5410.10 0.643551
5410.41 0.843127
5410.72 1.21424
5411.03 1.85075
5411.34 2.91743
5411.65 4.69298
5411.96 7.69044
5412.27 12.9083
5412.58 22.4393
5412.73 30.1546
5412.88 41.0680
5413.04 57.0627
5413.19 80.7247
5413.35 116.542
5413.50 170.806
5413.75 309.525
5414.00 437.893
5414.13 438.086
5414.25 394.440
5414.50 274.337
5414.69 203.503
5414.88 155.129
5415.07 122.197
5415.26 99.2606
5415.63 70.6090
5416.01 54.1337
5416.39 43.7563
5416.77 36.7519
5417.52 28.0687
5418.28 22.9987
5419.04 19.7216
5419.79 17.4477
5420.55 15.7855
5422.06 13.5274
5423.57 12.0723
5425.09 11.0572
5426.60 10.3081
5429.62 9.27246
5432.65 8.58494
5435.67 8.08901
5438.70 7.70969
5444.74 7.15419
5450.79 6.75117
5462.89 6.15942
5474.99 5.69283
5487.09 5.26877
5511.28 4.39956
5535.48 3.33174
5547.57 2.65348
5559.67 1.83485
5571.77 0.876292
5577.82 0.405290
5580.84 0.216123
5582.35 0.147215
5583.87 0.104841
5585.38 0.0993862
5586.89 0.145237
5588.40 0.262546
5589.91 0.480020
5591.43 0.839506
5592.94 1.40189
5594.45 2.25990
5595.96 3.55692
5597.48 5.52343
5598.99 8.53564
5600.50 13.2472
5602.01 20.8373
5603.52 33.5536
5605.04 55.9221
5606.55 97.4076
5608.06 176.773
5609.63 321.112
5611.20 456.034
5611.99 457.002
5612.77 412.232
5614.34 286.936
5615.37 221.818
5616.39 174.445
5618.44 115.763
5620.49 83.5578
5622.54 64.2445
5624.59 51.7343
5626.63 43.1154
5630.73 32.1805
5634.83 25.5971
5638.93 21.1852
5647.12 15.4524
5655.32 11.4351
5659.42 9.58147
5663.52 7.61403
5667.61 5.32610
5669.66 3.98696
5671.71 2.51137
5673.76 1.08127
5674.27 0.813369
5674.79 0.641334
5675.30 0.626951
5675.81 0.872563
5676.07 1.14406
5676.32 1.55268
5676.58 2.14131
5676.83 2.96650
5677.09 4.10520
5677.35 5.66343
5677.60 7.78934
5677.86 10.6930
5678.11 14.6772
5678.37 20.1854
5678.63 27.8778
5678.88 38.7510
5679.14 54.3232
5679.39 76.8961
5679.65 109.842
5679.91 157.582
5680.40 302.442
5680.90 436.766
5681.40 398.442
5681.89 286.540
5682.19 231.662
5682.49 190.054
5683.09 135.274
5683.69 103.127
5684.28 82.9157
5684.88 69.3209
5685.47 59.7161
5686.67 47.1942
5687.86 39.4973
5689.05 34.3371
5691.44 27.8782
5693.83 23.9930
5696.21 21.3825
5700.99 18.0350
5705.76 15.9055
5710.53 14.3619
5720.08 12.0682
5729.62 10.0978
5734.39 9.03483
5739.17 7.78178
5743.94 6.14794
5746.33 5.08682
5748.71 3.78295
5751.10 2.20477
5752.29 1.37950
5752.89 1.01291
5753.48 0.738387
5754.08 0.650241
5754.38 0.727655
5754.68 0.930628
5754.98 1.31240
5755.27 1.94551
5755.57 2.94152
5755.87 4.46713
5756.17 6.78891
5756.47 10.2997
5756.77 15.6697
5757.06 24.0139
5757.36 37.3172
5757.66 58.9160
5757.96 94.8570
5758.26 154.758
5758.68 295.900
5759.10 427.260
5759.52 389.964
5759.94 280.166
5760.40 192.984
5760.85 140.722
5761.31 108.688
5761.76 88.0195
5762.22 73.8723
5762.67 63.7728
5763.58 50.4854
5764.49 42.2816
5765.40 36.7772
5767.22 29.9305
5769.03 25.8689
5770.85 23.1906
5772.67 21.2918
5774.49 19.8738
5778.12 17.8866
5781.76 16.5505
5789.03 14.8371
5796.30 13.7557
5803.57 12.9898
5818.11 11.9363
5832.65 11.2082
5847.19 10.6463
5876.28 9.76376
5905.36 8.98735
5919.90 8.57250
5934.44 8.08621
5948.98 7.43984
5956.25 6.99659
5963.52 6.40102
5967.16 6.01111
5970.80 5.52672
5974.43 4.90475
5978.07 4.07526
5979.88 3.54958
5981.70 2.92725
5983.52 2.19453
5985.34 1.36934
5987.15 0.624800
5987.61 0.524492
5988.06 0.510027
5988.52 0.634681
5988.97 0.986353
5989.43 1.71591
5989.65 2.29616
5989.88 3.08192
5990.11 4.14610
5990.34 5.57355
5990.56 7.50068
5990.79 10.1175
5991.02 13.7200
5991.24 18.6921
5991.47 25.6775
5991.70 35.6528
5991.93 50.1548
5992.15 71.6096
5992.38 103.749
5992.61 151.744
5993.00 284.314
5993.40 408.892
5993.80 372.711
5994.19 264.832
5994.66 174.660
5995.12 123.311
5995.58 93.1551
5996.04 74.2182
5996.50 61.5373
5996.96 52.6337
5997.88 41.1340
5998.80 34.1519
5999.72 29.5333
6001.56 23.8642
6003.40 20.5527
6005.24 18.3976
6007.08 16.8859
6008.92 15.7690
6012.60 14.2264
6016.28 13.2090
6019.96 12.4835
6023.64 11.9365
6031.01 11.1568
6038.37 10.6158
6053.09 9.87757
6067.82 9.34818
6082.54 8.88221
6089.91 8.62976
6093.59 8.48287
6097.27 8.30619
6100.95 8.06943
6102.79 7.90666
6104.63 7.68667
6105.55 7.54087
6106.47 7.35710
6107.39 7.11501
6108.31 6.77738
6108.77 6.55113
6109.23 6.26755
6109.69 5.90098
6110.15 5.41169
6110.61 4.74179
6110.84 4.32438
6111.07 3.87471
6111.30 3.53268
6111.42 3.56682
6111.53 4.02770
6111.65 5.59825
6111.71 7.35767
6111.76 10.4048
6111.82 16.0576
6111.88 26.6938
6111.91 35.6960
6111.94 48.7761
6111.97 67.9825
6111.99 95.4950
6112.02 130.946
6112.05 176.250
6112.10 252.049
6112.13 253.568
6112.15 230.954
6112.21 164.720
6112.25 126.044
6112.29 98.5846
6112.33 79.6016
6112.37 66.4911
6112.45 49.3761
6112.52 39.4721
6112.60 33.0571
6112.68 28.7295
6112.84 23.2492
6113.00 20.0003
6113.16 17.8758
6113.32 16.3881
6113.48 15.2928
6113.80 13.7941
6114.11 12.8204
6114.43 12.1385
6114.75 11.6360
6115.39 10.9401
6116.02 10.4815
6116.66 10.1551
6117.29 9.91009
6118.56 9.56231
6119.84 9.32403
6122.38 9.00762
6124.92 8.79581
6127.46 8.63484
6132.55 8.38556
6152.89 7.59081
6163.06 7.09630
6168.15 6.76497
6173.23 6.32324
6175.78 6.03431
6178.32 5.67401
6180.86 5.20724
6183.41 4.57334
6184.68 4.16155
6185.95 3.66053
6187.22 3.04206
6188.49 2.28051
6189.76 1.40051
6190.40 1.00389
6191.03 0.845178
6191.35 1.00613
6191.67 1.51942
6191.99 2.70660
6192.15 3.74071
6192.31 5.23498
6192.46 7.43129
6192.62 10.6768
6192.78 15.5522
6192.94 23.0396
6193.10 34.8586
6193.26 54.1029
6193.42 86.3498
6193.58 140.384
6193.79 261.252
6194.00 375.578
6194.11 377.785
6194.21 342.659
6194.42 242.843
6194.57 188.315
6194.71 148.904
6194.86 120.822
6195.00 100.643
6195.29 74.2672
6195.58 58.4550
6195.87 48.2045
6196.16 41.1390
6196.74 32.1909
6197.32 26.8548
6197.89 23.3553
6198.47 20.9012
6199.05 19.0929
6200.21 16.6153
6201.36 15.0064
6202.52 13.8784
6203.67 13.0437
6205.99 11.8882
6208.30 11.1226
6210.61 10.5731
6212.92 10.1561
6217.55 9.55429
6222.17 9.12856
6231.42 8.52964
6240.67 8.08588
6249.92 7.70488
6268.42 6.97281
6286.92 6.10929
6296.17 5.55259
6305.42 4.84137
6314.67 3.86887
6319.30 3.22581
6323.92 2.42862
6328.55 1.44364
6330.86 0.901239
6333.17 0.418422
6334.33 0.279114
6334.91 0.267911
6335.49 0.319873
6336.06 0.464035
6336.64 0.743984
6337.22 1.22668
6337.80 2.01778
6338.38 3.28946
6338.95 5.33307
6339.53 8.66431
6340.11 14.2460
6340.69 23.9904
6341.27 41.9649
6341.55 56.5593
6341.84 77.3347
6342.13 107.234
6342.42 150.158
6342.96 274.044
6343.50 391.810
6343.77 394.037
6344.04 356.250
6344.58 248.510
6345.06 175.037
6345.55 127.974
6346.03 97.8453
6346.52 77.8093
6347.49 53.8492
6348.46 40.5681
6349.43 32.3249
6350.40 26.7842
6352.34 19.8263
6354.28 15.5863
6356.22 12.6419
6360.09 8.47356
6363.97 5.11898
6365.91 3.49471
6367.85 1.91263
6368.82 1.21036
6369.79 0.691229
6370.27 0.565462
6370.76 0.592305
6371.24 0.851506
6371.73 1.46659
6371.97 1.96846
6372.21 2.64133
6372.46 3.53713
6372.70 4.70868
6373.18 8.24047
6373.67 14.2382
6374.15 24.6067
6374.64 42.9540
6375.12 76.3210
6375.61 137.202
6376.20 268.158
6376.80 391.303
6377.40 359.809
6377.99 261.254
6378.39 208.134
6378.79 168.818
6379.58 118.778
6380.37 90.3183
6381.16 72.7302
6381.95 61.0510
6382.74 52.8399
6384.32 42.1970
6385.90 35.6775
6387.48 31.3059
6390.64 25.8382
6393.80 22.5598
6396.96 20.3726
6403.28 17.6214
6409.60 15.9467
6415.92 14.8100
6428.56 13.3477
6441.20 12.4329
6453.84 11.7971
6479.12 10.9534
6504.40 10.4022
6529.69 10.0003
6580.25 9.41930
6630.81 8.96803
6656.10 8.75202
6681.38 8.51938
6706.66 8.23684
6719.30 8.05479
6731.94 7.81840
6744.58 7.47729
6750.90 7.23209
6757.22 6.89337
6760.39 6.66697
6763.55 6.38085
6766.71 6.00474
6769.87 5.48376
6771.45 5.13815
6773.03 4.70782
6774.61 4.15738
6776.19 3.43315
6776.98 2.98338
6777.77 2.46377
6778.56 1.87738
6779.35 1.27379
6780.14 0.893111
6780.53 1.05191
6780.73 1.34729
6780.93 1.89325
6781.12 2.84435
6781.32 4.44255
6781.52 7.15325
6781.72 11.7800
6781.91 20.0196
6782.01 26.4520
6782.11 35.2222
6782.21 47.5978
6782.31 65.1331
6782.41 90.1714
6782.51 125.322
6782.70 234.682
6782.90 339.497
6783.00 342.430
6783.10 311.512
6783.29 221.775
6783.48 157.113
6783.67 116.155
6783.86 90.1359
6784.04 72.9752
6784.41 52.3993
6784.79 40.9739
6785.16 33.8764
6785.53 29.1304
6786.28 23.2445
6787.03 19.7752
6787.77 17.5065
6788.52 15.9047
6789.27 14.7137
6790.76 13.0430
6792.25 11.9026
6793.75 11.0428
6795.24 10.3364
6798.22 9.09345
6799.72 8.44011
6801.21 7.66737
6801.96 7.19718
6802.70 6.63809
6803.45 5.94744
6804.20 5.06576
6804.57 4.52644
6804.94 3.91196
6805.32 3.22654
6805.69 2.53030
6806.06 2.09869
6806.25 2.27777
6806.44 3.19879
6806.53 4.23087
6806.62 5.93007
6806.72 8.73603
6806.81 13.4191
6806.86 16.9151
6806.90 21.5294
6806.95 27.6735
6807.00 35.7289
6807.04 46.8568
6807.09 61.6814
6807.14 82.3570
6807.18 109.770
6807.29 209.834
6807.40 305.137
6807.46 308.528
6807.51 281.573
6807.62 203.783
6807.69 162.899
6807.76 132.723
6807.90 93.6611
6808.04 71.3230
6808.18 57.5094
6808.31 48.3537
6808.45 41.9369
6808.73 33.6669
6809.01 28.6456
6809.29 25.3094
6809.84 21.1957
6810.40 18.7668
6810.95 17.1736
6811.51 16.0451
6812.06 15.2058
6813.18 14.0342
6814.29 13.2519
6815.40 12.6888
6816.51 12.2615
6818.73 11.6499
6820.95 11.2279
6825.40 10.6712
6829.84 10.3108
6834.29 10.0528
6843.18 9.69854
6852.06 9.45970
6856.51 9.36572
6860.95 9.28401
6865.40 9.21302
6869.84 9.15479
6874.29 9.13948
6875.40 9.17212
6876.51 9.29087
6877.07 9.46613
6877.62 9.95803
6877.90 10.6153
6878.04 11.2441
6878.18 12.3349
6878.32 14.4736
6878.39 16.4234
6878.45 19.5600
6878.52 25.2534
6878.56 29.9439
6878.59 36.6595
6878.63 47.3662
6878.66 64.3901
6878.70 94.8514
6878.73 147.685
6878.77 232.371
6878.80 286.851
6878.84 230.198
6878.87 148.188
6878.89 107.902
6878.92 80.9366
6878.94 62.9003
6878.96 50.9868
6879.01 35.7832
6879.06 27.5600
6879.11 22.4899
6879.15 19.2856
6879.25 15.5347
6879.34 13.4979
6879.44 12.2950
6879.63 10.9839
6880.00 9.95079
6880.38 9.55763
6881.14 9.25620
6881.89 9.14041
6883.41 9.04423
6884.92 8.99912
6890.97 8.90860
6897.02 8.84660
6903.07 8.79260
6915.17 8.69758
6927.27 8.61413
6951.46 8.46967
6975.66 8.34450
7024.06 8.12578
7072.45 7.92724
7169.24 7.53638
7193.44 7.43290
7217.64 7.32473
7241.83 7.21103
7253.93 7.15557
7259.98 7.14638
7261.50 7.16198
7263.01 7.22163
7263.76 7.31173
7264.52 7.57050
7264.90 7.92297
7265.28 8.87044
7265.46 10.0880
7265.56 11.2271
7265.65 13.1230
7265.75 16.7115
7265.80 19.7691
7265.84 24.4996
7265.89 32.5436
7265.94 46.8476
7265.96 58.8542
7265.98 75.5715
7266.01 101.495
7266.03 138.307
7266.07 218.492
7266.10 270.103
7266.14 216.506
7266.17 138.880
7266.19 103.377
7266.21 78.7754
7266.26 49.8775
7266.30 34.9917
7266.35 26.5663
7266.39 21.4016
7266.43 18.0290
7266.52 14.0907
7266.61 11.9271
7266.70 10.6297
7266.87 9.22514
7267.22 8.10841
7267.57 7.68380
7268.27 7.35959
7268.97 7.23795
7270.38 7.14284
7271.78 7.10337
7277.39 7.04042
7288.60 6.96848
7311.04 6.83101
7333.47 6.68017
7355.90 6.50817
7378.34 6.30339
7400.77 6.03787
7411.99 5.85671
7417.60 5.74065
7423.20 5.59300
7428.81 5.38562
7431.62 5.23932
7434.42 5.03891
7435.82 4.90537
7437.22 4.73645
7438.63 4.51380
7440.03 4.20391
7440.73 3.99760
7441.43 3.73982
7442.13 3.40940
7442.83 2.97483
7443.53 2.39789
7444.23 1.72180
7444.59 1.57341
7444.76 1.76150
7444.94 2.44624
7445.11 4.37946
7445.20 6.39232
7445.29 9.78598
7445.37 15.8749
7445.42 20.6581
7445.46 27.1286
7445.51 36.4480
7445.55 49.8207
7445.59 69.2165
7445.64 96.5085
7445.72 177.378
7445.80 255.518
7445.84 257.919
7445.88 234.365
7445.96 165.709
7446.02 131.002
7446.07 105.593
7446.17 73.0104
7446.27 54.3232
7446.37 42.9865
7446.47 35.4653
7446.57 30.2936
7446.77 23.6936
7446.97 19.7229
7447.17 17.1205
7447.57 13.9663
7447.97 12.1393
7448.37 10.9619
7448.78 10.1398
7449.18 9.53711
7449.98 8.71037
7450.78 8.17065
7451.59 7.78991
7452.39 7.50643
7453.99 7.10911
7455.60 6.84138
7457.20 6.64570
7458.81 6.49440
7462.02 6.26967
7465.23 6.10417
7471.65 5.85784
7478.08 5.66302
7484.50 5.48874
7497.34 5.15094
7510.19 4.78033
7523.03 4.31606
7529.46 4.00696
7532.67 3.81343
7535.88 3.57360
7539.09 3.25064
7540.69 3.03304
7542.30 2.74932
7543.91 2.35240
7544.71 2.08519
7545.51 1.75139
7546.31 1.34259
7547.12 0.977719
7547.52 1.09832
7547.72 1.47408
7547.92 2.39712
7548.12 4.64061
7548.22 6.82962
7548.32 10.4609
7548.42 16.8576
7548.47 21.7874
7548.52 28.5996
7548.57 38.1912
7548.62 51.9426
7548.67 71.9247
7548.72 100.949
7548.90 259.370
7548.95 261.067
7548.99 235.764
7549.08 164.038
7549.14 126.115
7549.20 99.0852
7549.31 65.5367
7549.43 47.3132
7549.55 36.4846
7549.66 29.5311
7549.78 24.7825
7550.01 18.8604
7550.25 15.3637
7550.48 13.1082
7550.95 10.3920
7551.42 8.83747
7551.88 7.83687
7552.35 7.13971
7552.82 6.62543
7553.75 5.91305
7554.69 5.43816
7556.55 4.82572
7558.42 4.42663
7560.29 4.12808
7564.03 3.66852
7571.50 2.92536
7578.98 2.17961
7586.45 1.32152
7590.19 0.845935
7593.92 0.387497
7595.79 0.213066
7597.66 0.146692
7598.60 0.191213
7599.53 0.323397
7600.46 0.589246
7601.40 1.06260
7602.33 1.86721
7603.27 3.21378
7604.20 5.48885
7605.13 9.43715
7606.07 16.6143
7606.54 22.3618
7607.00 30.5003
7607.47 42.2756
7607.94 59.6879
7608.40 85.8940
7608.87 125.435
7610.40 329.410
7610.78 333.273
7611.17 302.438
7611.93 210.730
7612.41 163.855
7612.89 129.350
7613.85 86.0431
7614.81 62.0355
7615.77 47.5825
7616.73 38.1920
7617.69 31.7223
7619.62 23.5361
7621.54 18.6401
7623.46 15.4053
7627.30 11.3685
7631.14 8.87839
7634.99 7.10149
7642.67 4.46318
7650.36 2.26237
7654.20 1.24879
7656.12 0.795235
7658.04 0.421353
7659.00 0.284801
7659.96 0.199576
7660.92 0.185616
7661.88 0.270943
7662.84 0.495994
7663.80 0.918628
7664.77 1.62590
7665.73 2.74580
7666.69 4.48004
7667.65 7.14230
7668.61 11.2425
7669.57 17.6230
7670.53 27.7549
7671.49 44.1637
7672.45 71.3136
7673.41 116.164
7674.81 225.199
7676.20 330.807
7677.60 306.863
7678.99 222.304
7680.35 158.785
7681.72 118.448
7683.08 92.7248
7684.44 75.6010
7685.80 63.6647
7687.16 54.9966
7689.89 43.4350
7692.61 36.1927
7695.34 31.2854
7700.78 25.1182
7706.23 21.4238
7711.68 18.9679
7722.58 15.8925
7733.47 14.0190
7744.37 12.7301
7766.16 10.9820
7787.95 9.68831
7798.85 9.06722
7809.75 8.38104
7820.64 7.51483
7826.09 6.94115
7831.54 6.18958
7834.26 5.70821
7836.99 5.12114
7839.71 4.38573
7842.44 3.44017
7843.80 2.86528
7845.16 2.21445
7846.52 1.50251
7847.88 0.813965
7848.56 0.562800
7849.25 0.493244
7849.59 0.586648
7849.93 0.820711
7850.27 1.26579
7850.61 2.02524
7850.95 3.27181
7851.29 5.27081
7851.63 8.49403
7851.97 13.7208
7852.31 22.4318
7852.65 37.2762
7852.99 63.4595
7853.33 109.742
7853.77 212.182
7854.20 311.965
7854.64 289.724
7855.07 209.882
7855.39 162.580
7855.71 128.745
7856.02 104.886
7856.34 87.7666
7856.98 65.6363
7857.61 52.4181
7858.25 43.8437
7858.89 37.9168
7860.16 30.3708
7861.43 25.8239
7862.70 22.8131
7863.97 20.6815
7865.24 19.0973
7867.79 16.8977
7870.33 15.4420
7872.87 14.4021
7875.42 13.6171
7880.50 12.4952
7885.59 11.7114
7895.76 10.6139
7905.94 9.75270
7911.02 9.31727
7916.11 8.81814
7921.20 8.16282
7923.74 7.71547
7926.28 7.11532
7927.56 6.72282
7928.83 6.23571
7930.10 5.61150
7931.37 4.78266
7932.01 4.25929
7932.64 3.64225
7933.28 2.91976
7933.91 2.11278
7934.55 1.38713
7934.87 1.26527
7935.19 1.67677
7935.34 2.31122
7935.50 3.48683
7935.66 5.58125
7935.82 9.29277
7935.90 12.1580
7935.98 15.9791
7936.06 21.2525
7936.14 28.4194
7936.22 38.5141
7936.30 52.4998
7936.38 72.1630
7936.46 99.6192
7936.63 192.755
7936.80 284.173
7936.89 288.694
7936.97 264.750
7937.14 192.566
7937.29 144.598
7937.43 111.965
7937.58 89.9513
7937.72 74.7764
7938.01 55.6596
7938.29 44.6178
7938.58 37.5557
7938.87 32.7447
7939.44 26.6679
7940.02 23.0282
7940.59 20.6273
7941.17 18.9315
7941.74 17.6744
7942.89 15.9314
7944.04 14.7828
7945.19 13.9659
7946.34 13.3542
7948.64 12.4925
7950.94 11.9080
7953.24 11.4793
7955.54 11.1470
7960.13 10.6526
7964.73 10.2880
7973.93 9.73980
7983.12 9.27491
7987.72 9.03088
7992.32 8.74697
7996.91 8.36990
7999.21 8.10959
8001.51 7.75570
8002.66 7.52035
8003.81 7.22342
8004.96 6.83261
8006.11 6.29165
8006.68 5.93331
8007.26 5.48856
8007.83 4.92431
8008.41 4.19621
8008.98 3.25888
8009.27 2.73084
8009.56 2.25437
8009.85 2.14826
8009.99 2.54827
8010.13 3.71890
8010.28 6.65714
8010.35 9.47297
8010.42 13.8785
8010.49 21.1201
8010.56 33.2061
8010.64 53.8857
8010.71 88.8198
8010.80 170.198
8010.90 250.482
8010.95 254.531
8011.00 233.623
8011.09 169.857
8011.20 115.909
8011.31 84.4075
8011.42 65.4380
8011.53 53.3055
8011.64 45.0195
8011.75 39.1848
8011.97 31.5550
8012.19 26.8482
8012.41 23.7172
8012.84 19.8345
8013.28 17.5403
8013.72 16.0375
8014.15 14.9799
8014.59 14.1978
8015.46 13.1140
8016.34 12.4006
8017.21 11.8933
8018.08 11.5136
8019.83 10.9793
8021.58 10.6179
8023.32 10.3540
8025.07 10.1506
8028.56 9.85139
8032.06 9.63596
8039.04 9.33063
8046.03 9.10978
8053.02 8.93182
8066.99 8.64107
8094.94 8.16224
8122.89 7.70359
8150.84 7.17808
8164.81 6.85280
8178.79 6.44525
8192.76 5.88419
8199.75 5.49787
8206.73 4.98369
8210.23 4.65134
8213.72 4.24335
8217.21 3.72686
8220.71 3.05034
8222.45 2.62839
8224.20 2.13573
8225.95 1.56634
8227.69 0.944199
8228.57 0.649451
8229.44 0.427494
8230.32 0.401212
8230.75 0.542736
8231.19 0.871295
8231.63 1.50560
8232.06 2.64805
8232.28 3.51663
8232.50 4.66504
8232.94 8.24294
8233.15 11.0242
8233.37 14.8052
8233.59 20.0310
8233.81 27.3584
8234.03 37.8500
8234.25 52.9551
8234.46 75.0057
8234.68 107.094
8235.09 202.359
8235.50 296.258
8235.71 300.843
8235.91 274.867
8236.32 196.582
8236.73 137.124
8237.14 100.222
8237.54 77.1990
8237.95 62.1462
8238.36 51.8059
8238.77 44.3875
8239.58 34.6320
8240.40 28.6180
8241.22 24.5948
8242.85 19.6117
8244.48 16.6748
8246.11 14.7457
8247.74 13.3798
8249.37 12.3582
8252.64 10.9136
8255.90 9.91633
8262.43 8.52872
8268.96 7.43170
8272.22 6.87083
8275.48 6.22735
8278.75 5.39538
8280.38 4.84452
8282.01 4.13676
8282.83 3.69649
8283.64 3.17868
8284.46 2.56767
8285.27 1.86403
8286.09 1.16320
8286.50 0.953415
8286.91 1.10613
8287.11 1.49283
8287.31 2.29035
8287.52 3.81506
8287.72 6.68299
8287.82 8.97625
8287.93 12.1745
8288.03 16.6893
8288.13 23.1565
8288.23 32.5727
8288.33 46.5044
8288.44 67.3537
8288.54 98.0938
8288.72 186.555
8288.90 273.961
8288.99 278.364
8289.08 254.802
8289.26 183.383
8289.42 136.457
8289.57 104.821
8289.72 83.5220
8289.87 68.7905
8290.17 50.4509
8290.47 39.8818
8290.77 33.1620
8291.07 28.6049
8291.67 22.8780
8292.27 19.4646
8292.87 17.2217
8293.47 15.6376
8294.07 14.4599
8295.27 12.8220
8296.47 11.7316
8297.67 10.9464
8298.87 10.3483
8301.27 9.47935
8303.67 8.85922
8308.48 7.97497
8313.28 7.30845
8318.08 6.72850
8327.69 5.59918
8332.49 4.97566
8337.29 4.26604
8342.09 3.42867
8346.90 2.41896
8351.70 1.23264
8354.10 0.643228
8355.30 0.399706
8356.50 0.242674
8357.70 0.251154
8358.30 0.359661
8358.90 0.573195
8359.50 0.933241
8360.10 1.49672
8360.70 2.34837
8361.30 3.61281
8361.91 5.48186
8362.51 8.24018
8363.11 12.3498
8363.71 18.5558
8364.31 28.1130
8364.91 43.0676
8365.51 66.8701
8366.11 104.708
8367.05 203.366
8368.00 300.612
8368.95 280.314
8369.89 203.429
8370.46 164.933
8371.03 135.482
8372.17 96.7011
8373.30 73.9048
8374.44 59.5734
8375.57 49.9532
8376.71 43.1604
8378.98 34.3315
8381.25 28.9258
8383.52 25.3151
8388.06 20.8336
8392.60 18.1770
8397.14 16.4230
8401.68 15.1767
8406.23 14.2432
8415.31 12.9300
8424.39 12.0406
8442.56 10.8835
8460.72 10.1309
8478.89 9.57226
8515.22 8.71615
8551.55 7.96774
8587.88 7.13365
8606.04 6.59803
8615.12 6.26688
8624.21 5.86207
8633.29 5.32868
8637.83 4.97688
8642.37 4.52435
8646.91 3.89476
8649.18 3.46514
8651.45 2.90830
8652.59 2.56171
8653.73 2.15609
8654.86 1.68207
8656.00 1.14806
8657.13 0.652880
8657.70 0.552996
8657.98 0.609895
8658.27 0.800547
8658.55 1.21602
8658.83 2.01518
8659.12 3.49400
8659.26 4.65195
8659.40 6.22302
8659.54 8.40468
8659.69 11.4529
8659.83 15.7771
8659.97 22.0237
8660.11 31.2334
8660.25 45.0982
8660.40 66.3237
8660.54 98.5767
8660.77 184.152
8661.00 269.464
8661.12 273.919
8661.23 250.247
8661.46 177.958
8661.61 139.843
8661.76 111.792
8662.06 76.3669
8662.35 56.4758
8662.65 44.4314
8662.95 36.5325
8663.24 31.0782
8663.84 24.1240
8664.43 19.9584
8665.02 17.2170
8666.21 13.8604
8667.39 11.8925
8668.58 10.5971
8669.77 9.67410
8670.95 8.97790
8673.32 7.97834
8675.70 7.27345
8680.44 6.27728
8685.18 5.52631
8689.93 4.86815
8699.41 3.58252
8708.90 2.13872
8713.64 1.33724
8718.39 0.561094
8720.76 0.262279
8721.94 0.168824
8723.13 0.137502
8724.32 0.197761
8725.50 0.393213
8726.69 0.789573
8727.28 1.09277
8727.87 1.48714
8729.06 2.64609
8730.25 4.52332
8731.43 7.54830
8732.62 12.4623
8733.80 20.5903
8734.99 34.3707
8736.18 58.3147
8737.36 100.087
8738.93 195.575
8740.50 290.141
8742.07 271.522
8743.64 197.855
8744.60 160.108
8745.56 131.352
8747.48 93.6341
8749.40 71.5771
8751.32 57.7415
8753.24 48.4685
8755.16 41.9205
8759.00 33.4037
8762.85 28.1812
8766.69 24.6820
8774.37 20.3110
8782.05 17.6865
8789.73 15.9188
8797.41 14.6240
8805.09 13.6088
8820.46 12.0019
8828.14 11.2682
8835.82 10.4821
8843.50 9.51198
8847.34 8.87509
8851.18 8.04096
8853.10 7.50442
8855.02 6.84677
8856.95 6.01480
8858.87 4.92821
8859.83 4.25326
8860.79 3.47126
8861.75 2.57773
8862.71 1.62030
8863.67 0.858278
8864.15 0.837100
8864.39 1.05057
8864.63 1.52412
8864.87 2.40243
8865.11 3.92112
8865.35 6.47533
8865.59 10.7495
8865.83 17.9684
8866.07 30.3845
8866.31 52.1478
8866.55 90.3066
8866.87 180.874
8867.20 270.868
8867.53 254.900
8867.85 188.403
8868.10 148.130
8868.34 119.125
8868.58 98.4507
8868.82 83.4743
8869.30 63.8527
8869.78 52.0005
8870.26 44.2117
8870.74 38.7905
8871.70 31.8097
8872.66 27.5537
8873.62 24.7137
8874.58 22.6872
8875.54 21.1738
8877.46 19.0619
8879.38 17.6578
8881.30 16.6540
8883.22 15.8980
8887.07 14.8275
8890.91 14.0979
8898.59 13.1462
8906.28 12.5330
8913.96 12.0910
8929.33 11.4707
8944.70 11.0343
8960.07 10.6959
8990.81 10.1780
9052.28 9.42590
9113.76 8.79113
9175.23 8.10242
9205.97 7.67492
9236.71 7.12761
9267.44 6.35026
9282.81 5.80264
9298.18 5.06637
9305.87 4.59033
9313.55 4.01022
9321.24 3.28957
9328.92 2.38306
9336.60 1.26733
9340.45 0.676896
9342.37 0.411961
9344.29 0.208946
9346.21 0.132764
9347.17 0.177126
9348.13 0.306409
9349.09 0.555342
9350.05 0.972917
9351.01 1.63251
9351.97 2.64065
9352.93 4.16384
9353.89 6.45466
9354.85 9.92699
9355.81 15.2436
9356.78 23.5434
9357.74 36.7318
9358.70 58.0908
9359.66 92.6061
9361.13 181.165
9362.60 270.124
9363.34 275.830
9364.07 253.835
9365.54 185.027
9366.67 142.232
9367.79 111.980
9368.91 90.8843
9370.04 75.8831
9372.28 56.6624
9374.53 45.2697
9376.78 37.9058
9379.02 32.8271
9383.51 26.3580
9388.01 22.4536
9392.50 19.8566
9401.48 16.6167
9410.47 14.6564
9419.45 13.3140
9423.95 12.7805
9428.44 12.3139
9432.93 11.9325
9434.05 11.8808
9435.18 11.9229
9435.74 12.0682
9436.30 12.5511
9436.58 13.2277
9436.86 15.0143
9437.00 17.2343
9437.07 19.2084
9437.14 22.3880
9437.21 27.9565
9437.28 38.9017
9437.32 48.6719
9437.35 64.1336
9437.39 89.7500
9437.42 132.916
9437.46 206.077
9437.50 255.096
9437.54 206.666
9437.58 133.653
9437.62 88.5757
9437.65 63.0827
9437.69 47.5035
9437.72 38.0358
9437.80 27.3545
9437.87 21.9625
9437.94 18.8923
9438.02 16.9858
9438.16 14.8532
9438.45 13.0777
9438.74 12.3722
9439.33 11.7983
9439.91 11.5545
9441.08 11.3131
9442.24 11.1661
9446.90 10.7485
9456.23 10.0322
9465.56 9.30635
9474.88 8.47917
9484.21 7.40459
9488.87 6.68488
9493.53 5.74587
9495.86 5.15170
9498.19 4.44015
9500.53 3.57549
9502.86 2.52299
9505.19 1.30844
9506.35 0.737987
9506.94 0.523671
9507.52 0.416856
9507.81 0.428881
9508.10 0.504906
9508.69 0.945948
9508.98 1.38342
9509.27 2.03476
9509.56 2.98256
9509.85 4.34348
9510.14 6.29541
9510.43 9.07752
9510.73 13.0913
9511.02 18.8915
9511.31 27.4221
9511.60 40.0143
9511.89 58.7699
9512.18 86.5145
9512.74 172.826
9513.30 259.347
9513.86 244.679
9514.42 180.438
9514.85 139.888
9515.28 111.080
9515.71 90.9075
9516.14 76.5326
9517.00 57.9636
9517.87 46.8922
9518.73 39.6870
9519.59 34.6960
9521.31 28.2978
9523.03 24.4137
9524.76 21.8197
9528.20 18.5792
9531.65 16.6274
9535.09 15.3112
9541.99 13.6114
9548.88 12.5124
9555.77 11.6947
9569.55 10.4051
9583.33 9.16171
9590.23 8.42201
9597.12 7.49100
9600.56 6.90532
9604.01 6.19646
9607.45 5.31245
9610.90 4.17739
9614.35 2.69771
9616.07 1.82431
9617.79 0.944333
9618.65 0.582730
9619.51 0.389764
9619.94 0.413743
9620.38 0.571062
9620.81 0.925970
9621.24 1.57394
9621.67 2.66835
9622.10 4.44645
9622.53 7.29511
9622.96 11.8456
9623.39 19.2172
9623.82 31.2741
9624.25 51.3418
9624.68 84.4442
9625.34 171.008
9626.00 257.772
9626.66 243.748
9627.32 180.906
9627.87 138.616
9628.41 109.261
9628.96 89.1135
9629.50 74.9615
9630.59 56.9553
9631.68 46.3288
9632.78 39.4628
9633.87 34.7166
9636.05 28.6499
9638.23 24.9708
9640.41 22.5171
9642.60 20.7671
9644.78 19.4567
9649.14 17.6228
9653.51 16.3969
9657.87 15.5144
9662.24 14.8448
9670.96 13.8845
9679.69 13.2151
9697.15 12.2977
9714.61 11.6243
9723.34 11.3095
9732.07 10.9699
9740.80 10.5490
9745.16 10.2699
9749.52 9.89729
9751.71 9.65154
9753.89 9.34160
9756.07 8.93236
9758.25 8.35859
9759.34 7.97259
9760.44 7.48459
9761.53 6.84745
9762.62 5.98278
9763.16 5.42602
9763.71 4.75862
9764.25 3.95333
9764.80 3.00437
9765.35 2.00342
9765.62 1.63392
9765.89 1.63668
9766.16 2.69185
9766.30 4.14835
9766.44 6.85500
9766.57 11.9155
9766.64 15.8914
9766.71 21.3690
9766.78 28.9648
9766.85 39.5533
9766.91 54.3286
9766.98 74.7726
9767.06 107.946
9767.14 150.747
9767.30 227.351
9767.38 233.127
9767.46 215.865
9767.62 160.907
9767.80 113.513
9767.97 84.8673
9768.15 67.1275
9768.33 55.6488
9768.51 47.7142
9768.68 42.0350
9769.04 34.5049
9769.39 29.7947
9769.75 26.6176
9770.46 22.6235
9771.17 20.2351
9771.88 18.6573
9772.58 17.5383
9773.29 16.7041
9774.71 15.5426
9776.13 14.7725
9777.55 14.2229
9778.97 13.8097
9781.80 13.2263
9784.64 12.8307
9787.48 12.5414
9790.31 12.3185
9795.99 11.9913
9801.66 11.7568
9813.01 11.4275
9824.35 11.1925
9835.70 11.0047
9858.39 10.6948
9881.09 10.4047
9892.43 10.2427
9903.78 10.0465
9915.13 9.77499
9920.80 9.58147
9926.47 9.31153
9929.31 9.12831
9932.15 8.89279
9934.98 8.57611
9937.82 8.12389
9939.24 7.81484
9940.66 7.41952
9942.08 6.89540
9943.49 6.16868
9944.20 5.68983
9944.91 5.10217
9945.62 4.36970
9946.33 3.45255
9947.04 2.34981
9947.75 1.41078
9948.10 1.67912
9948.28 2.47101
9948.46 4.26248
9948.55 5.82380
9948.64 8.09441
9948.72 11.4075
9948.81 16.2122
9948.90 23.4141
9948.99 34.0758
9949.08 50.3283
9949.17 74.3772
9949.25 107.126
9949.33 148.817
9949.50 224.620
9949.58 230.340
9949.67 213.346
9949.83 158.406
9949.95 126.207
9950.07 102.474
9950.19 85.2984
9950.30 72.8041
9950.53 56.1658
9950.77 45.9716
9951.00 39.2142
9951.23 34.5037
9951.70 28.4190
9952.17 24.7005
9952.63 22.2239
9953.10 20.4584
9953.57 19.1450
9954.50 17.3210
9955.43 16.1194
9956.37 15.2696
9957.30 14.6379
9959.16 13.7601
9961.03 13.1797
9962.90 12.7671
9964.76 12.4589
9968.49 12.0298
9970.36 11.8767
9972.22 11.7549
9974.09 11.6666
9975.96 11.6412
9976.89 11.6977
9977.82 11.9347
9978.29 12.2861
9978.75 13.2370
9978.99 14.4358
9979.22 17.3056
9979.34 20.5175
9979.45 27.0113
9979.51 33.1577
9979.57 43.1475
9979.63 60.6361
9979.69 92.2208
9979.74 140.952
9979.80 173.614
9979.86 141.370
9979.91 92.7426
9979.96 67.6140
9980.00 51.6648
9980.00 13.5333
10000.0 13.5261
12000.0 12.8963
14000.0 12.4085
16000.0 12.0164
18000.0 11.6925
20000.0 11.4190
22000.0 11.1841
24000.0 10.9794
26000.0 10.7989
28000.0 10.6382
30000.0 10.4938
32000.0 10.3632
34000.0 10.2442
36000.0 10.1351
38000.0 10.0347
40000.0 9.94169
42000.0 9.85529
44000.0 9.77470
46000.0 9.69925
48000.0 9.62840
50000.0 9.56167
52000.0 9.49865
54000.0 9.43898
56000.0 9.38237
58000.0 9.32853
60000.0 9.27722
62000.0 9.22825
64000.0 9.18141
66000.0 9.13655
68000.0 9.09351
70000.0 9.05216
72000.0 9.01238
74000.0 8.97407
76000.0 8.93712
78000.0 8.90144
80000.0 8.86695
80000.0 8.86714
80017.8 8.86683
80017.8 8.86683
90000.0 8.71621
100000 8.55107
120000 8.31406
150000 8.04168
170000 7.89857
200000 7.72329
250000 7.48243
263110 7.45370
263110 7.45370
270000 7.43859
300000 7.37284
320000 7.35323
350000 7.32381
400000 7.30654
420000 7.30377
450000 7.29961
470000 7.29684
500000 7.29268
520000 7.29083
542423 7.28875
542423 7.28875
544500 7.28855
544500 7.28855
550000 7.28805
570000 7.28619
600000 7.28341
620000 7.28285
650000 7.28201
664215 7.28161
670000 7.28145
700000 7.28061
800000 7.27781
900000 7.27501
910176 7.27473
910177 7.27473
950000 7.27361
980000 7.27277
983331 7.27268
983331 7.27268
1.00000E+06 7.27221
1.02000E+06 7.26468
1.03019E+06 7.26084
1.03019E+06 7.26085
1.04000E+06 7.25715
1.04824E+06 7.25405
1.04824E+06 7.25403
1.06000E+06 7.24962
1.08000E+06 7.24209
1.10000E+06 7.23456
1.12000E+06 7.22702
1.14000E+06 7.21949
1.16000E+06 7.21196
1.16632E+06 7.20958
1.16632E+06 7.20958
1.18000E+06 7.20443
1.18394E+06 7.20295
1.18395E+06 7.20295
1.19468E+06 7.19890
1.19468E+06 7.19889
1.20000E+06 7.19690
1.20374E+06 7.19485
1.20374E+06 7.19485
1.22000E+06 7.18594
1.24000E+06 7.17498
1.26000E+06 7.16403
1.26786E+06 7.15972
1.26786E+06 7.15973
1.27153E+06 7.15771
1.27153E+06 7.15771
1.27356E+06 7.15660
1.27356E+06 7.15659
1.28000E+06 7.15307
1.30000E+06 7.14211
1.32000E+06 7.13115
1.34000E+06 7.12019
1.35913E+06 7.10972
1.35913E+06 7.10971
1.36000E+06 7.10924
1.36710E+06 7.10535
1.36710E+06 7.10535
1.38000E+06 7.09828
1.38065E+06 7.09792
1.38065E+06 7.09792
1.38939E+06 7.09313
1.38939E+06 7.09313
1.39988E+06 7.08739
1.39989E+06 7.08738
1.40000E+06 7.08732
1.41182E+06 7.08084
1.41182E+06 7.08084
1.41562E+06 7.07876
1.41563E+06 7.07876
1.42000E+06 7.07636
1.42303E+06 7.07470
1.42303E+06 7.07470
1.44000E+06 7.06541
1.44920E+06 7.06037
1.44920E+06 7.06037
1.46000E+06 7.05445
1.46158E+06 7.05358
1.46158E+06 7.05358
1.48000E+06 7.04349
1.49083E+06 7.03755
1.49083E+06 7.03755
1.50000E+06 7.03253
1.50861E+06 7.02703
1.50862E+06 7.02703
1.52000E+06 7.01976
1.52709E+06 7.01523
1.52709E+06 7.01522
1.54000E+06 7.00699
1.56000E+06 6.99421
1.58000E+06 6.98144
1.60000E+06 6.96867
1.70000E+06 6.90481
1.80000E+06 6.84095
1.90000E+06 6.77709
2.00000E+06 6.71323
2.20000E+06 6.57592
2.40000E+06 6.43861
2.50000E+06 6.36995
2.60000E+06 6.31654
2.72026E+06 6.25230
2.80000E+06 6.20971
3.00000E+06 6.10288
3.20000E+06 6.00047
3.70000E+06 5.75036
4.00000E+06 5.61377
4.50000E+06 5.35435
5.00000E+06 5.17103
5.50000E+06 5.03549
6.00000E+06 4.93851
6.50000E+06 4.88023
7.00000E+06 4.84831
7.50000E+06 4.83289
7.80000E+06 4.82363
7.98769E+06 4.81784
7.98770E+06 4.81784
8.00000E+06 4.81746
8.25000E+06 4.81707
8.50000E+06 4.82047
8.57241E+06 4.82423
8.68210E+06 4.82993
9.00000E+06 4.84644
9.50000E+06 4.87240
1.00000E+07 4.91519
1.05000E+07 4.95798
1.10000E+07 5.00077
1.15000E+07 5.04388
1.20000E+07 5.08698
1.25000E+07 5.11630
1.30000E+07 5.14561
1.35000E+07 5.16570
1.40000E+07 5.18580
1.43883E+07 5.20140
1.43883E+07 5.20140
1.45000E+07 5.20589
1.50000E+07 5.21537
1.55000E+07 5.22484
1.60000E+07 5.22076
1.60680E+07 5.22020
1.65000E+07 5.21667
1.70000E+07 5.21259
1.75000E+07 5.20323
1.80000E+07 5.19356
1.81000E+07 5.19162
1.82000E+07 5.18900
1.89000E+07 5.17068
1.90000E+07 5.16806
1.92000E+07 5.15611
2.00000E+07 5.10830