Ta-181(n,g) ENDF/B-VII.1
Energy(eV) XS(b)
1.00000E-05 1055.05
1.25000E-05 943.664
1.50000E-05 861.444
2.00000E-05 746.033
2.75000E-05 636.221
3.50000E-05 563.950
4.25000E-05 511.778
5.00000E-05 471.837
6.25000E-05 422.025
7.50000E-05 385.256
0.000100000 333.643
0.000125000 298.422
0.000150000 272.422
0.000200000 235.928
0.000275000 201.204
0.000350000 178.352
0.000425000 161.855
0.000500000 149.226
0.000625000 133.476
0.000750000 121.851
0.00100000 105.533
0.00125000 94.3978
0.00150000 86.1788
0.00200000 74.6431
0.00275000 63.6687
0.00350000 56.4477
0.00425000 51.2358
0.00500000 47.2466
0.00625000 42.2729
0.00750000 38.6027
0.0100000 33.4535
0.0125000 29.9420
0.0150000 27.3517
0.0200000 23.7194
0.0253000 21.1196
0.0314750 18.9668
0.0376500 17.3712
0.0500000 15.1252
0.0625000 13.5753
0.0750000 12.4357
0.100000 10.8456
0.125000 9.76995
0.150000 8.98323
0.200000 7.89485
0.275000 6.88760
0.350000 6.25101
0.500000 5.49763
0.750000 4.92049
0.840000 4.81945
1.00000 4.72752
1.50000 4.96072
2.00000 5.95034
2.56290 8.66303
2.84435 11.4352
3.12580 16.4709
3.39435 26.3304
3.52863 35.5847
3.66290 51.3978
3.79718 81.8999
3.86431 109.146
3.93145 153.306
3.99859 231.998
4.03216 296.778
4.06573 393.437
4.09929 546.788
4.13286 811.068
4.14965 1021.03
4.16643 1323.11
4.18322 1778.34
4.20000 2504.97
4.21290 3394.44
4.22580 4804.42
4.23870 7146.65
4.25160 11106.0
4.26580 17720.0
4.28000 22093.5
4.29425 17629.9
4.30850 10988.7
4.31931 7559.93
4.33011 5353.88
4.34092 3928.34
4.35172 2979.26
4.37333 1858.76
4.39494 1259.26
4.41655 905.490
4.43816 680.714
4.48138 423.223
4.52459 287.552
4.56781 207.670
4.61103 156.801
4.65425 122.467
4.74069 80.4988
4.82713 56.8478
4.91356 42.2484
5.00000 32.6241
5.15625 21.9658
5.31250 15.8263
5.46875 11.9844
5.62500 9.43141
5.93750 6.37917
6.25000 4.72204
6.56250 3.75410
6.87500 3.17368
7.50000 2.68485
8.12500 2.86019
8.43750 3.26196
8.75000 4.03940
9.06250 5.55639
9.21875 6.86116
9.37500 8.86421
9.53125 12.1466
9.68750 18.0573
9.76563 22.9662
9.84375 30.3532
9.92188 42.2145
10.0000 63.0479
10.0776 104.367
10.1163 142.463
10.1551 206.074
10.1745 255.162
10.1939 323.982
10.2133 424.479
10.2327 578.792
10.2520 831.781
10.2714 1281.68
10.2811 1644.48
10.2908 2163.67
10.3005 2921.08
10.3102 4022.10
10.3251 6426.27
10.3400 8022.92
10.3549 6415.86
10.3698 4009.62
10.3837 2545.73
10.3976 1693.79
10.4115 1187.26
10.4253 870.681
10.4531 519.601
10.4809 342.692
10.5086 242.146
10.5364 179.906
10.5919 110.301
10.6474 74.4250
10.7030 53.5927
10.7585 40.4491
10.8140 31.6367
10.9251 20.9299
11.0361 14.9310
11.1472 11.2415
11.2582 8.81644
11.4803 5.94011
11.7024 4.38311
11.9246 3.47111
12.1467 2.92357
12.5909 2.50174
12.8130 2.59827
13.0351 3.01803
13.2572 4.13615
13.3682 5.30563
13.4793 7.44164
13.5904 11.8881
13.6459 16.1438
13.7014 23.5251
13.7569 38.0067
13.7847 51.1047
13.8125 72.5232
13.8402 110.965
13.8541 142.629
13.8680 189.637
13.8819 263.089
13.8957 385.043
13.9027 476.980
13.9096 601.025
13.9166 769.688
13.9235 997.086
13.9301 1275.86
13.9368 1593.81
13.9500 1990.86
13.9633 1592.24
13.9765 995.144
13.9883 645.118
14.0000 436.235
14.0118 309.372
14.0236 228.945
14.0471 138.403
14.0706 92.1196
14.0942 65.5879
14.1177 49.0562
14.1647 30.4571
14.2118 20.8141
14.2589 15.1892
14.3059 11.6270
14.3530 9.23058
14.4471 6.30512
14.5412 4.65434
14.7294 2.95208
14.9177 2.13306
15.1059 1.67457
15.4824 1.20323
15.8589 0.978488
16.2353 0.857802
16.9883 0.760990
17.7412 0.781868
18.4941 0.954450
18.8706 1.17570
19.2471 1.66721
19.4353 2.17553
19.6235 3.14985
19.7177 4.01798
19.8118 5.42475
19.9059 7.93648
19.9530 10.0106
20.0000 13.1162
20.0674 21.1748
20.1011 28.4951
20.1348 40.5239
20.1684 62.2874
20.1853 80.3812
20.2021 107.463
20.2190 150.317
20.2358 222.641
20.2442 278.047
20.2527 353.861
20.2611 458.627
20.2695 602.296
20.2771 770.622
20.2848 962.639
20.3000 1202.47
20.3076 1131.53
20.3153 961.904
20.3305 601.392
20.3397 447.135
20.3488 338.013
20.3671 206.246
20.3854 136.455
20.4037 96.2326
20.4221 71.2788
20.4404 54.8484
20.4770 35.3618
20.5136 24.7390
20.5502 18.3447
20.6234 11.3820
20.6967 7.88933
20.7699 5.90254
20.9164 3.86593
21.0628 2.92392
21.2093 2.44237
21.5022 2.08782
21.7951 2.15925
22.0881 2.63703
22.2345 3.18136
22.3810 4.35380
22.4542 5.65381
22.4908 6.78808
22.5274 8.62821
22.5641 11.9791
22.5824 14.8230
22.6007 19.2029
22.6190 26.4532
22.6373 39.5966
22.6556 66.2539
22.6648 89.9653
22.6739 125.480
22.6870 198.394
22.7000 246.933
22.7131 198.422
22.7261 125.622
22.7350 90.8775
22.7440 67.4968
22.7619 41.0274
22.7797 27.9264
22.7976 20.7388
22.8333 13.7456
22.8691 10.7254
22.9406 8.58524
23.0120 8.30990
23.1550 9.95331
23.2980 14.1635
23.3694 17.8317
23.4409 23.4034
23.5124 32.3631
23.5839 48.0336
23.6196 60.6657
23.6554 79.1215
23.6911 107.579
23.7268 154.716
23.7626 240.926
23.7805 313.383
23.7983 423.119
23.8162 599.350
23.8341 903.577
23.8519 1473.74
23.8609 1943.27
23.8698 2601.85
23.8849 4160.07
23.9000 5197.01
23.9151 4156.92
23.9302 2598.15
23.9420 1770.44
23.9538 1244.68
23.9656 908.453
23.9774 686.397
24.0010 426.392
24.0246 288.332
24.0482 207.215
24.0718 155.848
24.1190 97.1384
24.1662 66.2437
24.2134 48.0601
24.2606 36.4718
24.3078 28.6440
24.4023 19.0562
24.4967 13.6352
24.5911 10.2766
24.6855 8.05378
24.8743 5.38920
25.0631 3.91574
25.2519 3.01819
25.4408 2.43292
25.8184 1.74599
26.1960 1.38014
26.9513 1.04536
27.7066 0.939196
28.4619 0.956744
29.2171 1.17409
29.4060 1.35802
29.5948 1.81731
29.6892 2.39339
29.7364 2.92925
29.7836 3.83917
29.8308 5.57842
29.8544 7.11295
29.8780 9.56019
29.9016 13.7942
29.9252 21.9774
29.9370 29.1615
29.9488 40.3458
29.9606 58.4815
29.9724 88.2592
29.9862 140.546
30.0000 175.380
30.0138 140.487
30.0276 88.1907
30.0376 62.1827
30.0475 45.0470
30.0575 33.7448
30.0674 26.0968
30.0873 16.9157
30.1072 11.9218
30.1271 8.94312
30.1470 7.03646
30.1868 4.83839
30.2266 3.67453
30.2664 2.98929
30.3460 2.26340
30.5052 1.72779
30.6643 1.56123
31.3011 1.60761
31.9378 1.98423
32.5745 2.67604
33.2112 4.01932
33.5296 5.23312
33.8480 7.25940
34.1663 11.1357
34.3255 14.6524
34.4847 20.5731
34.5643 25.2502
34.6439 32.0330
34.7235 42.5078
34.7633 50.0794
34.8030 60.1474
34.8428 73.9960
34.8826 93.8396
34.9224 123.824
34.9622 172.337
35.0020 258.556
35.0219 329.127
35.0418 433.336
35.0617 595.388
35.0816 862.807
35.1015 1332.83
35.1214 2186.41
35.1407 3489.45
35.1600 4358.40
35.1793 3489.01
35.1986 2187.57
35.2193 1312.31
35.2399 842.667
35.2606 581.144
35.2813 425.614
35.3020 327.419
35.3226 262.363
35.3640 186.103
35.4053 147.158
35.4466 127.495
35.5293 121.174
35.5706 131.437
35.6120 152.563
35.6533 189.794
35.6947 254.799
35.7360 375.021
35.7567 475.066
35.7773 624.021
35.7980 856.843
35.8187 1242.59
35.8393 1922.55
35.8600 3159.89
35.8800 5044.45
35.9000 6299.00
35.9200 5039.60
35.9400 3153.30
35.9523 2333.02
35.9645 1756.70
35.9890 1066.94
36.0135 704.803
36.0380 497.284
36.0624 368.884
36.0869 284.488
36.1359 184.458
36.1849 129.874
36.2339 96.9262
36.3318 60.8547
36.4298 42.5957
36.5277 32.1203
36.7236 21.3164
36.9195 16.4024
37.1154 14.1270
37.5072 13.7776
37.7031 15.3525
37.8990 18.4808
38.0949 24.1418
38.2908 34.7120
38.3888 43.5363
38.4867 56.7456
38.5847 77.6894
38.6826 113.660
38.7316 142.144
38.7806 183.038
38.8295 244.654
38.8785 343.400
38.9275 515.377
38.9520 652.825
38.9765 850.792
39.0009 1148.11
39.0254 1615.41
39.0499 2382.74
39.0744 3661.17
39.1022 5855.25
39.1300 7314.78
39.1578 5847.99
39.1856 3653.50
39.2050 2590.68
39.2244 1880.94
39.2438 1407.17
39.2632 1083.45
39.3021 690.828
39.3409 475.048
39.3797 345.406
39.4185 261.959
39.4962 165.129
39.5738 113.426
39.6514 82.6967
39.7291 62.9769
39.8067 49.5829
39.9620 33.0782
40.1172 23.6825
40.2725 17.8269
40.4278 13.9302
40.7383 9.22232
41.0489 6.58851
41.3594 4.96309
41.6700 3.88729
42.2910 2.59191
42.9121 1.86809
43.5332 1.42162
44.1543 1.12702
45.3965 0.779184
46.6387 0.611229
47.2597 0.588251
47.8808 0.661386
48.1914 0.812995
48.3467 0.974552
48.5019 1.27438
48.6572 1.91059
48.7348 2.53038
48.8125 3.62502
48.8901 5.83188
48.9289 7.88667
48.9677 11.3520
49.0066 17.8697
49.0260 23.5083
49.0454 32.3046
49.0648 47.0322
49.0842 74.0719
49.0939 96.5865
49.1036 129.795
49.1133 180.085
49.1230 256.326
49.1365 410.160
49.1500 512.793
49.1635 410.042
49.1770 256.180
49.1899 161.179
49.2027 106.557
49.2156 74.4085
49.2284 54.4621
49.2542 32.4961
49.2799 21.4887
49.3056 15.2564
49.3313 11.4050
49.3828 7.10520
49.4342 4.89062
49.4856 3.60416
49.5885 2.24583
49.6914 1.58038
49.7943 1.20496
50.0000 0.816818
50.1804 0.646016
50.3608 0.543187
50.7215 0.428327
51.4430 0.328205
52.8860 0.255764
54.3290 0.231740
55.0505 0.238289
55.4113 0.272930
55.5014 0.304263
55.5916 0.381952
55.6367 0.474248
55.6818 0.682512
55.7044 0.900614
55.7269 1.31428
55.7382 1.67096
55.7495 2.21536
55.7607 3.07644
55.7720 4.44901
55.7860 6.97438
55.8000 8.65672
55.8140 6.97356
55.8280 4.44863
55.8412 2.90285
55.8543 2.00692
55.8675 1.47645
55.8806 1.14621
55.9069 0.781192
55.9333 0.598081
55.9859 0.431126
56.0385 0.361327
56.1437 0.308410
56.2490 0.293186
56.6700 0.332396
56.8804 0.413275
56.9857 0.493351
57.0909 0.635760
57.1962 0.926271
57.2488 1.20082
57.3014 1.67245
57.3540 2.58585
57.3804 3.40180
57.4067 4.71884
57.4330 7.03675
57.4593 11.6372
57.4724 15.7926
57.4856 22.4448
57.4988 33.6628
57.5119 52.9522
57.5260 84.5464
57.5400 105.589
57.5541 84.5267
57.5681 52.9282
57.5795 35.6980
57.5908 24.9135
57.6022 18.1093
57.6135 13.6626
57.6363 8.51097
57.6590 5.80444
57.6817 4.22462
57.7044 3.22893
57.7498 2.09633
57.7953 1.50396
57.8407 1.15727
57.9316 0.791145
58.0224 0.615087
58.1133 0.520737
58.2950 0.441791
58.4767 0.444533
58.6585 0.552320
58.7493 0.714198
58.7948 0.869545
58.8402 1.13596
58.8856 1.64603
58.9083 2.09482
58.9310 2.80627
58.9538 4.02622
58.9765 6.34635
58.9878 8.34998
58.9992 11.4166
59.0106 16.2793
59.0219 24.0454
59.0360 38.3160
59.0500 47.8366
59.0641 38.3070
59.0781 24.0343
59.0938 14.1491
59.1094 8.96752
59.1251 6.12412
59.1407 4.44720
59.1564 3.38881
59.1720 2.68399
59.2033 1.83781
59.2346 1.37129
59.2660 1.08843
59.3286 0.778942
59.3912 0.623495
59.4538 0.535645
59.5790 0.447889
59.8295 0.395663
60.0799 0.396543
60.5808 0.463469
61.0818 0.620003
61.5827 0.969535
61.8331 1.31894
62.0836 1.95228
62.2088 2.48167
62.3340 3.28317
62.4593 4.58061
62.5845 6.88555
62.6471 8.77700
62.7097 11.5899
62.7723 16.0359
62.8350 23.6639
62.8976 38.4012
62.9289 51.5235
62.9602 72.6169
62.9915 109.537
63.0071 139.180
63.0228 182.099
63.0385 246.992
63.0541 349.803
63.0698 520.570
63.0854 809.293
63.1027 1295.10
63.1200 1619.01
63.1373 1294.71
63.1546 808.816
63.1680 553.752
63.1813 390.797
63.1946 286.002
63.2080 216.581
63.2347 134.942
63.2614 91.4251
63.2881 65.8003
63.3147 49.5361
63.3681 30.9170
63.4215 21.1016
63.4749 15.3165
63.5283 11.6273
63.5816 9.13345
63.6884 6.07642
63.7951 4.34674
63.9019 3.27432
64.0086 2.56425
64.2222 1.71228
64.4357 1.24045
64.6492 0.952403
64.8627 0.763943
65.2897 0.541014
65.7167 0.419929
66.5707 0.301923
67.4248 0.251880
68.2788 0.230663
69.9869 0.232201
71.6949 0.284483
72.5490 0.342699
73.4030 0.447631
74.2570 0.661884
74.6840 0.865745
75.1110 1.22262
75.5381 1.94723
75.7516 2.63864
75.9651 3.85372
76.0718 4.84766
76.1786 6.32968
76.2853 8.69303
76.3921 12.8298
76.4455 16.1894
76.4989 21.1511
76.5522 28.9361
76.5789 34.6132
76.6056 42.1921
76.6323 52.6364
76.6590 67.5840
76.6857 90.0270
76.7124 125.854
76.7390 187.983
76.7524 237.461
76.7657 308.447
76.7791 414.614
76.7924 580.349
76.8058 850.313
76.8191 1296.10
76.8346 2074.01
76.8500 2593.12
76.8655 2073.61
76.8809 1295.79
76.8923 902.134
76.9037 645.518
76.9151 477.818
76.9265 365.170
76.9493 230.991
76.9721 158.597
76.9949 115.687
77.0177 88.3827
77.0633 57.2180
77.1089 41.1045
77.1545 32.0585
77.2457 24.1972
77.3369 24.5584
77.3825 28.1438
77.4281 35.7786
77.4737 51.7018
77.4965 66.0698
77.5193 88.9999
77.5421 128.255
77.5649 202.263
77.5763 265.371
77.5877 360.686
77.5991 509.179
77.6105 741.652
77.6253 1183.82
77.6400 1478.56
77.6548 1183.29
77.6695 740.783
77.6793 535.272
77.6891 395.093
77.7086 233.581
77.7282 151.910
77.7477 106.261
77.7673 78.4771
77.7868 60.4316
77.8259 39.2585
77.8651 27.8114
77.9042 20.9323
77.9824 13.4207
78.0606 9.62414
78.1388 7.45948
78.2953 5.33931
78.4517 4.76858
78.5299 5.00872
78.6081 5.82444
78.6864 7.84125
78.7255 9.83533
78.7646 13.2636
78.8037 19.7482
78.8232 25.3444
78.8428 34.0134
78.8624 48.3720
78.8819 74.2329
78.9015 125.905
78.9112 171.158
78.9210 237.904
78.9283 304.107
78.9355 379.809
78.9500 474.468
78.9645 379.691
78.9790 237.724
78.9944 142.943
79.0097 91.6311
79.0251 62.8100
79.0404 45.5204
79.0557 34.4714
79.0711 27.0393
79.1018 18.0278
79.1325 13.0003
79.1632 9.92056
79.2246 6.49754
79.2859 4.73207
79.3473 3.69842
79.4701 2.58770
79.5929 2.02713
79.7157 1.70242
79.9612 1.36386
80.4523 1.16772
80.9434 1.28067
81.4345 1.76092
81.6801 2.28829
81.9256 3.26680
82.0484 4.09130
82.1712 5.34340
82.2939 7.37477
82.4167 10.9907
82.4781 13.9626
82.5395 18.3902
82.6009 25.4031
82.6623 37.4748
82.6930 47.0756
82.7236 60.9207
82.7543 81.9209
82.7850 115.888
82.8157 175.891
82.8311 224.539
82.8464 295.567
82.8618 404.251
82.8771 579.245
82.8925 876.611
82.9078 1392.94
82.9239 2227.26
82.9400 2782.84
82.9561 2226.70
82.9722 1392.30
82.9886 850.302
83.0050 549.678
83.0213 377.715
83.0377 273.196
83.0541 205.875
83.0705 160.316
83.1032 104.764
83.1360 73.6638
83.1688 54.5929
83.2343 33.4621
83.2998 22.6650
83.3653 16.4343
83.4308 12.5238
83.4963 9.91720
83.6274 6.78721
83.7584 5.08351
83.8894 4.09816
84.0205 3.53452
84.2825 3.25913
84.4136 3.56714
84.5446 4.39178
84.6756 6.34800
84.7411 8.29615
84.8066 11.7240
84.8722 18.5040
84.9049 24.6581
84.9377 34.7332
84.9704 52.8297
84.9868 67.7456
85.0032 89.8933
85.0196 124.501
85.0360 181.951
85.0441 225.250
85.0523 283.652
85.0605 363.025
85.0687 469.830
85.0844 750.439
85.1000 937.188
85.1157 750.277
85.1313 469.629
85.1498 266.828
85.1682 164.083
85.1867 109.174
85.2051 77.3502
85.2236 57.5105
85.2420 44.4142
85.2790 28.8284
85.3159 20.3156
85.3528 15.1952
85.4266 9.67782
85.5004 7.08755
85.5743 6.11387
85.6112 6.32560
85.6481 7.56574
85.6665 9.06410
85.6850 11.9114
85.7035 17.7187
85.7127 22.8021
85.7219 30.2571
85.7360 46.4994
85.7500 57.3001
85.7641 46.2987
85.7781 29.8601
85.7929 18.8796
85.8077 12.8864
85.8226 9.48383
85.8374 7.41469
85.8670 5.14724
85.8966 3.98796
85.9559 2.85203
86.0152 2.29531
86.1337 1.72833
86.2522 1.42682
86.4893 1.10027
86.7263 0.927909
87.2004 0.770341
87.6746 0.742830
88.1487 0.835731
88.3857 0.961297
88.6228 1.20372
88.8598 1.72490
88.9784 2.23600
89.0969 3.14655
89.2154 5.01335
89.2747 6.78772
89.3340 9.85362
89.3932 15.8470
89.4229 21.2520
89.4525 30.0662
89.4821 45.8163
89.4969 58.7460
89.5117 77.8525
89.5266 107.568
89.5414 156.503
89.5562 242.316
89.5636 308.704
89.5710 397.454
89.5855 635.979
89.6000 795.132
89.6145 635.872
89.6290 397.328
89.6429 249.086
89.6569 164.287
89.6708 114.544
89.6847 83.7555
89.6986 63.6494
89.7125 49.9205
89.7404 33.0120
89.7682 23.4508
89.7961 17.5528
89.8518 10.9799
89.9074 7.60649
89.9631 5.65696
90.0745 3.62381
90.1859 2.66155
90.2973 2.15742
90.5200 1.77692
90.7428 1.91575
90.8541 2.23076
90.9655 2.87547
91.0769 4.27378
91.1326 5.62470
91.1883 7.96741
91.2439 12.5390
91.2718 16.6438
91.2996 23.2934
91.3275 35.0605
91.3553 58.5837
91.3692 79.9866
91.3832 114.551
91.3971 173.433
91.4110 276.146
91.4255 441.178
91.4400 551.083
91.4545 441.100
91.4690 276.047
91.4798 192.021
91.4905 137.334
91.5012 101.589
91.5120 77.6135
91.5335 49.0489
91.5550 33.6306
91.5765 24.4764
91.5979 18.6325
91.6409 11.9039
91.6839 8.33815
91.7269 6.22870
91.8128 3.96616
91.8988 2.84392
91.9847 2.20827
92.1567 1.55511
92.3286 1.24801
92.5005 1.08470
92.8443 0.940965
93.5320 0.921392
94.2196 1.05774
94.9072 1.34002
95.5949 1.89522
95.9387 2.42023
96.2825 3.46142
96.4544 4.57710
96.5404 5.55445
96.6264 7.17799
96.7123 10.2984
96.7553 13.1322
96.7983 17.8501
96.8412 26.6406
96.8627 34.2103
96.8842 45.9922
96.8950 54.4928
96.9057 65.6884
96.9165 80.8247
96.9272 101.821
96.9380 131.899
96.9487 176.272
96.9594 243.484
96.9702 345.401
96.9776 441.131
96.9851 550.528
97.0000 687.140
97.0075 646.908
97.0149 550.381
97.0298 345.472
97.0471 199.309
97.0644 124.545
97.0817 84.3184
97.0990 60.9107
97.1163 46.2878
97.1336 36.6266
97.1682 25.1563
97.2028 18.9309
97.2374 15.2276
97.3066 11.3260
97.4450 8.70061
97.5834 8.32800
97.8601 9.99363
98.1369 14.3044
98.2753 18.0307
98.4136 23.6459
98.5520 32.5768
98.6904 47.9521
98.7596 60.1519
98.8288 77.7056
98.8980 104.222
98.9672 146.890
99.0363 221.616
99.0709 281.694
99.1055 368.729
99.1401 500.408
99.1747 709.379
99.2093 1057.11
99.2439 1646.27
99.2820 2632.97
99.3200 3289.64
99.3581 2630.87
99.3961 1644.15
99.4339 1015.49
99.4716 661.935
99.5093 457.386
99.5471 332.102
99.5848 250.919
99.6226 195.760
99.6981 128.205
99.7735 90.2173
99.8490 66.8552
100.000 40.8946
100.109 30.5305
100.218 23.6829
100.437 15.4843
100.655 10.9594
100.873 8.20915
101.309 5.20072
101.746 3.71873
102.182 2.94947
102.619 2.64471
102.837 2.70707
103.055 3.13637
103.164 3.76696
103.219 4.37348
103.273 5.41735
103.328 7.44546
103.355 9.25964
103.382 12.1794
103.410 17.3470
103.437 27.6567
103.451 37.0625
103.464 52.1141
103.478 77.6432
103.491 121.935
103.506 193.582
103.520 241.291
103.534 193.573
103.549 121.938
103.564 73.6540
103.579 47.6590
103.595 33.1286
103.610 24.4872
103.640 15.2532
103.671 10.7792
103.701 8.30170
103.732 6.81045
103.793 5.20302
103.915 4.04134
104.037 3.77848
104.281 4.18942
104.525 5.56949
104.647 6.82623
104.770 8.77307
104.892 11.9587
105.014 17.6371
105.075 22.2952
105.136 29.1923
105.197 40.0569
105.227 47.9688
105.258 58.5232
105.289 73.0859
105.319 93.7939
105.350 124.707
105.380 173.646
105.411 257.325
105.426 323.241
105.441 415.953
105.456 552.877
105.472 760.147
105.487 1088.96
105.502 1606.66
105.521 2556.58
105.540 3184.04
105.559 2555.86
105.578 1605.86
105.597 1003.79
105.615 659.751
105.634 458.514
105.652 334.803
105.670 253.698
105.689 198.619
105.726 130.625
105.763 92.1381
105.800 68.4711
105.873 42.0823
105.947 28.4994
106.021 20.6303
106.095 15.6639
106.169 12.3306
106.316 8.27103
106.464 5.98875
106.612 4.57650
106.759 3.64246
107.055 2.51959
107.350 1.89499
107.941 1.26064
108.531 0.966176
109.122 0.816093
110.303 0.727259
111.484 0.856359
112.075 1.05055
112.666 1.43638
112.961 1.77075
113.256 2.28584
113.552 3.13264
113.847 4.66218
113.995 5.93577
114.142 7.85407
114.290 10.9418
114.437 16.3725
114.511 20.7922
114.585 27.2964
114.659 37.4425
114.733 54.5309
114.807 86.6566
114.844 114.370
114.880 157.520
114.917 229.571
114.954 361.322
114.973 470.866
114.991 631.105
115.010 873.984
115.028 1238.26
115.054 1982.44
115.080 2478.87
115.106 1981.67
115.132 1237.45
115.157 778.960
115.181 514.967
115.206 359.413
115.231 262.818
115.280 156.356
115.330 103.048
115.379 72.7762
115.428 54.0985
115.527 33.2116
115.626 22.4495
115.724 16.2096
115.823 12.2727
115.922 9.63296
116.119 6.42710
116.317 4.63701
116.514 3.54467
116.712 2.83995
117.106 2.07201
117.501 1.89332
117.699 2.14048
117.797 2.47106
117.896 3.11697
117.995 4.49971
118.044 5.82912
118.094 8.11471
118.143 12.5316
118.168 16.4464
118.192 22.6699
118.217 33.4793
118.242 54.3644
118.254 72.7715
118.266 101.154
118.279 146.988
118.291 221.876
118.298 284.076
118.306 355.193
118.320 443.339
118.335 354.161
118.349 221.798
118.365 131.478
118.381 83.5608
118.396 56.7477
118.412 40.8759
118.428 30.7296
118.444 23.9765
118.475 15.7929
118.507 11.2534
118.538 8.48455
118.601 5.42988
118.664 3.86574
118.727 2.95968
118.853 1.99695
118.979 1.51733
119.105 1.24047
119.357 0.942307
119.860 0.697043
120.364 0.598826
121.371 0.549248
122.379 0.620141
123.386 0.867827
123.890 1.13772
124.393 1.64082
124.645 2.06727
124.897 2.71798
125.149 3.78080
125.401 5.68810
125.527 7.26953
125.653 9.64171
125.779 13.4367
125.904 20.0642
125.967 25.4136
126.030 33.2236
126.093 45.3037
126.156 65.3253
126.219 102.132
126.251 133.190
126.282 180.231
126.314 256.365
126.345 388.777
126.377 639.623
126.392 847.319
126.408 1140.83
126.434 1822.01
126.460 2274.57
126.486 1821.35
126.512 1140.14
126.532 789.511
126.551 563.014
126.570 415.389
126.590 316.431
126.629 198.782
126.667 135.378
126.706 97.7749
126.745 73.7889
126.823 46.1954
126.900 31.5727
126.978 22.9425
127.055 17.4270
127.133 13.6922
127.288 9.10497
127.444 6.50705
127.599 4.89455
127.754 3.82590
128.064 2.54261
128.375 1.83216
128.685 1.39885
128.996 1.11632
129.617 0.785433
130.238 0.611735
131.479 0.468699
132.721 0.477105
133.342 0.543397
133.963 0.688099
134.584 1.01116
134.895 1.33088
135.205 1.90350
135.360 2.37841
135.515 3.09337
135.671 4.24683
135.826 6.29575
135.904 7.98429
135.981 10.5051
136.059 14.5210
136.136 21.5045
136.175 27.1173
136.214 35.3034
136.253 47.9040
136.292 68.7354
136.311 84.6459
136.330 106.740
136.350 138.605
136.369 186.751
136.389 263.820
136.408 396.248
136.418 499.425
136.427 642.745
136.437 844.318
136.447 1126.00
136.463 1803.94
136.480 2252.44
136.497 1799.30
136.513 1125.69
136.527 748.255
136.541 515.781
136.555 371.059
136.569 277.437
136.597 170.069
136.624 114.334
136.652 81.8739
136.680 61.5594
136.735 38.4922
136.791 26.4726
136.846 19.4589
136.957 12.0856
137.069 8.57642
137.180 6.74505
137.402 5.41902
137.624 6.10843
137.735 7.44288
137.846 10.1066
137.957 15.7496
138.012 21.0783
138.068 30.0927
138.123 47.0072
138.151 61.6034
138.179 84.1569
138.206 121.719
138.234 189.468
138.248 245.223
138.262 326.464
138.276 447.480
138.290 625.915
138.310 1000.42
138.330 1249.82
138.350 1000.20
138.370 625.635
138.393 364.199
138.416 227.627
138.439 152.970
138.461 109.007
138.484 81.3150
138.507 62.8775
138.552 40.7544
138.597 28.5553
138.643 21.1452
138.734 12.9948
138.824 8.84922
138.915 6.45483
139.006 4.94543
139.097 3.93109
139.278 2.69059
139.460 1.98574
139.823 1.24910
140.186 0.887462
140.550 0.682142
141.276 0.472136
142.002 0.385129
142.729 0.384092
143.092 0.444582
143.273 0.515466
143.455 0.650425
143.637 0.940485
143.727 1.22476
143.818 1.72924
143.909 2.75288
143.954 3.71262
144.000 5.34411
144.045 8.44840
144.068 11.1677
144.091 15.4652
144.113 22.7956
144.136 36.6417
144.147 48.5665
144.159 66.5158
144.170 94.6289
144.181 138.927
144.188 177.757
144.196 222.132
144.210 277.593
144.224 222.109
144.239 138.898
144.255 81.8390
144.270 51.5998
144.286 34.8907
144.302 24.9782
144.318 18.7025
144.334 14.5088
144.365 9.47098
144.397 6.67377
144.428 4.97270
144.491 3.10376
144.555 2.15322
144.618 1.60721
144.744 1.03635
144.870 0.760459
144.997 0.607673
145.249 0.456607
145.754 0.367021
146.259 0.380167
146.764 0.479455
147.017 0.588973
147.269 0.788607
147.522 1.20321
147.648 1.60270
147.774 2.30670
147.901 3.73931
147.964 5.09387
148.027 7.42905
148.090 11.9961
148.122 16.1177
148.153 22.8199
148.185 34.8476
148.201 44.7379
148.216 59.2799
148.232 82.0530
148.248 119.706
148.256 147.976
148.264 185.981
148.272 237.432
148.279 305.467
148.287 391.372
148.295 488.178
148.310 609.850
148.318 573.613
148.325 488.136
148.341 305.429
148.351 218.730
148.361 160.153
148.372 120.647
148.382 93.4304
148.403 60.1366
148.424 41.7527
148.445 30.5831
148.465 23.3718
148.507 15.0010
148.548 10.5212
148.590 7.87629
148.673 5.06893
148.756 3.73735
148.839 3.06623
149.005 2.69839
149.171 3.30220
149.254 4.15316
149.337 5.77442
149.421 9.15014
149.462 12.3142
149.504 17.6507
149.545 27.6729
149.566 36.3004
149.587 49.5990
149.607 71.7414
149.628 111.542
149.639 144.264
149.649 191.857
149.659 262.589
149.670 366.293
149.685 585.266
149.700 731.004
149.715 585.186
149.730 366.186
149.740 265.808
149.750 197.381
149.770 117.407
149.789 76.4227
149.809 53.3062
149.829 39.1714
149.848 29.9585
149.887 19.1336
149.927 13.2725
149.966 9.77022
150.044 5.96399
150.123 4.04773
150.201 2.95061
150.280 2.26175
150.358 1.80131
150.515 1.24032
150.672 0.923152
150.986 0.593324
151.299 0.432179
151.613 0.340602
152.241 0.244783
152.868 0.198017
153.496 0.171990
154.751 0.147165
157.262 0.142122
158.517 0.163876
158.831 0.182179
159.144 0.228699
159.301 0.288677
159.380 0.345943
159.458 0.445899
159.537 0.645993
159.576 0.831121
159.615 1.14212
159.654 1.72381
159.674 2.22448
159.693 3.00159
159.713 4.29349
159.733 6.64045
159.742 8.57270
159.752 11.3969
159.762 15.6208
159.772 21.9351
159.786 35.0227
159.800 43.7554
159.814 35.0200
159.828 21.9320
159.841 14.1372
159.854 9.53709
159.867 6.77241
159.879 5.04149
159.905 3.08924
159.930 2.10098
159.956 1.53423
159.982 1.18342
160.033 0.788927
160.084 0.585170
160.135 0.466811
160.237 0.342405
160.441 0.249406
160.646 0.217550
161.463 0.200499
163.098 0.263395
163.916 0.345624
164.325 0.421522
164.733 0.553136
165.142 0.822009
165.346 1.08218
165.551 1.54626
165.653 1.93089
165.755 2.51004
165.857 3.44245
165.960 5.08911
166.011 6.43317
166.062 8.42301
166.113 11.5484
166.164 16.8659
166.215 27.0025
166.241 35.9235
166.266 50.0013
166.292 74.2029
166.305 93.2386
166.317 119.999
166.330 159.616
166.343 219.615
166.356 315.190
166.368 466.162
166.384 745.971
166.400 932.604
166.416 745.888
166.432 466.065
166.448 281.076
166.465 180.093
166.482 123.024
166.498 88.6315
166.515 66.6126
166.531 51.7777
166.565 33.7691
166.598 23.7304
166.631 17.5919
166.697 10.8066
166.764 7.34721
166.830 5.35197
166.897 4.09930
166.963 3.26369
167.096 2.25213
167.228 1.69013
167.494 1.12575
167.759 0.869908
168.025 0.740394
168.556 0.641070
169.618 0.687404
170.680 0.926994
171.211 1.14517
171.742 1.47885
172.273 2.01697
172.804 2.96326
173.070 3.73340
173.335 4.87416
173.601 6.67621
173.866 9.79296
173.999 12.3003
174.132 15.9735
174.264 21.7001
174.397 31.3865
174.530 49.8883
174.596 66.2539
174.663 92.4367
174.729 138.234
174.795 228.375
174.829 309.168
174.862 437.724
174.895 652.390
174.928 1016.01
174.964 1616.23
175.000 2013.80
175.036 1616.57
175.072 1017.34
175.099 705.401
175.127 504.514
175.154 374.308
175.181 287.553
175.235 185.363
175.290 131.656
175.344 101.065
175.399 83.1282
175.453 72.9386
175.508 68.2608
175.562 68.3037
175.616 73.3802
175.644 78.2707
175.671 85.1723
175.698 94.6885
175.725 107.716
175.753 125.724
175.780 150.810
175.807 186.708
175.834 239.772
175.861 321.520
175.889 453.799
175.916 678.829
175.929 848.025
175.943 1069.56
175.972 1697.45
176.000 2113.20
176.029 1695.77
176.057 1066.66
176.077 762.619
176.096 558.864
176.116 421.138
176.136 326.951
176.175 211.586
176.214 147.673
176.254 109.000
176.293 83.9356
176.371 54.5797
176.450 38.6388
176.529 29.0049
176.686 18.3666
176.843 12.8595
177.000 9.60991
177.314 6.07887
177.629 4.29917
177.943 3.35234
178.100 3.14420
178.257 3.29350
178.336 3.74762
178.414 5.08821
178.454 6.74599
178.493 10.4525
178.513 14.2327
178.532 21.0664
178.552 34.8481
178.562 47.0135
178.571 65.1003
178.586 103.031
178.600 128.334
178.614 102.987
178.629 65.0200
178.645 38.4063
178.661 24.5806
178.677 17.0478
178.693 12.6180
178.726 7.96656
178.758 5.72972
178.791 4.47980
178.823 3.71019
178.888 2.84111
179.017 2.08436
179.147 1.73930
179.406 1.38554
179.664 1.18213
180.182 0.930667
180.700 0.776225
181.736 0.645021
181.995 0.675966
182.254 0.821131
182.383 1.03789
182.448 1.25119
182.513 1.62696
182.578 2.37642
182.610 3.06287
182.642 4.19381
182.675 6.25950
182.691 7.98787
182.707 10.5729
182.723 14.7140
182.739 21.7847
182.756 34.8175
182.772 59.7938
182.786 95.3467
182.800 119.027
182.814 95.3372
182.828 59.7805
182.839 41.8546
182.849 30.2070
182.860 22.4765
182.870 17.3108
182.891 11.0912
182.911 7.72867
182.932 5.71318
182.952 4.42862
182.994 2.94009
183.035 2.14820
183.076 1.67810
183.159 1.17126
183.242 0.917621
183.324 0.772198
183.489 0.619228
183.820 0.501398
184.150 0.461444
184.481 0.458142
184.811 0.509207
184.976 0.594563
185.141 0.833940
185.224 1.14559
185.265 1.43676
185.307 1.92906
185.348 2.85706
185.369 3.66406
185.389 4.91950
185.410 7.03826
185.430 10.9256
185.441 14.2080
185.451 19.0314
185.461 26.3654
185.472 37.5316
185.486 59.8577
185.500 74.5779
185.514 59.6852
185.528 37.5252
185.543 22.8401
185.558 14.8296
185.572 10.2731
185.587 7.51422
185.602 5.73214
185.616 4.53813
185.645 3.08440
185.675 2.26947
185.704 1.77217
185.762 1.22047
185.821 0.938731
185.879 0.776027
185.996 0.605478
186.230 0.477502
186.464 0.433180
187.400 0.417601
188.336 0.510472
188.570 0.580989
188.804 0.748256
188.921 0.954432
188.979 1.14634
189.038 1.47469
189.096 2.11242
189.126 2.68755
189.155 3.62193
189.184 5.29923
189.213 8.70814
189.228 11.8761
189.243 17.1106
189.257 26.3185
189.272 43.0559
189.286 68.6567
189.300 85.5555
189.314 68.4627
189.328 43.0562
189.339 29.9689
189.349 21.5497
189.360 16.0548
189.370 12.3668
189.391 7.97684
189.412 5.60849
189.434 4.19818
189.455 3.30401
189.497 2.27665
189.539 1.73395
189.581 1.41637
189.665 1.08168
189.833 0.838698
190.001 0.767962
190.673 0.827750
191.346 1.07672
192.018 1.55696
192.355 1.96175
192.691 2.57486
193.027 3.56666
193.363 5.32681
193.531 6.77093
193.699 8.91709
193.868 12.3081
194.036 18.1280
194.120 22.7443
194.204 29.3769
194.288 39.4086
194.372 55.5372
194.456 83.8394
194.498 106.584
194.540 139.564
194.582 189.638
194.624 269.083
194.666 401.538
194.708 626.497
194.754 1002.10
194.800 1252.25
194.846 1001.61
194.892 626.006
194.932 411.067
194.971 280.892
195.011 200.767
195.050 149.376
195.129 90.8843
195.208 60.7301
195.287 43.3149
195.366 32.4329
195.524 20.1367
195.683 13.7454
195.841 10.0170
195.999 7.66096
196.157 6.08333
196.473 4.18377
196.789 3.15233
197.105 2.56439
197.422 2.24284
198.054 2.17126
198.370 2.46309
198.686 3.16388
199.003 4.79791
199.161 6.43983
199.319 9.38170
199.477 15.3892
199.556 21.0468
199.635 30.6781
199.714 49.0933
199.754 65.2611
199.793 90.8944
199.833 134.970
199.853 169.681
199.872 218.697
199.892 291.218
199.912 401.670
199.932 577.764
199.951 857.916
199.976 1372.64
200.000 1715.81
200.024 1372.36
200.049 857.617
200.067 595.737
200.085 425.316
200.103 314.117
200.121 239.846
200.157 151.061
200.193 103.107
200.229 74.6217
200.266 56.4313
200.338 35.4796
200.410 24.3608
200.482 17.7918
200.627 10.7401
200.771 7.23492
200.916 5.24463
201.060 4.00552
201.204 3.18156
201.493 2.18703
201.782 1.63273
202.360 1.07354
202.937 0.831633
203.515 0.773144
203.804 0.848913
203.948 0.951656
204.093 1.15431
204.237 1.59537
204.310 2.02648
204.382 2.78527
204.454 4.29987
204.490 5.69290
204.526 8.01001
204.562 12.2723
204.580 15.8870
204.598 21.3617
204.616 30.2727
204.634 45.7393
204.653 75.3800
204.662 100.031
204.671 135.051
204.678 172.893
204.685 216.144
204.700 269.738
204.715 215.541
204.730 135.028
204.744 84.4327
204.758 55.7598
204.772 38.9510
204.786 28.5507
204.815 17.1260
204.843 11.4137
204.872 8.17481
204.900 6.18344
204.957 3.96096
205.014 2.81558
205.071 2.15199
205.184 1.45223
205.298 1.11098
205.412 0.920802
205.639 0.732079
206.094 0.625056
206.548 0.662113
207.003 0.845605
207.230 1.04890
207.458 1.42655
207.685 2.22837
207.799 3.01175
207.912 4.40158
208.026 7.23474
208.083 9.90852
208.140 14.4753
208.197 23.2726
208.225 31.0534
208.254 43.4929
208.282 65.0733
208.296 82.2566
208.310 106.930
208.325 143.800
208.339 201.385
208.353 295.158
208.367 449.910
208.384 720.652
208.400 899.718
208.408 845.846
208.417 718.832
208.433 449.830
208.446 307.167
208.458 216.857
208.471 158.823
208.484 120.346
208.509 75.1050
208.535 50.9827
208.560 36.7309
208.586 27.7259
208.636 17.4106
208.687 11.9633
208.738 8.75943
208.840 5.33390
208.941 3.63950
209.043 2.68215
209.246 1.69978
209.450 1.23509
209.653 0.983359
210.060 0.745177
210.466 0.657777
210.873 0.640301
211.687 0.739889
212.500 1.06552
212.907 1.40448
213.313 2.01812
213.517 2.52761
213.720 3.29326
213.923 4.52334
214.127 6.68837
214.228 8.45355
214.330 11.0658
214.432 15.1709
214.533 22.1598
214.584 27.6762
214.635 35.5522
214.686 47.3906
214.737 66.2295
214.788 98.8662
214.813 124.720
214.839 161.718
214.864 216.761
214.889 302.232
214.915 440.345
214.940 666.150
214.970 1065.73
215.000 1330.68
215.030 1064.09
215.060 665.973
215.084 452.888
215.107 318.353
215.131 232.444
215.154 175.774
215.201 109.505
215.248 74.3756
215.295 53.7811
215.342 40.7666
215.436 25.9803
215.530 18.3246
215.624 13.9667
215.812 9.88615
216.000 9.23213
216.094 10.1721
216.188 12.5802
216.282 18.1138
216.329 23.4578
216.376 32.5467
216.423 49.5819
216.447 64.1795
216.470 86.6733
216.494 123.629
216.517 189.511
216.529 242.977
216.541 319.036
216.552 431.191
216.564 593.207
216.582 947.712
216.600 1183.99
216.618 947.525
216.636 592.926
216.648 428.585
216.660 317.120
216.683 187.929
216.707 122.073
216.731 85.3171
216.754 62.8336
216.778 48.2791
216.825 31.1681
216.873 21.9295
216.920 16.3877
217.014 10.3487
217.109 7.29269
217.204 5.52737
217.393 3.66334
217.582 2.75189
217.771 2.25418
218.149 1.84817
218.528 1.96867
218.717 2.29394
218.906 2.98259
219.095 4.51627
219.190 6.02669
219.284 8.69034
219.379 14.0292
219.426 18.9546
219.473 27.1728
219.521 42.3604
219.544 55.2922
219.568 74.9983
219.592 107.245
219.615 163.833
219.627 208.978
219.639 273.047
219.651 365.473
219.663 498.193
219.681 797.027
219.700 994.566
219.719 795.232
219.738 498.076
219.757 298.332
219.777 190.632
219.797 130.022
219.817 93.6021
219.837 70.3326
219.856 54.6781
219.896 35.7009
219.936 25.1150
219.975 18.6660
220.055 11.5378
220.134 7.89791
220.213 5.79931
220.371 3.59624
220.530 2.52573
220.688 1.93019
221.005 1.34432
221.322 1.12763
221.639 1.18350
221.798 1.41771
221.877 1.67204
221.956 2.13758
222.035 3.09588
222.075 3.99460
222.115 5.51719
222.154 8.39208
222.174 10.8876
222.194 14.7927
222.214 21.3584
222.233 33.4876
222.243 43.6437
222.253 58.7290
222.263 81.7490
222.273 116.951
222.280 149.805
222.287 186.802
222.300 233.402
222.314 186.789
222.327 116.934
222.339 77.3065
222.350 53.1416
222.362 38.2228
222.373 28.6998
222.396 17.7672
222.419 12.0990
222.442 8.82001
222.465 6.76409
222.510 4.43766
222.556 3.22368
222.602 2.51623
222.694 1.76867
222.785 1.40706
222.877 1.21076
223.060 1.03239
223.427 1.00513
223.793 1.21677
224.160 1.78347
224.343 2.36471
224.526 3.41640
224.618 4.29009
224.709 5.59941
224.801 7.68974
224.893 11.3267
224.984 18.5129
225.030 25.0524
225.076 35.8256
225.099 44.0237
225.122 55.3679
225.145 71.6529
225.168 96.1046
225.190 134.906
225.213 200.749
225.225 251.689
225.236 321.073
225.248 418.288
225.259 551.145
225.280 883.005
225.300 1102.98
225.321 881.157
225.341 551.014
225.361 341.755
225.381 223.934
225.401 155.362
225.421 113.157
225.441 85.7213
225.461 67.0269
225.501 44.0705
225.541 31.1037
225.581 23.1385
225.661 14.2690
225.741 9.71102
225.821 7.07405
225.901 5.41102
225.981 4.29892
226.141 2.95025
226.302 2.19839
226.622 1.44322
226.942 1.10478
227.262 0.942316
227.903 0.867012
228.543 1.02479
228.863 1.22471
229.183 1.58675
229.504 2.31397
229.664 2.99471
229.824 4.17134
229.984 6.52362
230.064 8.73303
230.144 12.5283
230.224 19.9580
230.264 26.6821
230.304 37.7228
230.344 57.6878
230.364 74.2867
230.384 99.1637
230.404 138.551
230.424 205.189
230.444 326.460
230.454 423.564
230.464 557.036
230.482 890.233
230.500 1112.33
230.518 890.201
230.536 557.055
230.549 387.013
230.563 277.173
230.576 204.945
230.589 156.849
230.616 99.3661
230.643 68.4670
230.669 50.0683
230.696 38.3537
230.749 24.9552
230.803 17.9230
230.856 13.8523
230.963 9.70544
231.070 7.96531
231.176 7.35773
231.390 8.15867
231.496 9.53729
231.603 11.8727
231.710 15.7935
231.816 22.7302
231.870 28.3053
231.923 36.3609
231.977 48.6200
232.030 68.4204
232.083 103.403
232.110 131.716
232.137 172.815
232.163 235.670
232.190 336.035
232.217 505.916
232.243 797.355
232.272 1276.35
232.300 1594.10
232.329 1274.24
232.357 797.004
232.376 571.679
232.395 419.072
232.415 315.912
232.434 244.703
232.472 157.396
232.511 108.889
232.549 79.5303
232.587 60.5329
232.664 38.3692
232.741 26.4734
232.818 19.3752
232.971 11.6965
233.125 7.85244
233.279 5.65636
233.432 4.28380
233.586 3.36875
233.893 2.25979
234.200 1.63863
234.507 1.25582
234.814 1.00425
235.429 0.710757
236.043 0.578240
236.350 0.572266
236.657 0.668947
236.811 0.839881
236.888 1.01446
236.964 1.32814
237.041 1.96511
237.080 2.55819
237.118 3.55533
237.156 5.41678
237.176 7.01335
237.195 9.48076
237.214 13.5557
237.233 20.8824
237.252 35.4832
237.262 48.2279
237.271 66.7596
237.286 106.557
237.300 133.065
237.314 106.548
237.329 66.7467
237.339 46.6394
237.350 33.5877
237.360 24.9347
237.370 19.1565
237.391 12.2053
237.412 8.45014
237.433 6.20052
237.454 4.76716
237.496 3.10670
237.537 2.22352
237.579 1.69924
237.662 1.13384
237.746 0.850657
237.829 0.688041
237.996 0.516247
238.330 0.380662
238.663 0.327022
239.330 0.289014
239.998 0.295049
240.665 0.353476
240.999 0.423444
241.332 0.557434
241.666 0.848116
241.833 1.13631
241.999 1.65492
242.083 2.08519
242.166 2.73175
242.250 3.76743
242.333 5.57919
242.416 9.18549
242.458 12.5014
242.500 18.0214
242.541 28.1948
242.562 36.8384
242.583 49.9710
242.604 71.4036
242.625 108.820
242.635 138.871
242.646 181.011
242.656 241.520
242.667 327.964
242.683 524.852
242.700 654.883
242.717 523.558
242.734 327.912
242.751 198.373
242.768 127.664
242.786 87.2901
242.803 63.0291
242.820 47.3716
242.838 36.8677
242.872 24.0796
242.907 16.9144
242.942 12.5394
243.011 7.68757
243.080 5.20988
243.149 3.77880
243.219 2.87900
243.288 2.27703
243.427 1.54712
243.565 1.13957
243.843 0.726140
244.120 0.534498
244.397 0.434683
244.951 0.357396
245.506 0.378515
245.783 0.434979
246.060 0.553758
246.338 0.819033
246.476 1.08302
246.615 1.55706
246.684 1.94907
246.753 2.53614
246.823 3.47238
246.892 5.10018
246.961 8.31070
246.996 11.2398
247.031 16.0522
247.065 24.8131
247.083 32.0990
247.100 43.0398
247.117 60.5329
247.135 90.1077
247.143 113.043
247.152 144.214
247.161 188.043
247.169 247.808
247.177 317.130
247.185 396.354
247.200 495.373
247.208 466.238
247.215 396.329
247.231 247.781
247.249 141.676
247.267 87.6690
247.284 58.5295
247.302 41.5213
247.320 30.8271
247.338 23.7870
247.373 15.3789
247.409 10.7571
247.445 7.97253
247.516 4.93191
247.587 3.40667
247.659 2.54891
247.801 1.72097
247.944 1.47907
248.015 1.53687
248.086 1.77667
248.157 2.38592
248.193 2.98982
248.229 4.01976
248.264 5.95353
248.282 7.59810
248.300 10.1141
248.318 14.2029
248.336 21.3713
248.353 35.1028
248.362 46.6364
248.371 63.0978
248.386 100.661
248.400 125.698
248.414 100.639
248.429 63.0588
248.438 46.5879
248.447 35.0451
248.464 21.3491
248.482 14.1374
248.500 10.0350
248.518 7.48621
248.535 5.82156
248.571 3.84209
248.606 2.76147
248.642 2.10771
248.713 1.38795
248.784 1.01846
248.855 0.801676
248.997 0.566516
249.139 0.445039
249.281 0.372406
249.565 0.291224
250.133 0.222233
250.700 0.195324
251.836 0.190097
252.120 0.201992
252.404 0.236156
252.546 0.281303
252.688 0.399487
252.759 0.548701
252.795 0.685853
252.830 0.914331
252.866 1.33617
252.883 1.69557
252.901 2.24247
252.919 3.13891
252.937 4.71055
252.954 7.74479
252.963 10.3309
252.972 14.0033
252.986 22.3128
253.000 27.7931
253.014 22.2491
253.028 14.0025
253.040 9.34920
253.052 6.48857
253.064 4.71100
253.075 3.56278
253.099 2.24799
253.123 1.56468
253.146 1.16891
253.170 0.920611
253.217 0.640029
253.264 0.493567
253.311 0.408130
253.406 0.318192
253.594 0.251246
253.783 0.229138
254.538 0.224407
256.047 0.305576
256.802 0.403261
257.179 0.489231
257.556 0.632207
257.934 0.911482
258.122 1.17363
258.311 1.63189
258.500 2.56576
258.594 3.45808
258.688 5.01586
258.783 8.13152
258.830 11.0160
258.877 15.8466
258.924 24.8885
258.948 32.6640
258.971 44.6561
258.995 64.6229
259.007 79.8361
259.019 100.794
259.030 130.486
259.042 173.757
259.054 238.233
259.066 333.196
259.083 533.561
259.100 666.139
259.117 532.280
259.134 333.158
259.150 211.640
259.166 140.937
259.182 98.9336
259.198 72.6948
259.230 43.6135
259.262 28.9560
259.294 20.6289
259.326 15.4732
259.390 9.71050
259.454 6.74573
259.518 5.02946
259.646 3.23556
259.774 2.38064
259.902 1.92195
260.158 1.51134
260.414 1.39884
260.670 1.43549
261.182 1.84294
261.438 2.25623
261.694 2.90739
261.950 3.97851
262.206 5.89020
262.334 7.45978
262.462 9.79300
262.590 13.4772
262.654 16.1765
262.718 19.7878
262.782 24.7889
262.846 31.9789
262.910 42.8345
262.974 60.2992
263.038 90.8900
263.070 115.490
263.102 151.153
263.134 205.130
263.166 290.892
263.198 433.786
263.230 675.263
263.265 1079.78
263.300 1349.24
263.335 1079.55
263.370 675.075
263.411 387.596
263.451 240.242
263.492 160.464
263.532 114.008
263.573 84.8643
263.613 65.6154
263.694 42.6768
263.775 30.1683
263.855 22.7281
264.017 15.0453
264.179 12.2842
264.260 12.3373
264.341 13.7479
264.422 17.7941
264.462 21.8867
264.502 28.8955
264.543 41.9471
264.563 52.9147
264.583 69.4614
264.603 95.8102
264.624 140.635
264.644 222.706
264.664 379.851
264.682 605.409
264.700 755.729
264.718 605.181
264.736 379.442
264.750 261.456
264.764 186.194
264.777 137.251
264.791 104.922
264.819 66.5865
264.846 46.1003
264.873 33.9215
264.901 26.1752
264.956 17.2057
265.011 12.4000
265.066 9.52221
265.175 6.35003
265.285 4.69687
265.395 3.70600
265.615 2.59079
265.835 1.98659
266.054 1.61118
266.494 1.17781
266.933 0.945811
267.372 0.813272
268.251 0.708841
269.130 0.754993
270.008 1.01307
270.448 1.34050
270.668 1.63457
270.887 2.12530
271.107 3.07658
271.217 3.95747
271.327 5.47003
271.436 8.46826
271.491 11.2431
271.546 15.9324
271.574 19.6102
271.601 24.8245
271.615 28.3260
271.629 32.6257
271.642 38.0227
271.656 44.9181
271.670 53.9835
271.684 66.0097
271.697 82.5080
271.711 105.865
271.725 140.444
271.738 192.876
271.752 275.653
271.766 407.302
271.783 650.407
271.800 812.358
271.809 764.204
271.817 650.404
271.834 407.341
271.850 262.525
271.865 176.920
271.881 125.418
271.896 93.1202
271.927 56.7448
271.958 38.3330
271.989 27.8018
272.020 21.2995
272.082 14.0461
272.144 10.3700
272.206 8.30557
272.329 6.33414
272.453 5.66698
272.577 5.64633
272.825 6.94337
273.072 10.5739
273.196 14.1475
273.320 20.2684
273.382 25.0661
273.444 31.8726
273.506 41.9514
273.567 57.7145
273.629 84.1828
273.691 132.963
273.722 173.781
273.753 234.052
273.784 325.645
273.815 465.020
273.858 743.744
273.900 928.761
273.943 742.798
273.985 464.760
274.035 265.145
274.084 163.569
274.134 108.985
274.184 77.2152
274.233 57.3366
274.283 44.2130
274.382 28.5642
274.481 19.9871
274.581 14.8133
274.779 9.16871
274.978 6.34716
275.176 4.76659
275.573 3.26915
275.970 2.91375
276.169 3.11981
276.367 3.75674
276.566 5.33257
276.665 6.93186
276.764 9.78224
276.863 15.5308
276.913 20.8432
276.963 29.7181
277.012 46.1376
277.037 60.0948
277.062 81.4713
277.087 116.335
277.111 177.880
277.124 227.110
277.136 297.145
277.149 398.482
277.161 544.487
277.181 871.311
277.200 1087.61
277.220 869.434
277.239 544.368
277.251 404.293
277.263 305.272
277.286 186.048
277.310 123.044
277.333 86.9030
277.357 64.3836
277.381 49.6176
277.428 32.0495
277.475 22.4520
277.522 16.6813
277.616 10.3833
277.710 7.20729
277.805 5.39289
277.993 3.51481
278.182 2.63499
278.370 2.18472
278.747 1.90349
279.124 2.22606
279.313 2.72784
279.501 3.71681
279.690 5.84302
279.784 7.90180
279.878 11.4853
279.972 18.5425
280.019 24.9289
280.067 35.3775
280.114 54.1250
280.137 69.6083
280.161 92.4908
280.184 128.386
280.208 187.678
280.231 293.013
280.243 375.241
280.255 484.965
280.278 775.875
280.300 968.440
280.323 774.396
280.345 484.843
280.359 354.786
280.374 264.485
280.402 158.170
280.431 103.289
280.459 72.2736
280.488 53.1697
280.517 40.6944
280.574 26.0295
280.631 18.0758
280.688 13.3125
280.802 8.12963
280.917 5.52473
281.031 4.03318
281.145 3.09954
281.260 2.47603
281.488 1.71967
281.717 1.29469
282.174 0.858122
282.631 0.651468
283.088 0.542019
284.003 0.459878
284.917 0.500788
285.374 0.584282
285.831 0.755042
286.289 1.13128
286.517 1.50418
286.746 2.17406
286.860 2.72956
286.974 3.56487
287.089 4.90584
287.203 7.26250
287.317 11.9956
287.374 16.3989
287.432 23.8055
287.489 37.7436
287.517 49.7975
287.546 68.5131
287.574 99.9115
287.589 124.026
287.603 157.213
287.617 204.936
287.632 275.281
287.646 381.585
287.660 540.936
287.680 865.258
287.700 1081.43
287.720 865.174
287.740 540.850
287.761 329.152
287.781 212.284
287.802 145.670
287.822 105.439
287.842 79.4199
287.863 61.8392
287.904 40.4745
287.945 28.4971
287.986 21.1777
288.068 13.0647
288.150 8.92897
288.231 6.54955
288.395 4.08031
288.559 2.92108
288.723 2.32208
289.050 1.89992
289.378 2.14335
289.542 2.59140
289.706 3.47939
289.869 5.36791
289.951 7.17492
290.033 10.2963
290.115 16.3848
290.156 21.8778
290.197 30.8123
290.238 46.8355
290.258 60.0178
290.279 79.4510
290.299 109.893
290.320 160.024
290.340 248.873
290.350 317.669
290.361 410.080
290.380 654.985
290.400 818.132
290.420 655.058
290.439 410.286
290.459 253.313
290.479 165.751
290.498 114.997
290.518 84.1631
290.538 64.1594
290.557 50.7010
290.597 34.3766
290.636 25.4161
290.675 20.2114
290.754 15.5323
290.832 15.7006
290.871 17.8095
290.911 22.2442
290.950 31.2792
290.970 39.1628
290.989 51.3165
291.009 71.2353
291.028 105.921
291.048 171.809
291.058 226.633
291.068 304.252
291.084 484.414
291.100 604.308
291.116 484.140
291.132 303.729
291.145 208.220
291.158 147.675
291.170 108.464
291.183 82.6784
291.208 52.2000
291.233 35.9685
291.258 26.3307
291.283 20.1871
291.333 13.1062
291.383 9.31001
291.433 7.03698
291.534 4.53336
291.634 3.23796
291.734 2.46909
291.935 1.62214
292.135 1.17883
292.336 0.912341
292.737 0.614892
293.138 0.457590
293.540 0.362780
294.342 0.257506
295.144 0.203092
295.947 0.171925
297.552 0.143423
299.156 0.141609
300.761 0.168505
301.564 0.203544
302.366 0.278690
302.767 0.357906
303.168 0.533439
303.369 0.738399
303.469 0.925788
303.570 1.24624
303.670 1.87998
303.720 2.46880
303.770 3.46569
303.820 5.37353
303.846 7.05810
303.871 9.73350
303.896 14.3821
303.921 23.3846
303.933 31.3434
303.946 43.6594
303.958 63.6417
303.971 96.4746
303.985 154.076
304.000 192.475
304.015 154.078
304.029 96.4860
304.046 55.8118
304.063 34.9036
304.079 23.4867
304.096 16.8401
304.113 12.6448
304.129 9.87806
304.162 6.56895
304.196 4.75033
304.229 3.65560
304.295 2.47424
304.362 1.89641
304.429 1.58586
304.562 1.31845
304.828 1.33858
305.094 1.77394
305.227 2.19264
305.360 2.84618
305.493 3.91712
305.626 5.82293
305.693 7.38570
305.759 9.69852
305.826 13.3320
305.892 19.5111
305.959 31.3002
305.992 41.6447
306.025 57.9592
306.059 85.9163
306.075 107.774
306.092 138.685
306.108 184.300
306.125 253.384
306.142 362.127
306.158 534.490
306.179 855.319
306.200 1069.28
306.221 855.230
306.242 534.393
306.263 326.676
306.284 211.344
306.305 145.307
306.327 105.289
306.348 79.3510
306.369 61.8623
306.411 40.4521
306.453 28.4510
306.496 21.0850
306.580 12.9136
306.665 8.72915
306.750 6.31328
306.834 4.79339
306.919 3.77646
307.088 2.54420
307.257 1.85762
307.427 1.43830
307.596 1.16614
307.934 0.853092
308.273 0.698526
308.950 0.609530
309.627 0.718695
309.965 0.875391
310.304 1.17161
310.642 1.78820
310.812 2.37802
310.981 3.40923
311.150 5.48803
311.235 7.44087
311.319 10.7911
311.404 17.2935
311.446 23.1296
311.489 32.6099
311.510 39.7503
311.531 49.4697
311.552 63.2838
311.573 83.5325
311.594 114.990
311.615 166.213
311.637 255.520
311.658 414.237
311.679 662.953
311.700 827.754
311.721 661.680
311.742 414.257
311.766 241.667
311.790 151.698
311.813 102.376
311.837 73.2811
311.861 54.8780
311.884 42.6868
311.931 28.0782
311.979 20.0493
312.026 15.2307
312.120 10.0600
312.215 7.62214
312.309 6.44165
312.498 6.04776
312.687 7.83198
312.782 10.0412
312.876 14.1091
312.971 22.3031
313.018 29.7893
313.065 42.0369
313.113 64.0673
313.136 82.1642
313.160 108.977
313.183 150.744
313.207 219.772
313.231 341.201
313.242 435.445
313.254 561.925
313.277 898.872
313.300 1123.56
313.323 898.733
313.346 561.744
313.364 378.269
313.383 263.923
313.401 191.602
313.420 144.239
313.456 89.2413
313.493 60.2620
313.530 43.3199
313.567 32.6167
313.640 20.4102
313.714 13.9878
313.788 10.2108
313.935 6.16667
314.082 4.15596
314.229 3.01075
314.377 2.29450
314.524 1.81557
314.818 1.23230
315.113 0.902372
315.702 0.559098
316.291 0.392072
316.879 0.298435
318.057 0.205445
319.235 0.171299
320.413 0.182070
321.002 0.222223
321.296 0.266080
321.591 0.347821
321.885 0.522491
322.033 0.694353
322.180 1.00229
322.253 1.25742
322.327 1.63949
322.401 2.24987
322.474 3.31390
322.548 5.42082
322.585 7.34744
322.621 10.5358
322.658 16.3594
322.677 21.2471
322.695 28.6391
322.713 40.4859
322.732 60.8757
322.750 98.9148
322.759 130.083
322.769 173.699
322.777 222.583
322.784 277.691
322.800 346.949
322.816 277.675
322.831 173.681
322.844 116.579
322.857 81.1879
322.870 58.7139
322.882 44.1598
322.908 27.2375
322.933 18.3789
322.959 13.1882
322.984 9.91671
323.035 6.20116
323.086 4.25048
323.137 3.10754
323.239 1.88902
323.341 1.28915
323.443 0.951043
323.647 0.605171
323.850 0.442422
324.054 0.354933
324.462 0.274068
324.869 0.247273
325.277 0.246589
326.092 0.300899
326.499 0.362038
326.907 0.461797
327.314 0.630863
327.722 0.942209
327.926 1.20461
328.130 1.60392
328.333 2.25380
328.537 3.41529
328.639 4.37434
328.741 5.80887
328.843 8.09288
328.945 12.0489
329.046 19.8220
329.097 26.8731
329.148 38.4017
329.174 47.1435
329.199 59.1832
329.225 76.3609
329.250 101.820
329.276 141.885
329.301 208.420
329.327 327.443
329.339 420.547
329.352 546.515
329.376 874.366
329.400 1092.88
329.424 874.259
329.448 546.402
329.465 383.342
329.483 276.376
329.500 205.308
329.517 157.443
329.552 99.7052
329.586 68.2509
329.621 49.4620
329.655 37.4170
329.724 23.4931
329.793 16.0873
329.862 11.6962
329.931 8.88397
330.000 6.97891
330.000 20.2861
350.000 19.4813
400.000 17.7624
500.000 15.1984
600.000 13.3620
700.000 11.9722
720.000 11.7332
850.000 10.4128
1000.00 9.25574
1250.00 7.86278
1500.00 6.87440
1700.00 6.26570
2000.00 5.55215
2500.00 4.69939
3000.00 4.09914
3500.00 3.65153
4000.00 3.30375
5000.00 2.79646
5000.00 2.73883
6272.77 2.45332
10000.0 1.61723
20000.0 1.01077
50000.0 0.567264
100000 0.384890
137026 0.330840
159434 0.298129
200000 0.238911
248783 0.219915
303301 0.198687
339422 0.184622
400000 0.161033
484870 0.147778
497951 0.145736
545534 0.138304
600000 0.129798
618640 0.128450
622501 0.128170
720665 0.121070
777279 0.116975
800000 0.115331
970349 0.118560
1.00000E+06 0.119122
1.03361E+06 0.120916
1.20000E+06 0.129796
1.23827E+06 0.131632
1.24639E+06 0.132022
1.31435E+06 0.135283
1.34747E+06 0.136872
1.39775E+06 0.139285
1.40000E+06 0.139393
1.40000E+06 0.139393
1.41122E+06 0.139506
1.60000E+06 0.141414
1.80000E+06 0.134842
2.00000E+06 0.121562
2.20000E+06 0.105579
2.40000E+06 0.0853023
2.60000E+06 0.0665460
2.80000E+06 0.0520804
3.00000E+06 0.0387768
3.20000E+06 0.0289483
3.40000E+06 0.0218801
3.60000E+06 0.0163613
3.73837E+06 0.0137275
3.80000E+06 0.0125543
4.00000E+06 0.00954714
4.20000E+06 0.00744577
4.40000E+06 0.00579050
4.60000E+06 0.00457329
4.80000E+06 0.00368749
4.87521E+06 0.00340103
5.00000E+06 0.00292576
5.20000E+06 0.00240452
5.40000E+06 0.00195554
5.60000E+06 0.00161286
5.80000E+06 0.00138575
5.97533E+06 0.00119410
6.00000E+06 0.00116714
6.20000E+06 0.00102032
6.40000E+06 0.000930565
6.60000E+06 0.000810572
6.80000E+06 0.000797662
7.00000E+06 0.000786552
7.20000E+06 0.000771690
7.40000E+06 0.000789722
7.60000E+06 0.000762403
7.61899E+06 0.000769906
7.61900E+06 0.000769909
7.80000E+06 0.000841417
8.00000E+06 0.000904019
8.20000E+06 0.000921376
8.40000E+06 0.000981780
8.60000E+06 0.000984926
8.80000E+06 0.00106233
9.00000E+06 0.00113511
9.20000E+06 0.00114814
9.40000E+06 0.00119848
9.60000E+06 0.00120600
9.80000E+06 0.00125765
1.00000E+07 0.00131710
1.02000E+07 0.00131676
1.04000E+07 0.00134806
1.06000E+07 0.00135907
1.08000E+07 0.00138454
1.10000E+07 0.00141850
1.12000E+07 0.00141326
1.14000E+07 0.00142436
1.16000E+07 0.00142305
1.18000E+07 0.00143286
1.20000E+07 0.00144980
1.22000E+07 0.00143199
1.24000E+07 0.00141994
1.26000E+07 0.00139798
1.28000E+07 0.00138039
1.30000E+07 0.00137006
1.32000E+07 0.00133856
1.34000E+07 0.00131414
1.36000E+07 0.00128173
1.38000E+07 0.00123667
1.40000E+07 0.00119850
1.42000E+07 0.00114652
1.42972E+07 0.00112255
1.42972E+07 0.00112254
1.44000E+07 0.00109720
1.46000E+07 0.00105992
1.48000E+07 0.00103120
1.50000E+07 0.000979946
1.52000E+07 0.000947544
1.54000E+07 0.000913417
1.56000E+07 0.000871817
1.58000E+07 0.000844092
1.60000E+07 0.000799693
1.62000E+07 0.000766958
1.64000E+07 0.000737156
1.66000E+07 0.000712721
1.68000E+07 0.000696092
1.70000E+07 0.000666558
1.72000E+07 0.000646742
1.74000E+07 0.000626101
1.76000E+07 0.000608657
1.78000E+07 0.000593528
1.80000E+07 0.000568429
1.82000E+07 0.000549625
1.84000E+07 0.000530876
1.86000E+07 0.000516863
1.88000E+07 0.000509436
1.90000E+07 0.000492264
1.92000E+07 0.000480173
1.94000E+07 0.000468511
1.96000E+07 0.000460180
1.98000E+07 0.000455993
2.00000E+07 0.000444212