Ta-181(n,tot) ENDF/B-VII.1
Energy(eV) XS(b)
1.00000E-05 1061.21
1.25000E-05 949.825
1.50000E-05 867.605
2.00000E-05 752.194
2.75000E-05 642.381
3.50000E-05 570.111
4.25000E-05 517.938
5.00000E-05 477.997
6.25000E-05 428.186
7.50000E-05 391.416
0.000100000 339.804
0.000125000 304.583
0.000150000 278.583
0.000200000 242.089
0.000275000 207.365
0.000350000 184.513
0.000425000 168.016
0.000500000 155.387
0.000625000 139.637
0.000750000 128.011
0.00100000 111.693
0.00125000 100.558
0.00150000 92.3391
0.00200000 80.8032
0.00275000 69.8286
0.00350000 62.6073
0.00425000 57.3951
0.00500000 53.4057
0.00625000 48.4315
0.00750000 44.7609
0.0100000 39.6108
0.0125000 36.0983
0.0150000 33.5071
0.0200000 29.8730
0.0253000 27.2713
0.0314750 25.1162
0.0376500 23.5183
0.0500000 21.2679
0.0625000 19.7134
0.0750000 18.5692
0.100000 16.9699
0.125000 15.8849
0.150000 15.0888
0.200000 13.9816
0.275000 12.9457
0.350000 12.2798
0.500000 11.4663
0.750000 10.7830
0.840000 10.6418
1.00000 10.4753
1.50000 10.4443
2.00000 11.1023
2.56290 13.3063
2.84435 15.7387
3.12580 20.3535
3.39435 29.7379
3.52863 38.7621
3.66290 54.4419
3.79718 85.1870
3.86431 112.963
3.93145 158.343
3.99859 239.856
4.03216 307.337
4.06573 408.426
4.09929 569.446
4.13286 848.060
4.14965 1070.05
4.16643 1390.08
4.18322 1873.36
4.20000 2646.41
4.21290 3594.51
4.22580 5100.08
4.23870 7605.94
4.25160 11851.4
4.26580 18967.5
4.28000 23724.9
4.29425 18995.4
4.30850 11881.1
4.31931 8196.28
4.33011 5820.85
4.34092 4283.29
4.35172 3258.07
4.37333 2045.21
4.39494 1394.50
4.41655 1009.48
4.43816 764.209
4.48138 482.207
4.52459 332.852
4.56781 244.460
4.61103 187.884
4.65425 149.502
4.74069 102.242
4.82713 75.3312
4.91356 58.5451
5.00000 47.3618
5.15625 34.7965
5.31250 27.4113
5.46875 22.6918
5.62500 19.4854
5.93750 15.5175
6.25000 13.2377
6.56250 11.8058
6.87500 10.8541
7.50000 9.76561
8.12500 9.40218
8.43750 9.51850
8.75000 9.97462
9.06250 11.1053
9.21875 12.1792
9.37500 13.9171
9.53125 16.8943
9.68750 22.4670
9.76563 27.2118
9.84375 34.4706
9.92188 46.3126
10.0000 67.4350
10.0776 109.959
10.1163 149.568
10.1551 216.186
10.1745 267.859
10.1939 340.565
10.2133 447.120
10.2327 611.336
10.2520 881.564
10.2714 1363.98
10.2811 1754.11
10.2908 2313.62
10.3005 3131.77
10.3102 4324.28
10.3251 6941.05
10.3400 8709.02
10.3549 7002.01
10.3698 4401.11
10.3837 2810.16
10.3976 1880.92
10.4115 1326.71
10.4253 979.355
10.4531 592.675
10.4809 396.812
10.5086 284.931
10.5364 215.330
10.5919 136.953
10.6474 96.1578
10.7030 72.2371
10.7585 56.9975
10.8140 46.6797
10.9251 33.9670
11.0361 26.6994
11.1472 22.1363
11.2582 19.0719
11.4803 15.3163
11.7024 13.1733
11.9246 11.8316
12.1467 10.9446
12.5909 9.97785
12.8130 9.82347
13.0351 9.97556
13.2572 10.7685
13.3682 11.7283
13.4793 13.5937
13.5904 17.6591
13.6459 21.6526
13.7014 28.6941
13.7569 42.7218
13.7847 55.5390
13.8125 76.6465
13.8402 114.796
13.8541 146.374
13.8680 193.419
13.8819 267.193
13.8957 390.135
13.9027 483.078
13.9096 608.741
13.9166 779.993
13.9235 1011.48
13.9301 1296.15
13.9368 1622.20
13.9500 2036.65
13.9633 1639.99
13.9765 1033.73
13.9883 676.138
14.0000 461.880
14.0118 331.304
14.0236 248.261
14.0471 154.381
14.0706 106.113
14.0942 78.2871
14.1177 60.8525
14.1647 41.0834
14.2118 30.7181
14.2589 24.6027
14.3059 20.6847
14.3530 18.0175
14.4471 14.7040
14.5412 12.7851
14.7294 10.7270
14.9177 9.67292
15.1059 9.04029
15.4824 8.31323
15.8589 7.89550
16.2353 7.61333
16.9883 7.23722
17.7412 6.99433
18.4941 6.87641
18.8706 6.92001
19.2471 7.18093
19.4353 7.53403
19.6235 8.29960
19.7177 9.02864
19.8118 10.2574
19.9059 12.5283
19.9530 14.4451
20.0000 17.3567
20.0674 25.0423
20.1011 32.1151
20.1348 43.8419
20.1684 65.2469
20.1853 83.1531
20.2021 110.072
20.2190 152.859
20.2358 225.403
20.2442 281.169
20.2527 357.672
20.2611 463.687
20.2695 609.535
20.2771 781.051
20.2848 977.691
20.3000 1228.46
20.3076 1160.37
20.3153 990.705
20.3305 625.812
20.3397 468.656
20.3488 357.102
20.3671 221.847
20.3854 149.836
20.4037 108.134
20.4221 82.1414
20.4404 64.9491
20.4770 44.4283
20.5136 33.1397
20.5502 26.2819
20.6234 18.7143
20.6967 14.8404
20.7699 12.5871
20.9164 10.1916
21.0628 9.00589
21.2093 8.33644
21.5022 7.68108
21.7951 7.48448
22.0881 7.68126
22.2345 8.06502
22.3810 9.04603
22.4542 10.2271
22.4908 11.2910
22.5274 13.0490
22.5641 16.2998
22.5824 19.0838
22.6007 23.3953
22.6190 30.5679
22.6373 43.6292
22.6556 70.2336
22.6648 93.9697
22.6739 129.607
22.6870 203.068
22.7000 252.627
22.7131 204.652
22.7261 131.669
22.7350 96.6979
22.7440 73.1086
22.7619 46.3223
22.7797 33.0069
22.7976 25.6664
22.8333 18.4655
22.8691 15.3022
22.9406 12.9542
23.0120 12.5128
23.1550 13.8652
23.2980 17.8312
23.3694 21.4265
23.4409 27.0139
23.5124 36.1904
23.5839 52.5652
23.6196 65.9477
23.6554 85.6859
23.6911 116.408
23.7268 167.770
23.7626 262.588
23.7805 342.806
23.7983 464.868
23.8162 661.836
23.8341 1003.56
23.8519 1647.40
23.8609 2179.83
23.8698 2929.24
23.8849 4714.20
23.9000 5930.53
23.9151 4779.00
23.9302 3010.52
23.9420 2064.69
23.9538 1461.29
23.9656 1073.96
23.9774 817.284
24.0010 515.382
24.0246 354.090
24.0482 258.763
24.0718 198.049
24.1190 128.097
24.1662 90.8705
24.2134 68.7158
24.2606 54.4406
24.3078 44.6920
24.4023 32.5647
24.4967 25.5561
24.5911 21.1174
24.6855 18.1142
24.8743 14.3970
25.0631 12.2432
25.2519 10.8654
25.4408 9.91892
25.8184 8.71368
26.1960 7.98004
26.9513 7.11782
27.7066 6.60450
28.4619 6.25251
29.2171 6.07895
29.4060 6.14580
29.5948 6.46031
29.6892 6.93914
29.7364 7.41295
29.7836 8.24482
29.8308 9.87829
29.8544 11.3425
29.8780 13.7009
29.9016 17.8187
29.9252 25.8463
29.9370 32.9355
29.9488 44.0188
29.9606 62.0716
29.9724 91.8647
29.9862 144.587
30.0000 180.595
30.0138 146.637
30.0276 94.4216
30.0376 68.2598
30.0475 50.9473
30.0575 39.4848
30.0674 31.7005
30.0873 22.3103
30.1072 17.1674
30.1271 14.0781
30.1470 12.0857
30.1868 9.76227
30.2266 8.50872
30.2664 7.75403
30.3460 6.92231
30.5052 6.23401
30.6643 5.94490
31.3011 5.55823
31.9378 5.47545
32.5745 5.62731
33.2112 6.30670
33.5296 7.13048
33.8480 8.73569
34.1663 12.2235
34.3255 15.6382
34.4847 21.6715
34.5643 26.5900
34.6439 33.8705
34.7235 45.3321
34.7633 53.7251
34.8030 64.9808
34.8428 80.5898
34.8826 103.130
34.9224 137.441
34.9622 193.341
35.0020 293.348
35.0219 375.571
35.0418 497.361
35.0617 687.329
35.0816 1001.78
35.1015 1556.25
35.1214 2566.90
35.1407 4117.49
35.1600 5167.38
35.1793 4154.81
35.1986 2615.27
35.2193 1574.55
35.2399 1013.98
35.2606 700.738
35.2813 513.797
35.3020 395.327
35.3226 316.509
35.3640 223.437
35.4053 175.177
35.4466 150.084
35.5293 139.393
35.5706 149.983
35.6120 173.407
35.6533 215.889
35.6947 291.389
35.7360 432.960
35.7567 551.801
35.7773 729.781
35.7980 1009.60
35.8187 1475.99
35.8393 2303.33
35.8600 3819.90
35.8800 6153.40
35.9000 7755.50
35.9200 6264.17
35.9400 3957.63
35.9523 2945.71
35.9645 2231.44
35.9890 1371.82
36.0135 917.323
36.0380 655.176
36.0624 491.959
36.0869 384.022
36.1359 255.000
36.1849 183.753
36.2339 140.236
36.3318 91.7916
36.4298 66.6629
36.5277 51.8727
36.7236 35.9940
36.9195 28.2188
37.1154 24.1453
37.5072 21.9723
37.7031 23.4008
37.8990 27.1165
38.0949 34.6743
38.2908 49.9377
38.3888 63.2776
38.4867 83.8429
38.5847 117.374
38.6826 176.529
38.7316 224.250
38.7806 293.642
38.8295 399.534
38.8785 571.389
38.9275 874.511
38.9520 1118.98
38.9765 1473.37
39.0009 2009.15
39.0254 2857.09
39.0499 4259.91
39.0744 6617.42
39.1022 10717.0
39.1300 13560.1
39.1578 10981.7
39.1856 6950.80
39.2050 4974.26
39.2244 3645.05
39.2438 2752.40
39.2632 2139.12
39.3021 1389.90
39.3409 974.116
39.3797 721.981
39.4185 558.220
39.4962 365.820
39.5738 261.299
39.6514 198.124
39.7291 156.910
39.8067 128.461
39.9620 92.6064
40.1172 71.5524
40.2725 58.0310
40.4278 48.7666
40.7383 37.1161
41.0489 30.2346
41.3594 25.7630
41.6700 22.6540
42.2910 18.6523
42.9121 16.2074
43.5332 14.5653
44.1543 13.3868
45.3965 11.8031
46.6387 10.7814
47.2597 10.4013
47.8808 10.1204
48.1914 10.0703
48.3467 10.1122
48.5019 10.2663
48.6572 10.7060
48.7348 11.1913
48.8125 12.1067
48.8901 14.0542
48.9289 15.9273
48.9677 19.1533
49.0066 25.3425
49.0260 30.7695
49.0454 39.3149
49.0648 53.7561
49.0842 80.5215
49.0939 102.962
49.1036 136.230
49.1133 186.890
49.1230 264.181
49.1365 421.834
49.1500 530.898
49.1635 431.023
49.1770 275.653
49.1899 178.587
49.2027 122.332
49.2156 88.9978
49.2284 68.1867
49.2542 45.0778
49.2799 33.3644
49.3056 26.6576
49.3313 22.4666
49.3828 17.7133
49.4342 15.2083
49.4856 13.7181
49.5885 12.0886
49.6914 11.2458
49.7943 10.7413
50.0000 10.1692
50.1804 9.87989
50.3608 9.68022
50.7215 9.40792
51.4430 9.06360
52.8860 8.61556
54.3290 8.27735
55.0505 8.13333
55.4113 8.08681
55.5014 8.09461
55.5916 8.14433
55.6367 8.21889
55.6818 8.40370
55.7044 8.60603
55.7269 8.99924
55.7382 9.34333
55.7495 9.87364
55.7607 10.7205
55.7720 12.0841
55.7860 14.6314
55.8000 16.4094
55.8140 14.8215
55.8280 12.3181
55.8412 10.7608
55.8543 9.84787
55.8675 9.30150
55.8806 8.95762
55.9069 8.57108
55.9333 8.37163
55.9859 8.18022
56.0385 8.09141
56.1437 8.00705
56.2490 7.96380
56.6700 7.89253
56.8804 7.90825
56.9857 7.94904
57.0909 8.04350
57.1962 8.26969
57.2488 8.50065
57.3014 8.91481
57.3540 9.74623
57.3804 10.5054
57.4067 11.7484
57.4330 13.9657
57.4593 18.4241
57.4724 22.4879
57.4856 29.0364
57.4988 40.1576
57.5119 59.4350
57.5260 91.3838
57.5400 113.453
57.5541 93.2577
57.5681 61.7746
57.5795 44.4118
57.5908 33.4678
57.6022 26.5211
57.6135 21.9558
57.6363 16.6270
57.6590 13.7979
57.6817 12.1293
57.7044 11.0663
57.7498 9.83787
57.7953 9.17948
57.8407 8.78346
57.9316 8.34570
58.0224 8.11694
58.1133 7.97947
58.2950 7.82732
58.4767 7.76106
58.6585 7.79011
58.7493 7.90004
58.7948 8.02213
58.8402 8.24637
58.8856 8.69865
58.9083 9.10859
58.9310 9.77050
58.9538 10.9248
58.9765 13.1552
58.9878 15.1023
58.9992 18.1059
59.0106 22.9080
59.0219 30.6494
59.0360 45.0846
59.0500 55.1759
59.0641 46.1770
59.0781 32.0089
59.0938 22.0361
59.1094 16.7455
59.1251 13.8118
59.1407 12.0643
59.1564 10.9505
59.1720 10.2014
59.2033 9.28860
59.2346 8.77400
59.2660 8.45420
59.3286 8.08994
59.3912 7.89387
59.4538 7.77304
59.5790 7.63135
59.8295 7.49113
60.0799 7.41191
60.5808 7.31385
61.0818 7.27403
61.5827 7.35634
61.8331 7.52063
62.0836 7.90524
62.2088 8.27264
62.3340 8.87438
62.4593 9.91859
62.5845 11.8933
62.6471 13.5811
62.7097 16.1603
62.7723 20.3451
62.8350 27.7091
62.8976 42.2918
62.9289 55.4980
62.9602 76.9810
62.9915 115.035
63.0071 145.850
63.0228 190.737
63.0385 259.032
63.0541 367.937
63.0698 550.100
63.0854 860.600
63.1027 1389.46
63.1200 1755.80
63.1373 1421.98
63.1546 901.257
63.1680 624.696
63.1813 446.767
63.1946 331.655
63.2080 254.982
63.2347 164.159
63.2614 115.273
63.2881 86.2163
63.3147 67.6046
63.3681 46.0277
63.4215 34.4508
63.4749 27.5083
63.5283 23.0049
63.5816 19.9087
63.6884 16.0216
63.7951 13.7472
63.9019 12.2891
64.0086 11.2908
64.2222 10.0337
64.4357 9.28736
64.6492 8.79766
64.8627 8.45232
65.2897 7.99469
65.7167 7.69907
66.5707 7.31886
67.4248 7.06026
68.2788 6.85219
69.9869 6.48920
71.6949 6.12554
72.5490 5.92608
73.4030 5.70850
74.2570 5.48126
74.6840 5.38433
75.1110 5.34704
75.5381 5.52112
75.7516 5.84411
75.9651 6.60220
76.0718 7.33048
76.1786 8.52832
76.2853 10.6154
76.3921 14.5759
76.4455 17.9672
76.4989 23.1555
76.5522 31.5766
76.5789 37.8633
76.6056 46.3905
76.6323 58.3262
76.6590 75.6722
76.6857 102.112
76.7124 144.953
76.7390 220.354
76.7524 281.036
76.7657 368.751
76.7791 500.942
76.7924 708.946
76.8058 1050.66
76.8191 1620.50
76.8346 2629.96
76.8500 3336.32
76.8655 2707.91
76.8809 1718.02
76.8923 1209.74
76.9037 875.584
76.9151 655.616
76.9265 506.870
76.9493 328.109
76.9721 230.479
76.9949 171.911
77.0177 134.184
77.0633 90.3188
77.1089 66.9315
77.1545 53.2425
77.2457 39.8296
77.3369 36.9636
77.3825 39.4076
77.4281 46.1834
77.4737 61.6977
77.4965 76.2130
77.5193 99.8040
77.5421 140.796
77.5649 219.084
77.5763 286.407
77.5877 388.696
77.5991 549.044
77.6105 801.826
77.6253 1288.01
77.6400 1624.01
77.6548 1315.89
77.6695 836.289
77.6793 611.153
77.6891 456.672
77.7086 277.402
77.7282 185.902
77.7477 134.300
77.7673 102.613
77.7868 81.8461
77.8259 57.1595
77.8651 43.5511
77.9042 35.2034
77.9824 25.7984
78.0606 20.8009
78.1388 17.7777
78.2953 14.4385
78.4517 12.9322
78.5299 12.7249
78.6081 13.0593
78.6864 14.5011
78.7255 16.1394
78.7646 19.1350
78.8037 25.0726
78.8232 30.3395
78.8428 38.6424
78.8624 52.6239
78.8819 78.2138
78.9015 130.187
78.9112 176.266
78.9210 244.921
78.9283 313.746
78.9355 393.479
78.9500 498.583
78.9645 407.737
78.9790 262.660
78.9944 163.833
79.0097 109.556
79.0251 78.6939
79.0404 59.9673
79.0557 47.8677
79.0711 39.6405
79.1018 29.5111
79.1325 23.7352
79.1632 20.1175
79.2246 15.9640
79.2859 13.7152
79.3473 12.3294
79.4701 10.7216
79.5929 9.80926
79.7157 9.20976
79.9612 8.44422
80.4523 7.60829
80.9434 7.16751
81.4345 7.05891
81.6801 7.24288
81.9256 7.82191
82.0484 8.42160
82.1712 9.43584
82.2939 11.2348
82.4167 14.6904
82.4781 17.6700
82.5395 22.2504
82.6009 29.7240
82.6623 42.9590
82.6930 53.6913
82.7236 69.3759
82.7543 93.4805
82.7850 132.979
82.8157 203.664
82.8311 261.502
82.8464 346.505
82.8618 477.445
82.8771 689.749
82.8925 1053.23
82.9078 1689.86
82.9239 2731.68
82.9400 3453.11
82.9561 2797.40
82.9722 1772.11
82.9886 1097.44
83.0050 719.836
83.0213 502.185
83.0377 368.966
83.0541 282.584
83.0705 223.747
83.1032 151.360
83.1360 110.330
83.1688 84.8615
83.2343 56.1591
83.2998 41.1330
83.3653 32.2468
83.4308 26.5277
83.4963 22.6143
83.6274 17.7196
83.7584 14.8668
83.8894 13.0545
84.0205 11.8456
84.2825 10.5386
84.4136 10.3673
84.5446 10.6779
84.6756 12.0203
84.7411 13.5923
84.8066 16.5745
84.8722 22.8314
84.9049 28.7140
84.9377 38.5672
84.9704 56.6533
84.9868 71.7840
85.0032 94.4847
85.0196 130.329
85.0360 190.471
85.0441 236.160
85.0523 298.153
85.0605 382.948
85.0687 497.876
85.0844 804.359
85.1000 1019.52
85.1157 831.038
85.1313 531.229
85.1498 310.485
85.1682 197.069
85.1867 135.730
85.2051 99.7864
85.2236 77.1406
85.2420 62.0366
85.2790 43.7990
85.3159 33.6295
85.3528 27.3809
85.4266 20.4200
85.5004 16.9267
85.5743 15.3000
85.6112 15.2267
85.6481 16.1809
85.6665 17.5257
85.6850 20.2059
85.7035 25.8352
85.7127 30.8387
85.7219 38.2489
85.7360 54.6280
85.7500 65.9911
85.7641 55.4928
85.7781 39.1053
85.7929 27.9833
85.8077 21.8309
85.8226 18.2899
85.8374 16.1045
85.8670 13.6524
85.8966 12.3493
85.9559 10.9920
86.0152 10.2626
86.1337 9.42552
86.2522 8.91126
86.4893 8.25242
86.7263 7.81877
87.2004 7.24520
87.6746 6.86646
88.1487 6.61903
88.3857 6.56155
88.6228 6.59702
88.8598 6.86250
88.9784 7.21157
89.0969 7.91972
89.2154 9.51707
89.2747 11.1179
89.3340 13.9755
89.3932 19.7286
89.4229 25.0173
89.4525 33.7547
89.4821 49.5675
89.4969 62.6644
89.5117 82.1397
89.5266 112.622
89.5414 163.150
89.5562 252.381
89.5636 321.797
89.5710 415.013
89.5855 667.921
89.6000 842.582
89.6145 681.982
89.6290 432.574
89.6429 275.835
89.6569 185.494
89.6708 132.156
89.6847 98.9441
89.6986 77.1319
89.7125 62.1553
89.7404 43.5668
89.7682 32.9409
89.7961 26.3145
89.8518 18.8137
89.9074 14.8735
89.9631 12.5391
90.0745 10.0066
90.1859 8.72116
90.2973 7.97820
90.5200 7.23300
90.7428 7.05298
90.8541 7.19851
90.9655 7.64859
91.0769 8.80138
91.1326 9.99594
91.1883 12.1467
91.2439 16.4778
91.2718 20.4428
91.2996 26.9488
91.3275 38.6042
91.3553 62.1864
91.3692 83.8246
91.3832 118.987
91.3971 179.285
91.4110 285.273
91.4255 457.460
91.4400 576.108
91.4545 466.917
91.4690 297.085
91.4798 209.731
91.4905 152.532
91.5012 114.950
91.5120 89.6217
91.5335 59.2519
91.5550 42.7159
91.5765 32.8143
91.5979 26.4396
91.6409 19.0105
91.6839 15.0033
91.7269 12.5885
91.8128 9.92530
91.8988 8.54439
91.9847 7.72165
92.1567 6.80187
92.3286 6.29973
92.5005 5.97693
92.8443 5.56633
93.5320 5.09143
94.2196 4.79546
94.9072 4.63667
95.5949 4.72959
95.9387 5.00426
96.2825 5.73977
96.4544 6.63347
96.5404 7.45633
96.6264 8.87108
96.7123 11.6914
96.7553 14.3243
96.7983 18.8009
96.8412 27.3299
96.8627 34.7958
96.8842 46.5570
96.8950 55.1181
96.9057 66.4648
96.9165 81.9048
96.9272 103.465
96.9380 134.565
96.9487 180.781
96.9594 251.345
96.9702 359.330
96.9776 461.737
96.9851 580.115
97.0000 735.044
97.0075 697.787
97.0149 598.923
97.0298 383.148
97.0471 226.422
97.0644 145.183
97.0817 100.987
97.0990 75.0137
97.1163 58.6394
97.1336 47.7286
97.1682 34.6326
97.2028 27.4294
97.2374 23.1009
97.3066 18.5142
97.4450 15.5680
97.5834 15.5682
97.8601 19.5689
98.1369 29.4398
98.2753 38.3143
98.4136 52.1331
98.5520 74.8536
98.6904 115.274
98.7596 148.088
98.8288 196.056
98.8980 269.659
98.9672 389.957
99.0363 603.944
99.0709 777.907
99.1055 1031.93
99.1401 1419.36
99.1747 2039.42
99.2093 3080.60
99.2439 4863.24
99.2820 7895.82
99.3200 10014.9
99.3581 8131.38
99.3961 5159.23
99.4339 3234.82
99.4716 2140.57
99.5093 1501.55
99.5471 1106.79
99.5848 848.910
99.6226 672.320
99.6981 453.697
99.7735 328.919
99.8490 251.062
100.000 162.795
100.109 126.666
100.218 102.312
100.437 72.3112
100.655 55.0658
100.873 44.1334
101.309 31.3684
101.746 24.3022
102.182 19.8590
102.619 16.8356
102.837 15.7197
103.055 14.9950
103.164 15.0125
103.219 15.2845
103.273 15.9593
103.328 17.5562
103.355 19.1173
103.382 21.7472
103.410 26.5739
103.437 36.4905
103.451 45.6989
103.464 60.6069
103.478 86.1837
103.491 131.111
103.506 205.037
103.520 256.819
103.534 211.090
103.549 138.605
103.564 88.8743
103.579 61.7394
103.595 46.3853
103.610 37.1412
103.640 27.0788
103.671 22.0517
103.701 19.1622
103.732 17.3421
103.793 15.2105
103.915 13.2362
104.037 12.2736
104.281 11.3364
104.525 11.2726
104.647 11.7443
104.770 12.8761
104.892 15.2834
105.014 20.4568
105.075 25.1781
105.136 32.6464
105.197 45.1462
105.227 54.6274
105.258 67.6229
105.289 86.0325
105.319 112.890
105.350 153.999
105.380 220.697
105.411 337.550
105.426 431.202
105.441 564.549
105.456 763.963
105.472 1069.78
105.487 1561.76
105.502 2348.87
105.521 3830.39
105.540 4891.48
105.559 4027.89
105.578 2597.18
105.597 1665.46
105.615 1123.28
105.634 801.256
105.652 600.529
105.670 467.204
105.689 375.521
105.726 260.382
105.763 193.661
105.800 151.691
105.873 103.426
105.947 77.4979
106.021 61.8461
106.095 51.5663
106.169 44.3938
106.316 35.1767
106.464 29.6006
106.612 25.8976
106.759 23.2749
107.055 19.8091
107.350 17.6152
107.941 14.9535
108.531 13.3480
109.122 12.2343
110.303 10.7088
111.484 9.65663
112.075 9.26887
112.666 9.04591
112.961 9.06501
113.256 9.26966
113.552 9.84839
113.847 11.2729
113.995 12.6606
114.142 14.9514
114.290 18.9483
114.437 26.5051
114.511 32.9517
114.585 42.7411
114.659 58.4798
114.733 85.7733
114.807 138.566
114.844 185.012
114.880 258.333
114.917 382.472
114.954 612.707
114.973 806.126
114.991 1091.24
115.010 1527.02
115.028 2186.88
115.054 3557.14
115.080 4522.31
115.106 3678.23
115.132 2338.37
115.157 1498.06
115.181 1008.42
115.206 716.967
115.231 534.304
115.280 330.520
115.330 226.773
115.379 166.913
115.428 129.403
115.527 86.5498
115.626 63.7988
115.724 50.2149
115.823 41.3924
115.922 35.3033
116.119 27.5950
116.317 23.0221
116.514 20.0423
116.712 17.9664
117.106 15.2955
117.501 13.7425
117.699 13.3407
117.797 13.3165
117.896 13.5535
117.995 14.4171
118.044 15.4098
118.094 17.2704
118.143 21.1174
118.168 24.6664
118.192 30.4538
118.217 40.7499
118.242 61.1094
118.254 79.3450
118.266 107.795
118.279 154.311
118.291 231.399
118.298 296.305
118.306 371.650
118.320 470.905
118.335 386.241
118.349 250.850
118.365 156.274
118.381 105.245
118.396 76.2789
118.412 58.9038
118.428 47.6544
118.444 40.0730
118.475 30.7233
118.507 25.4061
118.538 22.0800
118.601 18.2735
118.664 16.2145
118.727 14.9505
118.853 13.4853
118.979 12.6519
119.105 12.1000
119.357 11.3771
119.860 10.5154
120.364 9.93725
121.371 9.08277
122.379 8.39093
123.386 7.78439
123.890 7.54696
124.393 7.46438
124.645 7.57070
124.897 7.90144
125.149 8.69780
125.401 10.5613
125.527 12.3512
125.653 15.2883
125.779 20.3849
125.904 29.9740
125.967 38.1046
126.030 50.3749
126.093 69.9726
126.156 103.483
126.219 166.997
126.251 221.742
126.282 305.906
126.314 444.193
126.345 688.451
126.377 1158.84
126.392 1553.31
126.408 2116.63
126.434 3449.98
126.460 4397.97
126.486 3597.99
126.512 2302.20
126.532 1621.09
126.551 1175.68
126.570 882.332
126.590 683.827
126.629 444.876
126.667 313.943
126.706 235.050
126.745 183.952
126.823 123.925
126.900 91.1806
126.978 71.3071
127.055 58.2565
127.133 49.1815
127.288 37.6177
127.444 30.7300
127.599 26.2411
127.754 23.1215
128.064 19.1197
128.375 16.6922
128.685 15.0714
128.996 13.9133
129.617 12.3574
130.238 11.3405
131.479 10.0146
132.721 9.07262
133.342 8.64991
133.963 8.23513
134.584 7.84410
134.895 7.69921
135.205 7.68615
135.360 7.80402
135.515 8.10786
135.671 8.79187
135.826 10.3361
135.904 11.7938
135.981 14.1594
136.059 18.2241
136.136 25.7993
136.175 32.1726
136.214 41.7569
136.253 56.9534
136.292 82.8090
136.311 102.957
136.330 131.324
136.350 172.802
136.369 236.339
136.389 339.464
136.408 519.199
136.418 660.715
136.427 858.833
136.437 1139.85
136.447 1536.33
136.463 2508.45
136.480 3194.33
136.497 2604.67
136.513 1664.28
136.527 1126.50
136.541 791.013
136.555 579.890
136.569 441.960
136.597 281.709
136.624 197.046
136.652 146.900
136.680 114.995
136.735 77.9246
136.791 57.9659
136.846 45.9260
136.957 32.6237
137.069 25.7434
137.180 21.7176
137.402 17.5801
137.624 16.3193
137.735 16.7893
137.846 18.6165
137.957 23.5131
138.012 28.6145
138.068 37.7228
138.123 55.6296
138.151 71.5512
138.179 96.6531
138.206 139.292
138.234 217.728
138.248 283.201
138.262 379.612
138.276 524.856
138.290 741.780
138.310 1207.31
138.330 1541.04
138.350 1263.90
138.370 812.487
138.393 489.170
138.416 317.071
138.439 221.494
138.461 164.389
138.484 127.920
138.507 103.312
138.552 73.2340
138.597 56.2186
138.643 45.6199
138.734 33.5491
138.824 27.0998
138.915 23.1899
139.006 20.6044
139.097 18.7828
139.278 16.4024
139.460 14.9204
139.823 13.1673
140.186 12.1471
140.550 11.4646
141.276 10.5765
142.002 9.99146
142.729 9.55604
143.092 9.38653
143.273 9.32578
143.455 9.30467
143.637 9.38971
143.727 9.53607
143.818 9.85828
143.909 10.6189
143.954 11.3932
144.000 12.7777
144.045 15.5352
144.068 18.0240
144.091 22.0380
144.113 29.0227
144.136 42.4807
144.147 54.2375
144.159 72.1206
144.170 100.446
144.181 145.656
144.188 185.796
144.196 232.347
144.210 294.083
144.224 241.802
144.239 157.468
144.255 98.2975
144.270 66.4176
144.286 48.5546
144.302 37.8207
144.318 30.9415
144.334 26.2895
144.365 20.6082
144.397 17.3800
144.428 15.3712
144.491 13.0907
144.555 11.8738
144.618 11.1388
144.744 10.3102
144.870 9.85862
144.997 9.57207
145.249 9.21633
145.754 8.81484
146.259 8.54233
146.764 8.31761
147.017 8.22561
147.269 8.17068
147.522 8.23077
147.648 8.38445
147.774 8.76126
147.901 9.72606
147.964 10.7599
148.027 12.6850
148.090 16.7213
148.122 20.5314
148.153 26.9181
148.185 38.7227
148.201 48.6304
148.216 63.4080
148.232 86.8866
148.248 126.288
148.256 156.200
148.264 196.744
148.272 252.124
148.279 326.086
148.287 420.598
148.295 528.862
148.310 674.201
148.318 641.912
148.325 553.546
148.341 356.958
148.351 261.562
148.361 196.306
148.372 151.826
148.382 120.886
148.403 82.5520
148.424 61.0213
148.445 47.7244
148.465 39.0008
148.507 28.6439
148.548 22.9188
148.590 19.4231
148.673 15.5142
148.756 13.4803
148.839 12.3008
149.005 11.1684
149.171 11.0877
149.254 11.5567
149.337 12.7246
149.421 15.5224
149.462 18.3323
149.504 23.2703
149.545 32.8964
149.566 41.3895
149.587 54.7034
149.607 77.2444
149.628 118.449
149.639 152.741
149.649 203.073
149.659 278.610
149.670 390.600
149.685 631.712
149.700 802.950
149.715 657.464
149.730 422.796
149.740 313.131
149.750 237.589
149.770 148.208
149.789 101.688
149.809 75.0723
149.829 58.5745
149.848 47.6783
149.887 34.6394
149.927 27.3973
149.966 22.9602
150.044 17.9679
150.123 15.3281
150.201 13.7416
150.280 12.6965
150.358 11.9639
150.515 11.0088
150.672 10.4155
150.986 9.71223
151.299 9.29942
151.613 9.01893
152.241 8.64313
152.868 8.38452
153.496 8.18223
154.751 7.85925
157.262 7.33421
158.517 7.08664
158.831 7.02788
159.144 6.98337
159.301 6.98488
159.380 7.00560
159.458 7.05994
159.537 7.19748
159.576 7.33990
159.615 7.59466
159.654 8.09718
159.674 8.54424
159.693 9.25331
159.713 10.4568
159.733 12.6878
159.742 14.5512
159.752 17.3033
159.762 21.4660
159.772 27.7680
159.786 41.1168
159.800 50.6816
159.814 42.6886
159.828 29.7273
159.841 21.8241
159.854 17.0875
159.867 14.2029
159.879 12.3748
159.905 10.2788
159.930 9.19295
159.956 8.55556
159.982 8.15143
160.033 7.68035
160.084 7.42298
160.135 7.26377
160.237 7.07825
160.441 6.89954
160.646 6.80094
161.463 6.55988
163.098 6.15804
163.916 5.95147
164.325 5.85269
164.733 5.77378
165.142 5.76831
165.346 5.84901
165.551 6.08495
165.653 6.32825
165.755 6.74058
165.857 7.47334
165.960 8.88122
166.011 10.0927
166.062 11.9488
166.113 14.9601
166.164 20.2432
166.215 30.6158
166.241 39.9294
166.266 54.8340
166.292 80.8175
166.305 101.460
166.317 130.686
166.330 174.270
166.343 240.777
166.356 347.593
166.368 517.919
166.384 838.387
166.400 1062.78
166.416 863.817
166.432 549.695
166.448 338.607
166.465 222.044
166.482 155.525
166.498 115.077
166.515 88.9608
166.531 71.2199
166.565 49.4368
166.598 37.1008
166.631 29.4398
166.697 20.7863
166.764 16.2361
166.830 13.5290
166.897 11.7749
166.963 10.5663
167.096 9.03115
167.228 8.11386
167.494 7.07956
167.759 6.50682
168.025 6.13235
168.556 5.64165
169.618 5.03359
170.680 4.64565
171.211 4.56131
171.742 4.63534
172.273 5.04283
172.804 6.22601
173.070 7.44223
173.335 9.49420
173.601 13.1116
173.866 19.9726
173.999 25.8073
174.132 34.6463
174.264 48.8319
174.397 73.4068
174.530 121.209
174.596 163.877
174.663 232.427
174.729 352.608
174.795 589.230
174.829 801.111
174.862 1137.78
174.895 1698.80
174.928 2646.32
174.964 4202.28
175.000 5214.00
175.036 4156.11
175.072 2588.57
175.099 1776.30
175.127 1254.29
175.154 916.256
175.181 690.971
175.235 424.771
175.290 283.202
175.344 200.357
175.399 148.998
175.453 116.146
175.508 95.5723
175.562 84.4857
175.616 82.5399
175.644 85.5562
175.671 91.9464
175.698 102.696
175.725 119.358
175.753 144.527
175.780 182.102
175.807 239.074
175.834 327.698
175.861 470.805
175.889 713.095
175.916 1144.60
175.929 1480.52
175.943 1932.54
175.972 3289.89
176.000 4380.30
176.029 3747.05
176.057 2504.04
176.077 1863.14
176.096 1418.39
176.116 1108.88
176.136 891.661
176.175 616.573
176.214 457.465
176.254 357.309
176.293 289.961
176.371 207.182
176.450 159.334
176.529 128.751
176.686 92.5477
176.843 72.1356
177.000 59.1892
177.314 43.8431
177.629 35.1565
177.943 29.6600
178.100 27.6853
178.257 26.2646
178.336 25.9601
178.414 26.5031
178.454 27.7134
178.493 30.9001
178.513 34.3786
178.532 40.8881
178.552 54.3870
178.562 66.5143
178.571 84.7780
178.586 123.870
178.600 151.654
178.614 127.812
178.629 89.5414
178.645 62.0720
178.661 47.5215
178.677 39.4422
178.693 34.5937
178.726 29.3347
178.758 26.6606
178.791 25.0622
178.823 23.9981
178.888 22.6354
179.017 21.0863
179.147 20.0843
179.406 18.6363
179.664 17.5291
180.182 15.8362
180.700 14.5624
181.736 12.7197
181.995 12.3630
182.254 12.0813
182.383 12.0331
182.448 12.0827
182.513 12.2551
182.578 12.7279
182.610 13.2275
182.642 14.1171
182.675 15.8520
182.691 17.3642
182.707 19.6870
182.723 23.5049
182.739 30.1909
182.756 42.8380
182.772 67.7837
182.786 104.627
182.800 131.817
182.814 110.965
182.828 75.6887
182.839 57.3127
182.849 45.1459
182.860 36.9398
182.870 31.3749
182.891 24.5417
182.911 20.7473
182.932 18.4123
182.952 16.8843
182.994 15.0447
183.035 14.0088
183.076 13.3556
183.159 12.5832
183.242 12.1366
183.324 11.8372
183.489 11.4386
183.820 10.9429
184.150 10.5893
184.481 10.2996
184.811 10.0693
184.976 10.0043
185.141 10.0679
185.224 10.2670
185.265 10.4884
185.307 10.8952
185.348 11.7112
185.369 12.4461
185.389 13.6140
185.410 15.6234
185.430 19.3766
185.441 22.5849
185.451 27.3407
185.461 34.6385
185.472 45.8641
185.486 68.6945
185.500 84.6049
185.514 70.5737
185.528 48.4131
185.543 33.4483
185.558 25.1739
185.572 20.4113
185.587 17.4951
185.602 15.5900
185.616 14.2989
185.645 12.6998
185.675 11.7797
185.704 11.2017
185.762 10.5295
185.821 10.1577
185.879 9.92148
185.996 9.63031
186.230 9.30829
186.464 9.09552
187.400 8.47288
188.336 7.94340
188.570 7.83060
188.804 7.77258
188.921 7.82713
188.979 7.92168
189.038 8.12628
189.096 8.59313
189.126 9.05181
189.155 9.83582
189.184 11.3079
189.213 14.4244
189.228 17.3993
189.243 22.4091
189.257 31.3969
189.272 48.1004
189.286 74.4317
189.300 93.3992
189.314 78.0426
189.328 52.8474
189.339 39.5066
189.349 30.7844
189.360 25.0124
189.370 21.0889
189.391 16.3382
189.412 13.7141
189.434 12.1145
189.455 11.0756
189.497 9.83895
189.539 9.14909
189.581 8.72010
189.665 8.22073
189.833 7.75314
190.001 7.51355
190.673 7.04031
191.346 6.82316
192.018 6.93887
192.355 7.27530
192.691 8.01269
193.027 9.55184
193.363 12.8683
193.531 15.9166
193.699 20.7809
193.868 28.9865
194.036 43.9512
194.120 56.3138
194.204 74.5698
194.288 102.930
194.372 149.732
194.456 234.004
194.498 302.967
194.540 404.254
194.582 560.055
194.624 810.601
194.666 1234.39
194.708 1966.16
194.754 3218.21
194.800 4116.79
194.846 3371.80
194.892 2158.52
194.932 1447.21
194.971 1009.79
195.011 737.064
195.050 560.075
195.129 355.497
195.208 247.808
195.287 184.360
195.366 143.937
195.524 97.0169
195.683 71.6892
195.841 56.3452
195.999 46.2691
196.157 39.2464
196.473 30.2452
196.789 24.8087
197.105 21.2037
197.422 18.6471
198.054 15.3000
198.370 14.2315
198.686 13.6173
199.003 13.9285
199.161 14.9421
199.319 17.4163
199.477 23.5935
199.556 30.0685
199.635 41.8403
199.714 65.7344
199.754 87.5507
199.793 123.077
199.833 185.791
199.853 236.105
199.872 308.088
199.892 416.017
199.912 582.677
199.932 852.340
199.951 1288.66
199.976 2111.89
200.000 2708.58
200.024 2226.18
200.049 1431.50
200.067 1016.48
200.085 742.264
200.103 561.014
200.121 438.531
200.157 289.847
200.193 207.876
200.229 158.223
200.266 125.910
200.338 87.7126
200.410 66.6983
200.482 53.8403
200.627 39.3571
200.771 31.6551
200.916 26.9833
201.060 23.8793
201.204 21.6777
201.493 18.7653
201.782 16.9168
202.360 14.6546
202.937 13.2616
203.515 12.2702
203.804 11.8822
203.948 11.7301
204.093 11.6407
204.237 11.7136
204.310 11.9065
204.382 12.3612
204.454 13.4571
204.490 14.5692
204.526 16.5306
204.562 20.3321
204.580 23.6675
204.598 28.8361
204.616 37.4399
204.634 52.7115
204.653 82.6669
204.662 108.026
204.671 144.575
204.678 184.703
204.685 231.507
204.700 294.376
204.715 243.883
204.730 160.788
204.744 106.953
204.758 75.8122
204.772 57.2384
204.786 45.5625
204.815 32.4643
204.843 25.7222
204.872 21.7889
204.900 19.3006
204.957 16.4078
205.014 14.8241
205.071 13.8462
205.184 12.7102
205.298 12.0643
205.412 11.6368
205.639 11.0750
206.094 10.3813
206.548 9.87526
207.003 9.44861
207.230 9.27672
207.458 9.18492
207.685 9.34247
207.799 9.68839
207.912 10.5136
208.026 12.5902
208.083 14.7933
208.140 18.8417
208.197 27.1802
208.225 34.8862
208.254 47.5806
208.282 70.2593
208.296 88.6932
208.310 115.550
208.325 156.278
208.339 220.868
208.353 327.774
208.367 507.522
208.384 831.042
208.400 1064.53
208.408 1015.24
208.417 875.814
208.433 566.037
208.446 397.144
208.458 288.458
208.471 217.639
208.484 170.089
208.509 113.249
208.535 82.2632
208.560 63.5658
208.586 51.5081
208.636 37.3037
208.687 29.5053
208.738 24.7414
208.840 19.3741
208.941 16.5143
209.043 14.7735
209.246 12.7852
209.450 11.6786
209.653 10.9623
210.060 10.0500
210.466 9.44708
210.873 8.97985
211.687 8.22119
212.500 7.59108
212.907 7.36512
213.313 7.33469
213.517 7.49838
213.720 7.92533
213.923 8.88415
214.127 11.0261
214.228 13.0235
214.330 16.2325
214.432 21.6645
214.533 31.5619
214.584 39.7324
214.635 51.7530
214.686 70.3527
214.737 100.797
214.788 155.013
214.813 198.803
214.839 262.325
214.864 358.146
214.889 509.077
214.915 756.720
214.940 1168.73
214.970 1917.59
215.000 2457.15
215.030 2017.82
215.060 1297.39
215.084 901.485
215.107 647.529
215.131 483.165
215.154 373.402
215.201 242.942
215.248 172.238
215.295 129.881
215.342 102.526
215.436 70.4326
215.530 52.9451
215.624 42.3283
215.812 30.7114
216.000 25.4822
216.094 24.6442
216.188 25.4880
216.282 29.7461
216.329 34.7175
216.376 43.9181
216.423 62.3172
216.447 78.7018
216.470 104.581
216.494 148.109
216.517 227.510
216.529 293.010
216.541 387.309
216.552 528.146
216.564 734.547
216.582 1197.87
216.600 1534.01
216.618 1263.13
216.636 815.933
216.648 603.236
216.660 456.930
216.683 284.528
216.707 194.777
216.731 143.699
216.754 111.863
216.778 90.8720
216.825 65.5513
216.873 51.3732
216.920 42.5527
217.014 32.4292
217.109 26.9051
217.204 23.4593
217.393 19.3892
217.582 17.0246
217.771 15.4425
218.149 13.3805
218.528 12.0743
218.717 11.6524
218.906 11.4985
219.095 12.0155
219.190 12.9291
219.284 14.9547
219.379 19.7550
219.426 24.6262
219.473 33.2594
219.521 50.1324
219.544 65.0467
219.568 88.3656
219.592 127.508
219.615 197.982
219.627 255.264
219.639 337.679
219.651 458.343
219.663 634.538
219.681 1043.55
219.700 1342.76
219.719 1110.50
219.738 721.109
219.757 449.906
219.777 300.003
219.797 213.879
219.817 161.145
219.837 126.848
219.856 103.379
219.896 74.2555
219.936 57.4805
219.975 46.9384
220.055 34.7787
220.134 28.1883
220.213 24.1598
220.371 19.5709
220.530 17.0597
220.688 15.4770
221.005 13.5653
221.322 12.4160
221.639 11.6657
221.798 11.4682
221.877 11.4739
221.956 11.6449
222.035 12.2215
222.075 12.8714
222.115 14.0791
222.154 16.5339
222.174 18.7608
222.194 22.3452
222.214 28.5339
222.233 40.2634
222.243 50.2626
222.253 65.3096
222.263 88.5913
222.273 124.755
222.280 159.049
222.287 198.395
222.300 251.778
222.314 208.566
222.327 137.433
222.339 95.9672
222.350 70.2441
222.362 54.1286
222.373 43.7024
222.396 31.5156
222.419 25.0368
222.442 21.1941
222.465 18.7226
222.510 15.8189
222.556 14.2141
222.602 13.2180
222.694 12.0530
222.785 11.3844
222.877 10.9377
223.060 10.3410
223.427 9.58544
223.793 9.04176
224.160 8.68550
224.343 8.68567
224.526 9.03578
224.618 9.50605
224.709 10.3851
224.801 12.0528
224.893 15.3960
224.984 22.8504
225.030 30.1628
225.076 42.8243
225.099 52.7933
225.122 66.9118
225.145 87.6479
225.168 119.497
225.190 171.194
225.213 260.968
225.225 331.613
225.236 429.057
225.248 567.444
225.259 759.478
225.280 1253.70
225.300 1616.51
225.321 1335.61
225.341 864.960
225.361 556.014
225.381 377.929
225.401 272.229
225.421 206.002
225.441 162.225
225.461 131.913
225.501 93.8643
225.541 71.7206
225.581 57.7203
225.661 41.5063
225.741 32.7091
225.821 27.3448
225.901 23.7832
225.981 21.2774
226.141 18.0111
226.302 15.9926
226.622 13.6298
226.942 12.2665
227.262 11.3496
227.903 10.1197
228.543 9.27339
228.863 8.95808
229.183 8.76509
229.504 8.87583
229.664 9.22523
229.824 10.0745
229.984 12.1846
230.064 14.3954
230.144 18.4361
230.224 26.7704
230.264 34.5563
230.304 47.6042
230.344 71.6544
230.364 91.9088
230.384 122.534
230.404 171.451
230.424 254.955
230.444 408.352
230.454 532.079
230.464 703.157
230.482 1135.29
230.500 1435.59
230.518 1164.61
230.536 739.819
230.549 520.221
230.563 377.301
230.576 282.709
230.589 219.343
230.616 142.997
230.643 101.496
230.669 76.5056
230.696 60.4082
230.749 41.6709
230.803 31.5565
230.856 25.5017
230.963 18.9317
231.070 15.7337
231.176 14.1248
231.390 13.6900
231.496 14.8203
231.603 17.3213
231.710 22.2090
231.816 31.8872
231.870 40.2141
231.923 52.7868
231.977 72.7358
232.030 106.273
232.083 167.871
232.110 219.090
232.137 294.862
232.163 412.980
232.190 605.334
232.217 937.795
232.243 1521.92
232.272 2515.66
232.300 3246.18
232.329 2682.65
232.357 1735.24
232.376 1273.50
232.395 955.290
232.415 736.979
232.434 584.254
232.472 393.697
232.511 285.350
232.549 218.330
232.587 174.047
232.664 120.896
232.741 91.2445
232.818 72.8862
232.971 52.0196
233.125 40.8498
233.279 34.0543
233.432 29.5466
233.586 26.3661
233.893 22.2034
234.200 19.6183
234.507 17.8588
234.814 16.5819
235.429 14.8361
236.043 13.6732
236.350 13.2197
236.657 12.8515
236.811 12.7428
236.888 12.7462
236.964 12.8473
237.041 13.1948
237.080 13.5908
237.118 14.3303
237.156 15.8338
237.176 17.1923
237.195 19.3639
237.214 23.0674
237.233 29.9378
237.252 44.0703
237.262 56.7020
237.271 75.4257
237.286 117.001
237.300 147.864
237.314 124.591
237.329 84.8985
237.339 64.1385
237.350 50.3925
237.360 41.1233
237.370 34.8372
237.391 27.1189
237.412 22.8326
237.433 20.1951
237.454 18.4694
237.496 16.3935
237.537 15.2273
237.579 14.4948
237.662 13.6357
237.746 13.1469
237.829 12.8256
237.996 12.4114
238.330 11.9255
238.663 11.5972
239.330 11.0964
239.998 10.6767
240.665 10.2837
240.999 10.0905
241.332 9.90583
241.666 9.76892
241.833 9.76713
241.999 9.90488
242.083 10.0929
242.166 10.4475
242.250 11.1251
242.333 12.4938
242.416 15.5714
242.458 18.6223
242.500 23.9605
242.541 34.2773
242.562 43.3305
242.583 57.3978
242.604 80.8765
242.625 122.807
242.635 157.050
242.646 205.664
242.656 276.397
242.667 378.982
242.683 619.190
242.700 793.277
242.717 654.800
242.734 425.394
242.751 268.550
242.768 181.014
242.786 130.094
242.803 98.9732
242.820 78.5663
242.838 64.6653
242.872 47.3840
242.907 37.4205
242.942 31.1665
243.011 23.9641
243.080 20.0884
243.149 17.7331
243.219 16.1766
243.288 15.0828
243.427 13.6606
243.565 12.7840
243.843 11.7575
244.120 11.1628
244.397 10.7600
244.951 10.2094
245.506 9.80452
245.783 9.62851
246.060 9.47242
246.338 9.37218
246.476 9.38718
246.615 9.52955
246.684 9.70634
246.753 10.0280
246.823 10.6262
246.892 11.8074
246.961 14.4043
246.996 16.9390
247.031 21.2941
247.065 29.5695
247.083 36.6558
247.100 47.5159
247.117 65.2383
247.135 95.8306
247.143 119.921
247.152 153.036
247.161 200.169
247.169 265.332
247.177 342.116
247.185 431.710
247.200 553.368
247.208 528.955
247.215 457.479
247.231 297.538
247.249 179.431
247.267 117.831
247.284 83.9124
247.302 63.7437
247.320 50.8369
247.338 42.1943
247.373 31.6283
247.409 25.6290
247.445 21.8974
247.516 17.6354
247.587 15.3501
247.659 13.9665
247.801 12.4305
247.944 11.6809
248.015 11.5059
248.086 11.5001
248.157 11.8178
248.193 12.2397
248.229 13.0453
248.264 14.6844
248.282 16.1428
248.300 18.4375
248.318 22.2652
248.336 29.1457
248.353 42.6613
248.362 54.2290
248.371 70.9920
248.386 110.318
248.400 139.066
248.414 116.364
248.429 78.5154
248.438 61.4565
248.447 49.3250
248.464 34.6770
248.482 26.7912
248.500 22.2117
248.518 19.3088
248.535 17.3750
248.571 15.0096
248.606 13.6650
248.642 12.8171
248.713 11.8254
248.784 11.2688
248.855 10.9108
248.997 10.4678
249.139 10.1924
249.281 9.99554
249.565 9.71585
250.133 9.34588
250.700 9.07428
251.836 8.63202
252.120 8.53218
252.404 8.44367
252.546 8.41661
252.688 8.44259
252.759 8.52762
252.795 8.62307
252.830 8.79861
252.866 9.14868
252.883 9.46068
252.901 9.94901
252.919 10.7706
252.937 12.2471
252.954 15.1685
252.963 17.7042
252.972 21.3580
252.986 29.8455
253.000 35.9531
253.014 31.0029
253.028 22.8774
253.040 18.1599
253.052 15.2070
253.064 13.3431
253.075 12.1215
253.099 10.6943
253.123 9.93093
253.146 9.47535
253.170 9.18027
253.217 8.82982
253.264 8.63154
253.311 8.50451
253.406 8.34812
253.594 8.17781
253.783 8.06752
254.538 7.73842
256.047 7.09195
256.802 6.71513
257.179 6.50838
257.556 6.29566
257.934 6.11134
258.122 6.07237
258.311 6.15178
258.500 6.58174
258.594 7.15226
258.688 8.33061
258.783 11.0296
258.830 13.7384
258.877 18.5168
258.924 27.9073
258.948 36.2500
258.971 49.4086
258.995 71.8096
259.007 89.1505
259.019 113.309
259.030 147.932
259.042 198.999
259.054 276.077
259.066 391.272
259.083 640.573
259.100 819.894
259.117 673.520
259.134 434.336
259.150 284.258
259.166 195.325
259.182 141.667
259.198 107.673
259.230 69.2900
259.262 49.4484
259.294 37.8976
259.326 30.5723
259.390 22.1048
259.454 17.5326
259.518 14.7512
259.646 11.6198
259.774 9.93765
259.902 8.89547
260.158 7.66289
260.414 6.93799
260.670 6.45071
261.182 5.90721
261.438 5.87513
261.694 6.13480
261.950 6.97353
262.206 9.12248
262.334 11.2428
262.462 14.7552
262.590 20.8601
262.654 25.6228
262.718 32.2618
262.782 41.8241
262.846 56.0999
262.910 78.4505
262.974 115.695
263.038 183.204
263.070 238.806
263.102 320.780
263.134 446.971
263.166 651.011
263.198 997.356
263.230 1595.20
263.265 2628.38
263.300 3384.44
263.335 2790.47
263.370 1797.99
263.411 1068.36
263.451 685.019
263.492 473.120
263.532 347.348
263.573 266.991
263.613 212.952
263.694 146.882
263.775 109.448
263.855 86.1843
264.017 59.9162
264.179 46.7254
264.260 43.1117
264.341 41.5464
264.422 43.2855
264.462 46.6028
264.502 53.3434
264.543 67.2498
264.563 79.5466
264.583 98.6409
264.603 129.822
264.624 184.096
264.644 285.681
264.664 484.815
264.682 779.211
264.700 992.220
264.718 818.968
264.736 533.989
264.750 381.061
264.764 281.952
264.777 216.604
264.791 172.878
264.819 120.108
264.846 91.2011
264.873 73.5780
264.901 62.0742
264.956 48.2328
265.011 40.3786
265.066 35.3848
265.175 29.3789
265.285 25.8376
265.395 23.4510
265.615 20.3294
265.835 18.2972
266.054 16.8226
266.494 14.7595
266.933 13.3330
267.372 12.2516
268.251 10.6300
269.130 9.35036
270.008 8.18652
270.448 7.62862
270.668 7.37968
270.887 7.20658
271.107 7.28146
271.217 7.58834
271.327 8.38191
271.436 10.4520
271.491 12.6725
271.546 16.7785
271.574 20.1925
271.601 25.2223
271.615 28.6921
271.629 33.0301
271.642 38.5725
271.656 45.7777
271.670 55.4153
271.684 68.4204
271.697 86.5661
271.711 112.696
271.725 152.051
271.738 212.799
271.752 310.536
271.766 469.362
271.783 772.760
271.800 997.294
271.809 954.430
271.817 826.545
271.834 536.639
271.850 357.677
271.865 249.446
271.881 183.070
271.896 140.715
271.927 91.9136
271.958 66.4364
271.989 51.4253
272.020 41.8837
272.082 30.7982
272.144 24.8381
272.206 21.2756
272.329 17.5072
272.453 15.8894
272.577 15.4276
272.825 17.1753
273.072 24.1687
273.196 31.9331
273.320 46.1937
273.382 57.8874
273.444 74.9809
273.506 101.034
273.567 142.942
273.629 215.283
273.691 352.340
273.722 469.325
273.753 644.610
273.784 915.191
273.815 1334.34
273.858 2197.94
273.900 2828.85
273.943 2333.49
273.985 1506.57
274.035 892.061
274.084 571.323
274.134 395.276
274.184 290.807
274.233 224.228
274.283 179.485
274.382 124.810
274.481 93.8021
274.581 74.4535
274.779 52.2919
274.978 40.3536
275.176 33.0489
275.573 24.6901
275.970 20.0893
276.169 18.5571
276.367 17.5169
276.566 17.3433
276.665 18.0089
276.764 19.9150
276.863 24.9017
276.913 30.1373
276.963 39.5614
277.012 58.1868
277.037 74.7096
277.062 100.755
277.087 144.447
277.111 223.771
277.124 288.521
277.136 382.017
277.149 519.474
277.161 721.118
277.181 1187.42
277.200 1530.99
277.220 1268.80
277.239 825.883
277.251 628.736
277.263 487.030
277.286 313.018
277.310 218.773
277.333 163.483
277.357 128.291
277.381 104.735
277.428 75.8993
277.475 59.5093
277.522 49.2616
277.616 37.4454
277.710 30.9927
277.805 26.9911
277.993 22.3033
278.182 19.6123
278.370 17.8195
278.747 15.4678
279.124 13.9476
279.313 13.4690
279.501 13.3699
279.690 14.2878
279.784 15.7597
279.878 18.9513
279.972 26.3892
280.019 33.8170
280.067 46.7627
280.114 71.4092
280.137 92.5964
280.161 124.785
280.184 176.687
280.208 264.841
280.231 426.102
280.243 554.873
280.255 729.853
280.278 1211.24
280.300 1572.88
280.323 1312.19
280.345 858.852
280.359 647.077
280.374 496.975
280.402 315.939
280.431 219.640
280.459 163.723
280.488 128.391
280.517 104.747
280.574 76.0129
280.631 59.7062
280.688 49.5065
280.802 37.7370
280.917 31.3255
281.031 27.3606
281.145 24.6878
281.260 22.7696
281.488 20.1985
281.717 18.5428
282.174 16.4905
282.631 15.2153
283.088 14.3012
284.003 12.9712
284.917 11.9113
285.374 11.4064
285.831 10.8965
286.289 10.4012
286.517 10.2079
286.746 10.1655
286.860 10.2880
286.974 10.6251
287.089 11.3975
287.203 13.1404
287.317 17.3818
287.374 21.7922
287.432 29.7573
287.489 45.7681
287.517 60.2350
287.546 83.3817
287.574 123.381
287.589 154.754
287.603 198.575
287.617 262.548
287.632 358.343
287.646 505.570
287.660 730.523
287.680 1203.34
287.700 1552.86
287.720 1285.67
287.740 833.434
287.761 527.383
287.781 354.192
287.802 253.408
287.822 191.386
287.842 150.558
287.863 122.498
287.904 87.5938
287.945 67.3919
287.986 54.6575
288.068 39.9252
288.150 31.9458
288.231 27.0655
288.395 21.5202
288.559 18.4980
288.723 16.5964
289.050 14.2965
289.378 12.9513
289.542 12.5551
289.706 12.4823
289.869 13.2241
289.951 14.3843
290.033 16.8682
290.115 22.5782
290.156 28.2483
290.197 38.0518
290.238 56.6628
290.258 72.5704
290.279 96.6423
290.299 135.341
290.320 200.755
290.340 319.902
290.350 414.124
290.361 542.841
290.380 895.884
290.400 1160.53
290.420 966.587
290.439 631.266
290.459 407.096
290.479 278.468
290.498 202.103
290.518 154.664
290.538 123.213
290.557 101.586
290.597 74.4807
290.636 58.7908
290.675 49.0127
290.754 38.3797
290.832 34.5751
290.871 35.0325
290.911 37.9479
290.950 45.6372
290.970 53.0173
290.989 64.9562
291.009 85.3243
291.028 122.070
291.048 194.249
291.058 255.784
291.068 344.596
291.084 558.083
291.100 717.475
291.116 599.164
291.132 395.550
291.145 283.619
291.158 211.055
291.170 163.153
291.183 131.093
291.208 92.3064
291.233 70.9845
291.258 57.9282
291.283 49.3487
291.333 39.0301
291.383 33.1581
291.433 29.4308
291.534 24.9856
291.634 22.4253
291.734 20.7481
291.935 18.6528
292.135 17.3686
292.336 16.4831
292.737 15.3124
293.138 14.5494
293.540 13.9969
294.342 13.2212
295.144 12.6751
295.947 12.2490
297.552 11.5780
299.156 11.0104
300.761 10.4467
301.564 10.1357
302.366 9.78212
302.767 9.58536
303.168 9.39517
303.369 9.34630
303.469 9.37072
303.570 9.48562
303.670 9.83872
303.720 10.2378
303.770 10.9894
303.820 12.5606
303.846 14.0243
303.871 16.4305
303.896 20.7497
303.921 29.3799
303.933 37.1766
303.946 49.4323
303.958 69.6475
303.971 103.490
303.985 164.568
304.000 208.982
304.015 173.425
304.029 114.548
304.046 71.6514
304.063 49.0909
304.079 36.5299
304.096 29.0833
304.113 24.2997
304.129 21.0894
304.162 17.1520
304.196 14.9064
304.229 13.4995
304.295 11.8814
304.362 10.9971
304.429 10.4472
304.562 9.79628
304.828 9.16377
305.094 8.90319
305.227 8.91603
305.360 9.10668
305.493 9.64941
305.626 10.9814
305.693 12.2737
305.759 14.3879
305.826 18.0209
305.892 24.7229
305.959 38.5075
305.992 51.2172
306.025 71.9528
306.059 108.689
306.075 138.092
306.092 180.365
306.108 243.808
306.125 341.580
306.142 498.365
306.158 752.192
306.179 1240.76
306.200 1602.42
306.221 1326.62
306.242 859.499
306.263 545.886
306.284 367.393
306.305 263.054
306.327 198.631
306.348 156.135
306.369 126.995
306.411 90.4931
306.453 69.3833
306.496 56.0317
306.580 40.6039
306.665 32.2483
306.750 27.1574
306.834 23.7830
306.919 21.4069
307.088 18.3129
307.257 16.4050
307.427 15.1123
307.596 14.1762
307.934 12.8921
308.273 12.0240
308.950 10.8206
309.627 9.87672
309.965 9.42926
310.304 8.99776
310.642 8.66734
310.812 8.65280
310.981 8.95981
311.150 10.2001
311.235 11.7475
311.319 14.8496
311.404 21.7128
311.446 28.3886
311.489 39.8196
311.510 48.7436
311.531 61.1887
311.552 79.3026
311.573 106.485
311.594 149.717
311.615 221.809
311.637 350.691
311.658 586.338
311.679 970.417
311.700 1255.53
311.721 1042.02
311.742 678.177
311.766 413.762
311.790 271.808
311.813 192.048
311.837 143.923
311.861 112.821
311.884 91.7794
311.931 65.8105
311.979 50.9204
312.026 41.5787
312.120 30.8239
312.215 25.0521
312.309 21.6056
312.498 18.1639
312.687 17.8454
312.782 19.3039
312.876 23.0564
312.971 32.1537
313.018 41.2942
313.065 57.1391
313.113 87.1933
313.136 112.773
313.160 151.608
313.183 213.584
313.207 318.557
313.231 508.042
313.242 658.076
313.254 862.695
313.277 1426.09
313.300 1847.12
313.323 1534.64
313.346 998.281
313.364 695.107
313.383 501.855
313.401 377.290
313.420 294.303
313.456 195.756
313.493 142.257
313.530 110.083
313.567 89.1984
313.640 64.4846
313.714 50.8079
313.788 42.3666
313.935 32.7242
314.082 27.4911
314.229 24.2563
314.377 22.0713
314.524 20.5002
314.818 18.3914
315.113 17.0373
315.702 15.3809
316.291 14.3851
316.879 13.7037
318.057 12.7915
319.235 12.1569
320.413 11.6221
321.002 11.3529
321.296 11.2107
321.591 11.0630
321.885 10.9233
322.033 10.8774
322.180 10.8921
322.253 10.9549
322.327 11.0985
322.401 11.4026
322.474 12.0569
322.548 13.5896
322.585 15.1385
322.621 17.8731
322.658 23.1812
322.677 27.8224
322.695 35.0424
322.713 46.9431
322.732 68.0139
322.750 108.505
322.759 142.447
322.769 190.829
322.777 246.191
322.784 310.290
322.800 399.736
322.816 333.998
322.831 220.474
322.844 155.681
322.857 114.577
322.870 87.9577
322.882 70.4110
322.908 49.5328
322.933 38.2618
322.959 31.4626
322.984 27.0555
323.035 21.8557
323.086 18.9787
323.137 17.2054
323.239 15.1792
323.341 14.0798
323.443 13.3975
323.647 12.5967
323.850 12.1333
324.054 11.8212
324.462 11.4004
324.869 11.0981
325.277 10.8429
326.092 10.3649
326.499 10.1131
326.907 9.83964
327.314 9.54012
327.722 9.22973
327.926 9.09451
328.130 9.01527
328.333 9.08443
328.537 9.55220
328.639 10.1354
328.741 11.2131
328.843 13.2541
328.945 17.3511
329.046 26.5089
329.097 35.5203
329.148 51.0781
329.174 63.3246
329.199 80.6278
329.225 105.946
329.250 144.419
329.276 206.499
329.301 312.258
329.327 506.606
329.339 661.838
329.352 875.428
329.376 1450.51
329.400 1881.18
329.424 1563.99
329.448 1017.31
329.465 735.112
329.483 546.071
329.500 418.227
329.517 330.733
329.552 222.971
329.586 162.625
329.621 125.631
329.655 101.321
329.724 72.2621
329.793 56.0877
329.862 46.0750
329.931 39.3933
330.000 34.6849
330.000 44.6234
350.000 43.5675
400.000 41.2830
500.000 37.7889
600.000 35.2085
700.000 33.2020
720.000 32.8517
850.000 30.8839
1000.00 29.1081
1250.00 26.8912
1500.00 25.2526
1700.00 24.2100
2000.00 22.9484
2500.00 21.3717
3000.00 20.2045
3500.00 19.2949
4000.00 18.5595
5000.00 17.4301
5000.00 21.3198
6272.77 20.0874
10000.0 16.6835
20000.0 13.4212
50000.0 10.5519
100000 9.13268
137026 8.58447
159434 8.39368
200000 8.17674
248783 7.98041
303301 7.76099
339422 7.67011
400000 7.53597
484870 7.32392
497951 7.31403
545534 7.29608
600000 7.28119
618640 7.26081
622501 7.25732
720665 7.22119
777279 7.20240
800000 7.19492
970349 7.19042
1.00000E+06 7.19006
1.03361E+06 7.19402
1.20000E+06 7.21411
1.23827E+06 7.19760
1.24639E+06 7.19828
1.31435E+06 7.20407
1.34747E+06 7.20689
1.39775E+06 7.23783
1.40000E+06 7.24187
1.40000E+06 7.24187
1.41122E+06 7.24149
1.60000E+06 7.26014
1.80000E+06 7.26165
2.00000E+06 7.24381
2.20000E+06 7.20800
2.40000E+06 7.15155
2.60000E+06 7.08071
2.80000E+06 7.00049
3.00000E+06 6.90997
3.20000E+06 6.87905
3.40000E+06 6.77217
3.60000E+06 6.66245
3.73837E+06 6.58602
3.80000E+06 6.55197
4.00000E+06 6.44167
4.20000E+06 6.33341
4.40000E+06 6.22785
4.60000E+06 6.12551
4.80000E+06 6.02693
4.87521E+06 5.99124
5.00000E+06 5.93204
5.20000E+06 5.84088
5.40000E+06 5.75383
5.60000E+06 5.67073
5.80000E+06 5.59191
5.97533E+06 5.52662
6.00000E+06 5.51743
6.20000E+06 5.44771
6.40000E+06 5.38281
6.60000E+06 5.32299
6.80000E+06 5.26836
7.00000E+06 5.21902
7.20000E+06 5.17491
7.40000E+06 5.13595
7.60000E+06 5.10184
7.61899E+06 5.09760
7.61900E+06 5.09760
7.80000E+06 5.07267
8.00000E+06 5.04792
8.20000E+06 5.02765
8.40000E+06 5.01145
8.60000E+06 4.99908
8.80000E+06 4.99031
9.00000E+06 4.98491
9.20000E+06 4.98262
9.40000E+06 4.98312
9.60000E+06 4.98617
9.80000E+06 4.99155
1.00000E+07 4.99903
1.02000E+07 5.00830
1.04000E+07 5.01915
1.06000E+07 5.03149
1.08000E+07 5.04515
1.10000E+07 5.05983
1.12000E+07 5.07546
1.14000E+07 5.09187
1.16000E+07 5.10890
1.18000E+07 5.12667
1.20000E+07 5.14480
1.22000E+07 5.16330
1.24000E+07 5.18198
1.26000E+07 5.20095
1.28000E+07 5.21991
1.30000E+07 5.23885
1.32000E+07 5.25765
1.34000E+07 5.27618
1.36000E+07 5.29441
1.38000E+07 5.31230
1.40000E+07 5.32953
1.42000E+07 5.34625
1.42972E+07 5.35393
1.42972E+07 5.35393
1.44000E+07 5.36224
1.46000E+07 5.37745
1.48000E+07 5.39184
1.50000E+07 5.40528
1.52000E+07 5.41776
1.54000E+07 5.42921
1.56000E+07 5.43953
1.58000E+07 5.44892
1.60000E+07 5.45706
1.62000E+07 5.46414
1.64000E+07 5.47006
1.66000E+07 5.47492
1.68000E+07 5.47856
1.70000E+07 5.48127
1.72000E+07 5.48288
1.74000E+07 5.48338
1.76000E+07 5.48300
1.78000E+07 5.48159
1.80000E+07 5.47937
1.82000E+07 5.47624
1.84000E+07 5.47234
1.86000E+07 5.46757
1.88000E+07 5.46207
1.90000E+07 5.45585
1.92000E+07 5.44903
1.94000E+07 5.44161
1.96000E+07 5.43350
1.98000E+07 5.42483
2.00000E+07 5.41550