W-183(n,g) ENDF/B-VII.1
Energy(eV) XS(b)
1.00000E-05 507.581
1.25000E-05 453.994
1.50000E-05 414.438
2.00000E-05 358.914
2.75000E-05 306.083
3.50000E-05 271.314
4.25000E-05 246.213
5.00000E-05 226.998
6.25000E-05 203.033
7.50000E-05 185.343
0.000100000 160.512
0.000125000 143.567
0.000150000 131.058
0.000200000 113.500
0.000275000 96.7939
0.000350000 85.7992
0.000425000 77.8619
0.000500000 71.7856
0.000625000 64.2077
0.000750000 58.6139
0.00100000 50.7622
0.00125000 45.4040
0.00150000 41.4488
0.00200000 35.8972
0.00275000 30.6151
0.00350000 27.1391
0.00425000 24.6298
0.00500000 22.7090
0.00625000 20.3136
0.00750000 18.5456
0.0100000 16.0643
0.0125000 14.3713
0.0150000 13.1218
0.0200000 11.3685
0.0253000 10.1123
0.0314750 9.07084
0.0376500 8.29793
0.0500000 7.20797
0.0625000 6.45372
0.0750000 5.89758
0.100000 5.11820
0.125000 4.58757
0.150000 4.19680
0.200000 3.65026
0.275000 3.13355
0.350000 2.79639
0.500000 2.37248
0.750000 1.98555
1.00000 1.76597
1.50000 1.53176
2.00000 1.42430
2.75000 1.38663
3.50000 1.46475
4.25000 1.69032
5.00000 2.19924
5.64943 3.21344
5.97414 4.22011
6.29885 6.03421
6.46121 7.54382
6.62356 9.82221
6.78592 13.4995
6.94828 20.0166
7.02945 25.3573
7.11063 33.2981
7.19181 45.8512
7.27299 67.4248
7.35417 109.250
7.39476 146.669
7.43534 207.184
7.45564 252.429
7.47593 314.032
7.49623 400.673
7.51652 527.316
7.53682 721.145
7.55711 1033.87
7.57741 1566.09
7.59770 2493.34
7.61885 3981.76
7.64000 4968.72
7.66115 3970.69
7.68230 2479.53
7.70041 1630.25
7.71852 1113.71
7.73662 795.553
7.75473 591.425
7.79094 359.278
7.82716 239.441
7.86337 170.343
7.89959 127.129
7.97201 78.3677
8.04444 53.0371
8.11687 38.2570
8.18930 28.9037
8.26173 22.6193
8.40658 14.9728
8.55144 10.6828
8.69629 8.04244
8.84115 6.30548
9.13086 4.23934
9.42058 3.10829
9.71029 2.42568
10.0000 1.98437
10.6250 1.44461
11.2500 1.17312
12.5000 0.939710
15.0000 0.880970
17.5000 1.05634
20.0000 1.54382
21.7369 2.36823
22.6053 3.18110
23.0395 3.79701
23.4738 4.64919
23.9080 5.87797
24.3422 7.74637
24.7764 10.7963
24.9935 13.1058
25.2106 16.2972
25.4277 20.8871
25.6449 27.8352
25.8620 39.0925
26.0791 59.1424
26.1876 75.6454
26.2962 100.275
26.4047 139.398
26.5133 207.045
26.5676 261.079
26.6219 339.380
26.6761 458.843
26.7304 653.801
26.7847 1002.74
26.8118 1289.52
26.8390 1714.09
26.8661 2375.61
26.8932 3469.18
26.9204 5394.26
26.9475 8896.08
26.9738 14231.2
27.0000 17803.4
27.0263 14254.6
27.0525 8907.86
27.0789 5464.16
27.1053 3543.12
27.1317 2439.07
27.1581 1765.82
27.1845 1331.18
27.2109 1036.56
27.2636 676.733
27.3164 474.956
27.3692 351.136
27.4748 213.798
27.5803 143.551
27.6859 102.953
27.7915 77.4170
27.8970 60.3325
28.1082 39.6215
28.3193 28.0364
28.5304 20.9161
28.7415 16.2342
29.1638 10.6639
29.5860 7.61228
30.0083 5.76938
30.4306 4.57824
31.2751 3.20030
32.1196 2.48704
33.8086 1.88938
35.4976 1.80350
37.1867 2.08073
38.0312 2.42684
38.4534 2.70772
38.6646 2.89646
38.8757 3.13554
39.0868 3.45080
39.2979 3.88989
39.5091 4.54981
39.7202 5.65490
39.9313 7.83058
40.0369 9.87403
40.1425 13.4205
40.2480 20.4922
40.3008 27.0515
40.3536 38.1157
40.4064 58.9739
40.4328 77.0910
40.4591 105.489
40.4855 153.379
40.5119 242.310
40.5251 317.222
40.5383 429.015
40.5515 600.931
40.5647 865.711
40.5824 1382.86
40.6000 1727.98
40.6177 1383.33
40.6353 865.839
40.6461 641.612
40.6568 483.830
40.6676 373.286
40.6783 294.692
40.6998 195.178
40.7213 138.129
40.7428 102.838
40.7643 79.6705
40.7858 63.7025
40.8073 52.2605
40.8288 43.7935
40.8503 37.3665
40.8718 32.3760
40.8933 28.4273
40.9041 26.7546
40.9149 25.2505
40.9256 23.8920
40.9364 22.6611
40.9471 21.5426
40.9579 20.5234
40.9794 18.7395
41.0224 15.9591
41.0654 13.9242
41.1514 11.2225
41.3234 8.54119
41.6674 6.92572
42.0115 6.85504
42.3555 7.40125
42.6996 8.38738
43.0436 9.84183
43.3877 11.9165
43.7317 14.9174
44.0757 19.4279
44.4198 26.6302
44.7638 39.2015
44.9359 49.3714
45.1079 64.3362
45.2799 87.7197
45.4519 127.366
45.6239 202.937
45.7100 269.502
45.7960 375.549
45.8820 558.918
45.9680 913.418
46.0110 1224.98
46.0540 1710.53
46.0970 2499.61
46.1400 3798.15
46.1900 6066.86
46.2400 7576.34
46.2900 6061.07
46.3400 3792.72
46.3825 2508.20
46.4250 1724.42
46.4675 1240.60
46.5100 929.901
46.5950 577.081
46.6800 396.506
46.7650 294.577
46.8500 233.629
47.0200 175.642
47.1900 169.696
47.2750 186.237
47.3600 223.060
47.4450 296.109
47.5300 446.069
47.5725 580.377
47.6150 790.861
47.6575 1133.07
47.7000 1694.90
47.7500 2687.44
47.8000 3348.77
47.8500 2683.07
47.9000 1685.34
47.9328 1225.47
47.9656 910.410
48.0313 544.990
48.0969 358.876
48.1625 254.085
48.2281 189.883
48.2938 147.861
48.4250 98.0040
48.5563 70.5679
48.6875 53.7586
48.9500 34.8546
49.2125 24.8447
49.4750 18.8086
50.0000 12.0705
50.4781 8.75998
50.9563 6.69384
51.9125 4.32784
52.8688 3.06243
53.8250 2.30315
55.7375 1.47528
57.6501 1.06183
59.5626 0.836759
61.4751 0.730848
62.4313 0.736020
63.3876 0.855752
63.8657 1.05988
64.1048 1.27076
64.3439 1.65771
64.5829 2.47412
64.7025 3.26824
64.8220 4.67155
64.9415 7.50572
65.0013 10.1517
65.0610 14.6287
65.1208 23.0909
65.1507 30.4498
65.1806 41.9931
65.2105 61.4825
65.2403 97.6900
65.2553 128.192
65.2702 173.763
65.2852 243.813
65.3001 351.802
65.3101 450.030
65.3201 562.074
65.3400 701.982
65.3600 561.855
65.3799 351.550
65.3968 232.494
65.4137 159.670
65.4306 114.556
65.4475 85.5135
65.4813 52.3354
65.5151 35.1349
65.5490 25.1860
65.5828 18.9485
65.6504 11.8904
65.7180 8.20998
65.7856 6.05556
65.9208 3.76629
66.0561 2.63962
66.1913 2.00324
66.4618 1.34688
66.7323 1.03132
67.0027 0.854671
67.5437 0.672042
68.6255 0.530517
69.7074 0.473915
74.0349 0.411974
78.3624 0.426088
82.6900 0.495696
87.0175 0.664912
89.1812 0.831339
91.3450 1.12149
93.5087 1.69242
94.5906 2.21160
95.6725 3.06851
96.7544 4.63671
97.2953 5.96342
97.8363 7.99835
98.1067 9.45066
98.3772 11.3540
98.6477 13.9167
98.9181 17.4830
99.1886 22.6546
99.4591 30.5615
99.7295 43.5331
99.8648 53.3841
100.000 67.0155
100.121 84.2522
100.243 109.092
100.364 146.707
100.486 207.396
100.607 314.348
100.668 400.820
100.728 526.834
100.789 718.861
100.850 1026.78
100.910 1546.18
100.971 2438.70
101.036 3891.65
101.100 4856.51
101.165 3878.92
101.230 2418.22
101.271 1765.39
101.313 1313.50
101.395 783.544
101.478 510.316
101.560 355.929
101.643 261.227
101.725 199.504
101.890 126.902
102.055 87.6399
102.221 64.1385
102.551 38.7392
102.881 26.2293
103.211 19.7305
103.376 18.2837
103.541 19.1289
103.624 21.9522
103.706 30.3826
103.748 40.9066
103.768 50.1254
103.789 64.5934
103.809 89.0535
103.830 133.858
103.840 171.123
103.851 226.071
103.861 309.110
103.871 434.612
103.878 552.965
103.886 687.989
103.900 855.850
103.915 684.592
103.929 431.666
103.946 251.483
103.962 159.509
103.979 109.711
103.995 80.5462
104.029 49.9751
104.062 35.3501
104.095 27.2082
104.128 22.2215
104.195 16.5968
104.328 11.7303
104.461 9.53813
104.727 7.32964
104.993 6.08394
105.524 4.56355
106.056 3.61594
107.120 2.48255
108.183 1.84190
109.247 1.44235
110.310 1.17651
112.437 0.857191
114.564 0.682227
116.691 0.578604
120.945 0.475500
125.199 0.443252
129.453 0.459093
131.580 0.490399
133.707 0.555140
134.771 0.618498
135.834 0.750202
136.366 0.899243
136.632 1.03507
136.898 1.26913
137.164 1.74268
137.297 2.19542
137.429 2.99030
137.562 4.59840
137.629 6.10858
137.695 8.68186
137.762 13.6241
137.795 17.9868
137.828 24.9478
137.862 37.0407
137.895 60.3610
137.911 80.8280
137.920 94.9176
137.928 112.677
137.936 135.287
137.945 164.288
137.953 201.548
137.961 248.958
137.971 319.039
137.981 398.277
138.000 497.137
138.010 467.507
138.020 397.438
138.039 248.920
138.051 184.204
138.063 138.688
138.086 84.3918
138.110 55.8222
138.134 39.4264
138.158 29.2830
138.181 22.6174
138.229 14.7251
138.276 10.4317
138.323 7.84962
138.418 5.04158
138.513 3.63363
138.608 2.83466
138.798 2.01679
138.987 1.63866
139.177 1.44432
139.556 1.29027
140.315 1.34108
141.073 1.66436
141.832 2.41812
142.211 3.16054
142.590 4.47988
142.969 7.17768
143.159 9.73616
143.349 14.1514
143.538 22.7732
143.633 30.5365
143.728 43.1809
143.823 65.7375
143.870 84.2182
143.917 111.507
143.965 153.842
144.012 223.450
144.060 345.115
144.107 564.829
144.154 905.012
144.200 1140.21
144.247 919.691
144.293 576.164
144.332 383.775
144.370 265.092
144.409 190.997
144.447 142.982
144.524 87.7889
144.601 59.0768
144.678 42.4005
144.755 31.9416
144.909 20.0878
145.063 13.9017
145.217 10.2872
145.526 6.46158
145.834 4.60154
146.142 3.57459
146.758 2.57827
147.374 2.18514
147.991 2.06421
149.223 2.29549
149.839 2.63893
150.456 3.20419
151.072 4.13643
151.688 5.76759
151.996 7.07427
152.304 8.97065
152.612 11.8759
152.921 16.6627
153.229 25.4020
153.383 32.7611
153.537 43.9473
153.691 62.0705
153.845 93.7754
153.999 154.607
154.076 205.765
154.153 278.859
154.277 443.545
154.400 551.307
154.524 440.685
154.647 277.155
154.789 161.769
154.930 102.580
155.072 70.9112
155.214 52.8458
155.356 42.0845
155.497 35.6517
155.781 30.7854
156.064 34.8653
156.206 41.8155
156.347 55.2521
156.489 82.4655
156.560 106.948
156.631 146.113
156.702 213.884
156.772 343.627
156.808 456.248
156.843 629.410
156.879 905.438
156.914 1349.06
156.957 2147.50
157.000 2677.74
157.044 2139.00
157.087 1334.02
157.120 922.909
157.152 657.915
157.185 485.752
157.217 370.591
157.282 233.914
157.347 160.329
157.412 116.681
157.477 88.8134
157.607 56.6755
157.737 39.5639
157.867 29.3894
158.127 18.3525
158.387 12.7660
158.647 9.52552
159.167 6.05936
159.687 4.31049
160.207 3.29148
161.248 2.19590
162.288 1.64621
163.328 1.33588
165.408 1.04826
167.488 1.01850
168.528 1.10976
169.569 1.33634
170.609 1.87791
171.129 2.43355
171.649 3.45114
171.909 4.30619
172.169 5.60342
172.429 7.70712
172.689 11.4501
172.819 14.5267
172.949 19.1028
173.079 26.3395
173.209 38.7681
173.274 48.6235
173.339 62.8032
173.404 84.2270
173.469 118.715
173.534 179.155
173.567 227.772
173.599 298.263
173.632 404.952
173.664 574.438
173.697 856.659
173.729 1334.75
173.765 2126.24
173.800 2650.45
173.836 2114.66
173.872 1316.23
173.908 813.128
173.943 530.336
173.979 366.730
174.014 266.450
174.050 201.456
174.085 157.265
174.156 103.117
174.227 72.6547
174.298 53.9111
174.440 33.0687
174.582 22.3798
174.724 16.1887
174.866 12.2876
175.008 9.67309
175.292 6.49666
175.576 4.71427
175.860 3.61520
176.144 2.89017
176.712 2.02246
177.280 1.54288
177.848 1.25016
178.416 1.05870
179.552 0.832802
180.688 0.712156
182.959 0.607844
185.231 0.605476
186.367 0.647009
187.503 0.744486
188.639 0.973996
189.207 1.20925
189.775 1.64154
190.059 2.00635
190.343 2.56279
190.627 3.47171
190.911 5.10564
191.053 6.46253
191.195 8.50394
191.337 11.7803
191.479 17.5292
191.550 22.1869
191.621 29.0296
191.692 39.6621
191.763 57.4696
191.798 71.2429
191.834 90.5949
191.869 118.931
191.905 162.625
191.940 234.578
191.976 363.437
191.993 468.350
192.011 618.739
192.029 839.619
192.047 1163.15
192.073 1862.06
192.100 2325.57
192.127 1859.00
192.154 1162.81
192.184 668.980
192.215 414.552
192.246 276.875
192.276 196.568
192.307 146.035
192.338 112.609
192.399 72.5588
192.460 50.5562
192.521 37.2307
192.644 22.6291
192.767 15.2424
192.889 11.0010
193.012 8.34449
193.134 6.57201
193.380 4.42842
193.625 3.23118
193.870 2.49538
194.115 2.01109
194.606 1.43334
195.096 1.11490
195.586 0.920907
196.077 0.794068
197.058 0.644037
198.038 0.562869
200.000 0.490715
200.743 0.486815
201.485 0.512543
201.857 0.561120
202.043 0.612169
202.228 0.706475
202.414 0.906668
202.507 1.10203
202.599 1.44831
202.692 2.15169
202.739 2.81070
202.785 3.93113
202.832 6.06354
202.855 7.93197
202.878 10.8856
202.901 15.9259
202.924 25.4525
202.936 33.6193
202.948 46.0309
202.959 65.5299
202.971 96.3552
202.985 153.954
203.000 191.898
203.015 153.459
203.029 95.9632
203.046 55.7981
203.063 35.0035
203.079 23.5830
203.096 16.9062
203.112 12.6776
203.129 9.88093
203.162 6.51571
203.195 4.66213
203.228 3.53754
203.294 2.30433
203.360 1.67806
203.426 1.31834
203.559 0.941451
203.691 0.758216
203.823 0.655468
204.088 0.549780
204.353 0.498789
204.617 0.469990
205.147 0.439603
206.205 0.414809
207.264 0.404121
211.498 0.392476
213.615 0.395485
215.733 0.409249
216.791 0.428951
217.321 0.448482
217.850 0.483895
218.379 0.558936
218.644 0.633101
218.908 0.767157
219.041 0.879305
219.173 1.04916
219.305 1.32465
219.438 1.81567
219.504 2.22027
219.570 2.82432
219.636 3.78375
219.702 5.43884
219.769 8.67536
219.802 11.5915
219.835 16.3218
219.868 24.7720
219.884 31.7118
219.901 41.8825
219.918 57.7257
219.934 83.5280
219.951 128.297
219.959 162.854
219.967 208.239
219.984 332.910
220.000 415.893
220.017 332.674
220.033 208.042
220.047 139.097
220.060 96.3501
220.074 69.5919
220.087 52.3129
220.114 32.2919
220.142 21.8114
220.169 15.7113
220.196 11.8703
220.250 7.50559
220.304 5.22137
220.358 3.88109
220.413 3.02902
220.467 2.45425
220.575 1.75098
220.684 1.35441
220.792 1.10896
220.900 0.946634
221.117 0.752152
221.334 0.644785
221.768 0.536876
222.201 0.486988
222.635 0.460516
223.502 0.436730
224.370 0.431008
225.237 0.440802
225.671 0.459463
225.887 0.478602
226.104 0.513516
226.321 0.587125
226.430 0.658961
226.538 0.786780
226.646 1.04831
226.701 1.29617
226.755 1.72293
226.809 2.55161
226.836 3.29359
226.863 4.49387
226.890 6.61271
226.917 10.8377
226.931 14.6887
226.944 20.8438
226.958 31.3685
226.972 49.5020
226.986 79.0606
227.000 98.5760
227.014 78.8269
227.029 49.4894
227.044 29.2374
227.060 18.5318
227.076 12.6274
227.091 9.12924
227.107 6.91657
227.123 5.43896
227.154 3.66110
227.186 2.67854
227.217 2.08114
227.280 1.42422
227.343 1.09087
227.405 0.899140
227.531 0.698898
227.656 0.601995
227.782 0.548120
228.033 0.493804
228.535 0.455959
229.037 0.445123
230.042 0.445393
231.046 0.460116
232.051 0.494604
232.553 0.528107
233.055 0.587505
233.557 0.710615
233.809 0.830585
234.060 1.04556
234.185 1.22424
234.311 1.49360
234.436 1.92868
234.562 2.69889
234.625 3.33003
234.687 4.26739
234.750 5.74608
234.813 8.27207
234.876 13.1385
234.907 17.4539
234.939 24.3631
234.970 36.3757
234.986 45.9614
235.001 59.7538
235.017 80.4193
235.033 112.809
235.048 165.787
235.064 252.947
235.082 404.418
235.100 505.356
235.118 404.334
235.136 252.867
235.156 147.699
235.176 92.7655
235.196 62.5768
235.216 44.7330
235.236 33.4644
235.256 25.9480
235.296 16.9145
235.336 11.9180
235.376 8.89166
235.456 5.56562
235.536 3.87741
235.616 2.90860
235.696 2.30184
235.776 1.89739
235.936 1.40966
236.096 1.13986
236.417 0.871757
236.737 0.754557
237.057 0.701520
237.697 0.690726
238.337 0.785644
238.657 0.900544
238.978 1.11699
239.138 1.30012
239.298 1.57856
239.458 2.03048
239.618 2.83453
239.698 3.49624
239.778 4.48097
239.858 6.04051
239.938 8.72534
240.018 13.9478
240.058 18.6208
240.098 26.1819
240.138 39.5346
240.158 50.3597
240.178 66.1765
240.198 90.3640
240.218 129.338
240.238 195.525
240.258 310.523
240.279 496.372
240.300 619.612
240.321 495.209
240.342 309.596
240.366 179.861
240.389 112.305
240.413 75.4535
240.437 53.8553
240.460 40.1961
240.484 31.1430
240.531 20.2581
240.579 14.2521
240.626 10.6179
240.721 6.63036
240.815 4.61083
240.910 3.45437
241.005 2.73252
241.099 2.25378
241.288 1.68380
241.478 1.37984
241.856 1.12457
242.235 1.13479
242.424 1.25122
242.613 1.51150
242.803 2.10386
242.897 2.69387
242.992 3.74693
243.086 5.89379
243.134 7.90818
243.181 11.3352
243.228 17.8611
243.252 23.5961
243.276 32.6263
243.299 48.1110
243.323 77.2710
243.335 102.516
243.347 140.618
243.358 200.480
243.370 295.128
243.385 471.409
243.400 588.926
243.408 554.105
243.415 470.475
243.430 294.384
243.440 211.786
243.450 156.141
243.470 91.7857
243.490 59.3642
243.509 41.3492
243.529 30.3497
243.549 23.2508
243.589 14.9246
243.629 10.4473
243.668 7.77331
243.748 4.88030
243.827 3.43374
243.906 2.60936
244.065 1.75532
244.224 1.34719
244.383 1.12443
244.700 0.917221
245.018 0.867086
245.177 0.892110
245.336 0.971175
245.494 1.16546
245.574 1.36107
245.653 1.70853
245.733 2.40717
245.772 3.05426
245.812 4.13948
245.852 6.16285
245.872 7.90382
245.891 10.5830
245.911 15.0390
245.931 23.0349
245.941 29.6418
245.951 39.1455
245.961 53.2272
245.971 74.0548
245.978 94.5918
245.985 118.058
246.000 147.366
246.015 118.011
246.029 74.0219
246.044 45.5466
246.059 29.8062
246.073 20.7604
246.088 15.2439
246.103 11.6828
246.118 9.26970
246.147 6.32555
246.176 4.67551
246.206 3.67258
246.265 2.57721
246.324 2.04214
246.382 1.76571
246.500 1.60030
246.618 1.81681
246.677 2.13375
246.735 2.73381
246.794 3.95814
246.824 5.07556
246.853 6.90443
246.882 10.1728
246.897 12.8493
246.912 16.7956
246.927 22.9017
246.941 32.8973
246.956 50.2445
246.963 63.6476
246.971 81.2244
246.978 103.944
246.985 129.540
247.000 161.692
247.015 129.430
247.029 81.1259
247.041 55.3041
247.053 39.0706
247.064 28.6181
247.076 21.7853
247.099 13.7535
247.122 9.50667
247.145 6.99940
247.168 5.41084
247.214 3.59643
247.260 2.63693
247.306 2.07119
247.399 1.46272
247.491 1.15827
247.583 0.983913
247.768 0.800416
247.952 0.710024
248.137 0.658589
248.506 0.605384
249.244 0.568707
249.982 0.562743
251.458 0.587378
252.934 0.655996
254.410 0.812271
255.148 0.968852
255.886 1.25350
256.255 1.49258
256.624 1.85643
256.993 2.45034
257.362 3.51927
257.547 4.40820
257.731 5.74830
257.916 7.90570
258.100 11.7092
258.192 14.8079
258.285 19.3772
258.377 26.5323
258.469 38.6167
258.515 48.0738
258.561 61.4543
258.607 81.2755
258.654 112.327
258.700 164.785
258.746 261.873
258.769 343.681
258.792 465.111
258.815 652.133
258.838 938.533
258.869 1502.31
258.900 1882.73
258.931 1510.25
258.962 944.655
258.982 686.161
259.002 508.242
259.042 301.427
259.082 195.745
259.123 136.261
259.163 99.9460
259.203 76.3058
259.283 48.5697
259.363 33.5943
259.443 24.6471
259.604 14.9502
259.764 10.0925
259.925 7.32356
260.085 5.59735
260.246 4.44964
260.566 3.06682
260.887 2.29842
261.208 1.82815
261.529 1.52022
262.171 1.15583
262.812 0.958337
264.096 0.767285
265.379 0.688110
266.663 0.656663
269.230 0.668767
270.513 0.707418
271.796 0.776861
273.080 0.898639
274.363 1.12597
275.005 1.31862
275.647 1.61291
276.289 2.09439
276.930 2.96255
277.251 3.68552
277.572 4.77621
277.893 6.53496
278.053 7.84865
278.214 9.64044
278.374 12.1753
278.535 15.9221
278.695 21.7970
278.855 31.7653
278.936 39.5871
279.016 50.7016
279.096 67.2425
279.176 93.3196
279.256 137.647
279.337 220.932
279.377 291.890
279.417 399.076
279.457 566.147
279.497 827.825
279.549 1320.80
279.600 1650.18
279.652 1319.68
279.704 822.850
279.736 604.848
279.769 452.682
279.833 272.255
279.898 178.401
279.962 125.007
280.027 92.0824
280.091 70.5530
280.221 45.1190
280.350 31.3210
280.479 23.0337
280.737 14.0224
280.995 9.49652
281.253 6.91015
281.512 5.29603
281.770 4.22220
282.286 2.92850
282.803 2.21025
283.319 1.77250
283.835 1.48830
284.868 1.16424
285.901 1.02838
286.417 1.03345
286.934 1.16839
287.192 1.39481
287.321 1.62587
287.450 2.04459
287.579 2.91125
287.644 3.73784
287.708 5.16293
287.773 7.94229
287.805 10.4374
287.837 14.4671
287.870 21.6189
287.902 35.9441
287.918 49.0531
287.934 70.1322
287.950 106.072
287.967 168.836
287.983 269.968
288.000 336.773
288.017 269.177
288.034 168.710
288.050 105.989
288.066 70.2438
288.082 49.1126
288.098 36.1037
288.130 21.7425
288.162 14.5717
288.194 10.4988
288.226 7.98991
288.290 5.18287
288.354 3.73710
288.418 2.89691
288.546 2.00916
288.675 1.57390
288.803 1.32819
289.059 1.07439
289.316 0.952144
289.572 0.884173
290.085 0.817157
291.111 0.787320
292.136 0.830175
293.162 0.975330
293.675 1.13284
294.188 1.42607
294.444 1.67434
294.701 2.05269
294.957 2.66905
295.213 3.77172
295.342 4.68182
295.470 6.04276
295.598 8.20861
295.726 11.9621
295.854 19.3238
295.919 25.9857
295.983 36.8857
296.015 45.1398
296.047 56.4556
296.079 72.6216
296.111 96.5639
296.143 134.131
296.175 196.385
296.191 243.682
296.207 307.193
296.223 393.607
296.239 510.207
296.270 815.988
296.300 1019.96
296.331 816.177
296.361 510.315
296.386 342.841
296.411 238.323
296.435 172.539
296.460 129.766
296.510 80.1361
296.559 54.0719
296.609 38.8461
296.658 29.2688
296.757 18.3697
296.856 12.6535
296.955 9.30048
297.054 7.16717
297.153 5.72723
297.351 3.96452
297.549 2.96901
297.748 2.35196
297.946 1.94367
298.342 1.45356
298.738 1.18187
299.134 1.01575
299.530 0.906853
300.322 0.777692
301.114 0.707337
302.699 0.638890
304.283 0.610713
305.868 0.600352
309.037 0.609671
312.205 0.660626
313.790 0.716232
315.374 0.818945
316.167 0.905630
316.959 1.03794
317.751 1.25465
318.543 1.64694
318.939 1.97524
319.335 2.47346
319.732 3.28315
320.128 4.73093
320.326 5.92716
320.524 7.71750
320.722 10.5746
320.821 12.6867
320.920 15.5409
321.019 19.5338
321.118 25.3445
321.217 34.2698
321.316 48.9753
321.366 60.1940
321.415 75.6953
321.465 97.9553
321.514 131.394
321.564 184.493
321.613 274.685
321.663 439.755
321.687 572.954
321.712 756.091
321.756 1209.85
321.800 1514.64
321.844 1213.79
321.888 759.093
321.918 545.635
321.947 401.053
321.976 302.693
322.006 234.874
322.065 151.363
322.124 104.865
322.183 76.6835
322.241 58.4331
322.359 37.1285
322.477 25.6917
322.595 18.8698
322.713 14.4828
322.830 11.4985
323.066 7.81773
323.302 5.72186
323.537 4.41700
323.773 3.55062
324.244 2.50772
324.715 1.92893
325.186 1.57523
325.657 1.34399
326.600 1.07132
327.542 0.924688
329.427 0.786685
331.311 0.737353
333.196 0.736667
334.138 0.759787
335.080 0.827666
335.552 0.916553
335.787 1.00207
336.023 1.15391
336.258 1.46812
336.376 1.77176
336.494 2.30817
336.612 3.39617
336.671 4.41880
336.730 6.16420
336.788 9.50875
336.818 12.4678
336.847 17.1677
336.877 25.3135
336.892 31.7500
336.906 40.9464
336.921 54.6003
336.936 75.7428
336.950 109.781
336.965 165.186
336.983 263.836
337.000 329.582
337.018 263.797
337.035 165.150
337.055 95.7683
337.075 59.9402
337.095 40.3419
337.114 28.8965
337.134 21.6665
337.154 16.8856
337.194 11.1536
337.233 7.99051
337.273 6.07774
337.352 3.97712
337.432 2.91357
337.511 2.30455
337.670 1.67089
337.828 1.36706
337.987 1.20039
338.304 1.03776
338.939 0.941123
339.573 0.936791
340.842 1.02930
342.112 1.24898
342.746 1.44082
343.381 1.73571
344.015 2.21910
344.650 3.09005
344.967 3.81421
345.284 4.90506
345.602 6.65893
345.760 7.96550
345.919 9.74329
346.078 12.2506
346.236 15.9417
346.395 21.7023
346.554 31.3956
346.633 38.9428
346.712 49.5882
346.792 65.2771
346.871 89.6835
346.950 130.383
347.029 204.655
347.069 266.167
347.109 356.215
347.148 491.913
347.188 695.308
347.244 1109.70
347.300 1387.47
347.357 1110.50
347.413 692.762
347.455 480.675
347.497 342.895
347.539 253.117
347.581 193.060
347.664 121.463
347.748 82.9156
347.832 60.0210
347.916 45.4327
348.083 28.6425
348.250 19.7454
348.418 14.4884
348.585 11.1268
348.753 8.85199
349.088 6.05913
349.423 4.47724
349.757 3.49668
350.092 2.84831
350.762 2.07550
351.432 1.66229
352.102 1.48190
352.269 1.51041
352.437 1.67195
352.520 1.91552
352.562 2.15164
352.604 2.55641
352.646 3.32992
352.667 4.00293
352.688 5.05796
352.709 6.84484
352.730 10.1369
352.740 12.9103
352.751 16.9904
352.761 23.2770
352.772 32.7945
352.786 51.8109
352.800 64.3681
352.814 51.6606
352.829 32.7802
352.843 20.3506
352.858 13.5131
352.873 9.62566
352.887 7.27248
352.917 4.73913
352.946 3.49743
352.975 2.79859
353.005 2.36883
353.064 1.88949
353.181 1.49203
353.299 1.32905
353.534 1.18745
353.769 1.12016
354.709 1.00826
355.649 0.977768
356.589 1.00726
357.529 1.13952
357.999 1.29135
358.469 1.57962
358.704 1.82573
358.939 2.20259
359.174 2.81894
359.409 3.92585
359.526 4.84228
359.644 6.21640
359.761 8.41088
359.879 12.2326
359.937 15.3082
359.996 19.7849
360.055 26.6820
360.084 31.6111
360.114 38.0459
360.143 46.7235
360.172 58.7553
360.202 76.0717
360.231 102.050
360.260 143.569
360.290 214.460
360.305 269.350
360.319 345.166
360.334 451.082
360.349 596.840
360.374 955.328
360.400 1193.50
360.426 954.552
360.452 597.359
360.468 434.033
360.485 321.649
360.518 191.047
360.552 124.120
360.585 86.5711
360.618 63.5776
360.652 48.6553
360.718 31.1158
360.785 21.6545
360.852 15.9927
360.985 9.85632
361.119 6.78294
361.252 5.02910
361.385 3.93517
361.519 3.20782
361.785 2.32977
362.052 1.84051
362.319 1.54021
362.586 1.34276
363.119 1.10738
363.653 0.978101
364.720 0.849802
365.787 0.793583
366.854 0.768536
368.988 0.767818
371.122 0.828751
372.189 0.901452
373.256 1.03930
373.790 1.15689
374.323 1.33712
374.857 1.63289
375.390 2.16794
375.657 2.61481
375.924 3.29099
376.191 4.38493
376.458 6.32611
376.591 7.91804
376.724 10.2841
376.858 14.0193
376.924 16.7548
376.991 20.4126
377.058 25.4731
377.124 32.7375
377.191 43.6804
377.258 61.2241
377.325 91.7854
377.358 116.265
377.391 151.450
377.425 204.469
377.458 287.618
377.491 424.210
377.525 652.105
377.562 1043.96
377.600 1306.41
377.638 1046.57
377.676 654.958
377.701 467.914
377.727 342.246
377.753 257.566
377.778 199.267
377.830 127.894
377.881 88.4548
377.933 64.5937
377.984 49.2120
378.087 31.2811
378.190 21.6788
378.293 15.9603
378.396 12.2869
378.499 9.79200
378.704 6.71403
378.910 4.96291
379.116 3.87333
379.322 3.15028
379.733 2.28033
380.145 1.79797
380.556 1.50363
380.968 1.31157
381.791 1.08652
382.614 0.967975
384.260 0.867815
385.906 0.865543
386.729 0.903178
387.552 0.990331
388.375 1.19325
388.787 1.39963
389.198 1.77644
389.404 2.09261
389.610 2.57230
389.816 3.35024
390.022 4.73408
390.124 5.87151
390.227 7.56534
390.330 10.2461
390.433 14.8494
390.485 18.5103
390.536 23.7725
390.587 31.7500
390.639 44.5916
390.665 54.2036
390.690 67.2072
390.716 85.4198
390.742 111.895
390.767 152.108
390.793 216.312
390.819 324.003
390.845 508.319
390.872 813.688
390.900 1017.32
390.928 814.300
390.956 509.685
390.982 322.082
391.008 213.598
391.034 149.479
391.060 109.700
391.113 65.5736
391.165 43.4432
391.217 30.8664
391.270 23.1008
391.374 14.4118
391.479 9.93488
391.584 7.33402
391.688 5.69188
391.793 4.59055
392.002 3.24911
392.212 2.49573
392.421 2.03059
392.630 1.72372
393.049 1.35648
393.468 1.15374
394.305 0.949499
395.143 0.854377
395.980 0.803177
397.655 0.754725
401.005 0.731185
404.355 0.742132
407.704 0.777027
411.054 0.853723
412.729 0.932280
413.566 0.997593
414.404 1.10207
415.241 1.29909
415.660 1.48066
416.079 1.79620
416.497 2.44041
416.707 3.06158
416.916 4.16247
417.021 5.06804
417.126 6.42072
417.230 8.57394
417.335 12.3081
417.440 19.6700
417.492 26.3771
417.544 37.3997
417.597 57.4266
417.623 74.1204
417.649 99.0775
417.675 138.819
417.701 205.971
417.727 329.207
417.754 564.476
417.777 905.680
417.800 1142.33
417.823 922.470
417.847 578.797
417.870 351.645
417.894 226.826
417.918 155.729
417.942 112.663
417.966 84.9969
417.989 66.3125
418.037 43.5782
418.085 30.8784
418.132 23.1027
418.227 14.4991
418.323 10.1103
418.418 7.57964
418.608 4.93398
418.799 3.65958
418.989 2.95814
419.370 2.27181
419.751 1.98464
420.132 1.86696
420.513 1.83998
420.893 1.87370
421.274 1.95881
421.655 2.09902
422.036 2.31293
422.417 2.64809
422.798 3.23621
422.988 3.73942
423.178 4.55923
423.369 6.10824
423.464 7.50477
423.559 9.82909
423.654 14.1828
423.702 17.9666
423.750 23.9234
423.797 34.0591
423.845 53.1849
423.869 69.5747
423.892 94.4906
423.916 133.667
423.940 195.701
423.970 311.288
424.000 388.666
424.030 311.895
424.060 196.257
424.088 125.627
424.116 84.7348
424.144 60.3890
424.172 45.2613
424.228 28.5067
424.284 20.1218
424.340 15.3892
424.396 12.5013
424.509 9.36291
424.621 7.86127
424.733 7.10552
424.957 6.62246
425.406 7.43418
425.854 9.84186
426.078 11.8459
426.303 14.7067
426.527 18.9209
426.751 25.4098
426.975 36.0352
427.200 54.8323
427.312 69.9085
427.424 91.3656
427.536 122.449
427.648 167.275
427.824 266.774
428.000 332.560
428.177 265.649
428.353 166.089
428.473 119.082
428.592 87.3527
428.712 65.9429
428.832 51.1839
429.071 33.1126
429.310 23.0848
429.549 17.0203
429.788 13.0982
430.267 8.52513
430.745 6.07188
431.224 4.60936
432.180 3.02896
433.137 2.23948
434.094 1.78988
435.051 1.51002
436.008 1.32428
437.921 1.10140
439.835 0.978630
441.749 0.904646
443.662 0.857357
447.490 0.804878
451.317 0.782393
455.144 0.785682
456.101 0.798587
457.058 0.837158
457.536 0.890773
457.776 0.943973
458.015 1.04037
458.254 1.24345
458.374 1.44221
458.493 1.79704
458.553 2.08962
458.613 2.52691
458.673 3.22257
458.732 4.42776
458.792 6.79076
458.822 8.92850
458.852 12.4252
458.882 18.7008
458.897 23.8939
458.912 31.5545
458.927 43.6130
458.942 63.5104
458.957 99.0276
458.972 163.803
458.986 262.071
459.000 327.359
459.014 262.011
459.029 164.324
459.038 120.120
459.047 89.7967
459.065 54.0383
459.083 35.4691
459.101 25.0060
459.119 18.5520
459.137 14.3604
459.173 9.41021
459.209 6.73179
459.245 5.12584
459.317 3.38224
459.390 2.50769
459.462 2.00824
459.534 1.69664
459.606 1.48933
459.751 1.23943
459.895 1.10039
460.184 0.959454
460.472 0.893303
460.761 0.857337
461.339 0.822271
462.494 0.800605
463.649 0.798578
464.804 0.805847
465.959 0.826099
466.537 0.849675
467.114 0.908120
467.403 0.983219
467.547 1.05547
467.692 1.18346
467.836 1.44633
467.908 1.69743
467.980 2.13441
468.053 2.99858
468.089 3.78817
468.125 5.09406
468.161 7.47753
468.179 9.48324
468.197 12.4976
468.215 17.3516
468.233 25.6471
468.251 41.0611
468.269 71.2036
468.285 113.430
468.300 141.590
468.316 113.445
468.331 71.2143
468.341 51.4011
468.352 38.0551
468.372 22.6882
468.393 14.9321
468.414 10.6005
468.434 7.95974
468.455 6.25687
468.496 4.26555
468.537 3.19292
468.579 2.55448
468.661 1.86426
468.743 1.51955
468.826 1.32400
468.991 1.12260
469.156 1.02753
469.321 0.976287
469.650 0.928293
470.310 0.905594
470.970 0.913731
472.289 0.970241
473.608 1.08835
474.268 1.18963
474.927 1.34457
475.587 1.59802
476.247 2.05450
476.576 2.43418
476.906 3.00617
477.236 3.92632
477.401 4.61244
477.566 5.54655
477.731 6.86399
477.896 8.80630
478.061 11.8389
478.143 14.0383
478.225 16.9533
478.308 20.9389
478.390 26.5683
478.473 34.8918
478.555 47.8591
478.638 69.5932
478.720 109.431
478.761 142.650
478.803 191.556
478.844 265.529
478.885 377.442
478.943 602.894
479.000 750.741
479.058 598.603
479.115 374.056
479.168 239.025
479.221 160.057
479.274 112.759
479.327 83.1300
479.433 50.0966
479.539 33.3698
479.645 23.8371
479.750 17.9202
479.962 11.2872
480.174 7.85976
480.386 5.86505
480.598 4.60414
480.809 3.75715
481.233 2.72594
481.657 2.14631
482.080 1.78868
482.504 1.55275
483.351 1.27093
484.198 1.11579
485.045 1.02173
485.893 0.960768
487.587 0.890494
489.281 0.856833
490.128 0.850710
490.976 0.858917
491.399 0.879382
491.611 0.901720
491.823 0.943628
492.035 1.03346
492.141 1.12173
492.246 1.27902
492.352 1.60039
492.405 1.90432
492.458 2.42426
492.511 3.42829
492.538 4.32030
492.564 5.74421
492.591 8.23252
492.617 13.0650
492.630 17.3804
492.644 24.1127
492.657 35.1476
492.670 53.5033
492.685 85.2344
492.700 106.232
492.715 85.0623
492.730 53.5426
492.747 31.7641
492.763 20.2592
492.780 13.9175
492.796 10.1795
492.813 7.79837
492.830 6.20906
492.863 4.30186
492.896 3.24428
492.929 2.60310
492.995 1.89719
493.062 1.53802
493.128 1.33126
493.260 1.11485
493.393 1.00962
493.525 0.950695
493.790 0.890376
494.056 0.861752
494.321 0.846186
494.851 0.832160
495.381 0.830916
495.911 0.847287
496.176 0.875061
496.309 0.903405
496.441 0.954911
496.574 1.06236
496.640 1.16568
496.706 1.34563
496.773 1.70236
496.806 2.02774
496.839 2.56515
496.872 3.54775
496.889 4.37122
496.905 5.60529
496.922 7.58718
496.938 10.9570
496.955 17.2280
496.971 29.3341
496.986 46.4551
497.000 57.8770
497.014 46.4684
497.029 29.3438
497.041 19.9725
497.052 14.1610
497.064 10.4884
497.075 8.08483
497.099 5.29568
497.122 3.82720
497.145 2.96928
497.168 2.42766
497.215 1.81062
497.261 1.48636
497.307 1.29624
497.400 1.09338
497.493 0.993069
497.586 0.936329
497.772 0.877636
498.143 0.833525
498.514 0.817183
499.257 0.804702
500.000 0.799968
502.741 0.796517
505.483 0.801824
506.853 0.810049
507.539 0.817971
508.224 0.831952
508.909 0.860748
509.252 0.888666
509.594 0.938502
509.937 1.04225
510.108 1.14313
510.280 1.32286
510.365 1.47120
510.451 1.69336
510.537 2.04820
510.622 2.66637
510.708 3.89471
510.751 5.02027
510.794 6.88956
510.837 10.3345
510.858 13.2396
510.879 17.6620
510.901 24.8153
510.922 37.2935
510.944 61.0488
510.954 80.8951
510.965 109.108
510.983 174.121
511.000 217.682
511.018 174.504
511.035 109.407
511.046 79.7929
511.058 59.5290
511.080 35.7814
511.102 23.5391
511.125 16.6615
511.147 12.4360
511.170 9.69459
511.215 6.46678
511.260 4.72538
511.304 3.68443
511.394 2.56093
511.484 2.00573
511.574 1.69825
511.664 1.51842
511.753 1.41481
511.933 1.36399
512.023 1.42096
512.113 1.57273
512.202 1.92880
512.247 2.27838
512.292 2.88314
512.337 4.04619
512.360 5.07293
512.382 6.69273
512.405 9.47575
512.427 14.7232
512.438 19.2241
512.449 26.0671
512.461 36.8233
512.472 53.8413
512.479 68.7149
512.486 85.7085
512.500 106.743
512.514 85.4466
512.528 53.8171
512.538 38.2779
512.548 27.9499
512.558 21.0846
512.568 16.4094
512.588 10.7587
512.608 7.67475
512.628 5.81377
512.648 4.62228
512.688 3.23476
512.728 2.49144
512.768 2.04981
512.848 1.57138
512.928 1.33029
513.007 1.19153
513.167 1.04442
513.327 0.970874
513.486 0.928205
513.806 0.882102
514.125 0.858427
514.444 0.844427
515.083 0.829246
516.360 0.817651
517.637 0.814281
520.192 0.815106
522.746 0.820562
525.301 0.830912
526.578 0.839707
527.855 0.854109
529.132 0.882274
529.771 0.909060
530.410 0.956781
530.729 0.996519
531.048 1.05686
531.368 1.15541
531.687 1.33348
531.847 1.48247
532.006 1.70836
532.166 2.07563
532.325 2.73175
532.405 3.27431
532.485 4.08563
532.565 5.37902
532.645 7.62675
532.725 12.0638
532.765 16.0968
532.785 18.9806
532.804 22.7336
532.824 27.7933
532.844 34.7529
532.864 44.7822
532.884 59.7398
532.894 70.1918
532.904 83.5429
532.914 100.893
532.924 123.593
532.934 154.466
532.944 196.798
532.954 255.428
532.964 335.069
532.982 535.553
533.000 668.988
533.009 629.550
533.018 535.161
533.036 334.754
533.053 214.428
533.069 144.064
533.085 101.612
533.102 75.0775
533.135 45.3637
533.168 30.3271
533.200 21.7167
533.233 16.3700
533.299 10.3802
533.365 7.27797
533.431 5.47455
533.496 4.33240
533.562 3.56618
533.694 2.63223
533.825 2.10714
533.957 1.78311
534.088 1.56944
534.351 1.31395
534.614 1.17330
534.877 1.08792
535.140 1.03247
535.666 0.967749
536.192 0.933593
537.243 0.902706
538.295 0.892693
539.347 0.892139
541.451 0.908727
543.554 0.954532
544.606 1.00024
545.658 1.08181
546.184 1.14921
546.710 1.25052
547.236 1.41359
547.761 1.70220
548.024 1.93874
548.287 2.29048
548.550 2.84727
548.813 3.80512
549.076 5.66657
549.208 7.33511
549.339 10.0357
549.471 14.8176
549.536 18.7070
549.602 24.3953
549.668 33.1388
549.734 47.2813
549.799 71.4891
549.865 114.081
549.933 182.527
550.000 230.649
550.068 186.916
550.135 117.501
550.197 75.3346
550.259 50.5747
550.321 35.7846
550.383 26.5148
550.507 16.2124
550.631 11.0083
550.755 8.04812
550.879 6.21384
551.127 4.16259
551.375 3.10578
551.623 2.49358
551.871 2.10914
552.119 1.85348
552.615 1.54918
553.111 1.38853
554.103 1.26245
555.094 1.29289
555.590 1.37908
556.086 1.55886
556.582 1.95151
556.830 2.33157
557.078 2.99079
557.326 4.27736
557.450 5.43191
557.574 7.30006
557.698 10.6039
557.760 13.2838
557.822 17.2011
557.884 23.1945
557.946 32.8574
558.008 49.2789
558.070 77.7719
558.135 123.817
558.200 154.354
558.265 123.543
558.330 77.5505
558.403 45.5378
558.476 28.8000
558.549 19.6425
558.622 14.2466
558.695 10.8465
558.767 8.58210
558.913 5.86623
559.059 4.36778
559.205 3.45823
559.496 2.45983
559.788 1.95383
560.079 1.66349
560.662 1.36183
561.245 1.21899
561.828 1.14371
562.995 1.08522
564.161 1.10101
564.744 1.14235
565.327 1.22743
565.910 1.41297
566.201 1.59496
566.493 1.91963
566.639 2.18800
566.785 2.59118
566.930 3.23915
567.076 4.38196
567.149 5.31625
567.222 6.70231
567.295 8.88744
567.331 10.4842
567.368 12.6215
567.404 15.5826
567.422 17.5005
567.440 19.8221
567.459 22.6854
567.477 26.2289
567.495 30.7085
567.513 36.4796
567.532 44.1272
567.550 54.4115
567.568 68.7329
567.586 89.3978
567.604 120.479
567.623 169.449
567.641 250.125
567.659 385.161
567.680 615.579
567.700 769.309
567.721 615.785
567.741 385.323
567.758 257.172
567.775 178.313
567.792 128.948
567.809 96.8757
567.843 59.9353
567.876 40.6280
567.910 29.4042
567.944 22.3452
568.012 14.3387
568.079 10.1592
568.147 7.72499
568.282 5.16968
568.417 3.96090
568.553 3.33927
568.823 2.92439
569.094 3.24119
569.229 3.75718
569.364 4.72975
569.499 6.65303
569.567 8.34439
569.635 10.9990
569.702 15.4648
569.770 23.6569
569.804 30.4635
569.837 40.4907
569.871 55.6248
569.905 78.4546
569.953 124.636
570.000 154.640
570.048 123.260
570.095 77.3498
570.130 54.3663
570.164 39.3450
570.199 29.4445
570.234 22.7810
570.303 14.7840
570.372 10.4388
570.442 7.84589
570.511 6.18355
570.649 4.26023
570.788 3.23255
570.926 2.62039
571.204 1.95592
571.481 1.62037
571.758 1.42643
572.312 1.22065
572.866 1.11834
573.420 1.05971
574.529 0.998435
575.637 0.969289
576.746 0.954182
578.962 0.944035
581.179 0.951357
582.288 0.963467
583.396 0.987076
584.504 1.03785
585.059 1.08789
585.613 1.17799
585.890 1.25307
586.167 1.36663
586.444 1.55046
586.721 1.87756
586.860 2.14665
586.998 2.54759
587.137 3.18398
587.275 4.28112
587.414 6.42036
587.483 8.34323
587.552 11.4610
587.622 17.0039
587.656 21.5312
587.691 28.1640
587.726 38.4135
587.760 55.0500
587.795 83.6801
587.830 134.265
587.865 214.324
587.900 267.249
587.935 213.651
587.971 133.922
588.000 89.7177
588.029 62.3323
588.058 45.1996
588.087 34.1051
588.145 21.2963
588.203 14.5991
588.261 10.6988
588.319 8.24940
588.436 5.46723
588.552 4.01098
588.668 3.15780
588.784 2.61561
588.900 2.25004
589.133 1.80332
589.365 1.55165
589.598 1.39634
589.830 1.29410
590.295 1.17266
590.760 1.10693
591.690 1.04448
592.620 1.02066
593.550 1.01409
595.410 1.03137
597.269 1.09515
598.199 1.16239
599.129 1.28490
599.594 1.38711
600.059 1.54126
600.524 1.78955
600.989 2.22742
601.221 2.58428
601.454 3.11163
601.686 3.93785
601.919 5.33765
602.151 7.99195
602.267 10.3073
602.384 13.9518
602.500 20.1407
602.558 24.9562
602.616 31.7248
602.674 41.5623
602.732 56.3754
602.790 79.3710
602.849 115.220
602.924 183.710
603.000 228.826
603.076 182.809
603.152 114.582
603.231 69.1933
603.311 44.5608
603.391 30.6670
603.471 22.3231
603.550 16.9827
603.630 13.3935
603.790 9.03855
603.949 6.61443
604.109 5.13408
604.427 3.50175
604.746 2.67351
605.065 2.20077
605.384 1.91023
605.703 1.72473
606.341 1.54093
606.660 1.52406
606.979 1.57392
607.298 1.75675
607.458 1.96079
607.617 2.34025
607.777 3.13503
607.856 3.89417
607.936 5.20035
608.016 7.73188
608.056 9.98742
608.096 13.6022
608.136 19.9322
608.155 24.9931
608.175 32.3002
608.195 43.3648
608.215 60.7369
608.235 89.3523
608.255 137.132
608.278 218.128
608.300 269.245
608.323 213.123
608.345 133.216
608.363 90.6193
608.381 63.9034
608.399 46.8078
608.416 35.6182
608.452 22.5084
608.488 15.5623
608.524 11.4866
608.559 8.90531
608.631 5.95475
608.702 4.40092
608.773 3.48466
608.916 2.50350
609.059 2.01518
609.202 1.73651
609.487 1.44463
609.773 1.30059
610.058 1.21763
610.629 1.12817
611.200 1.08164
611.771 1.05340
612.914 1.02118
615.198 0.993376
617.482 0.982908
622.050 0.979813
626.619 0.988152
631.187 1.00802
633.472 1.02637
635.756 1.05785
638.040 1.12176
639.182 1.18366
640.324 1.29475
640.895 1.38742
641.466 1.52794
642.037 1.75657
642.608 2.16647
642.894 2.50641
643.179 3.01727
643.465 3.83662
643.608 4.44615
643.750 5.27344
643.893 6.43754
644.036 8.14740
644.179 10.8038
644.322 15.2477
644.393 18.6858
644.464 23.5155
644.536 30.5856
644.607 41.4649
644.678 59.3923
644.750 91.4797
644.786 117.507
644.821 155.022
644.857 210.189
644.893 290.870
644.946 465.441
645.000 583.758
645.054 468.983
645.108 293.890
645.164 177.110
645.220 113.601
645.277 77.7715
645.333 56.2101
645.389 42.4016
645.446 33.1259
645.558 21.8748
645.671 15.6037
645.783 11.7751
646.009 7.54302
646.234 5.38593
646.459 4.14154
646.685 3.35977
646.910 2.83706
647.361 2.20377
647.811 1.84969
648.262 1.63215
648.712 1.48919
649.614 1.31938
650.515 1.22674
651.416 1.17120
652.317 1.13573
654.119 1.09579
655.922 1.07654
659.526 1.06452
663.131 1.07098
666.736 1.09908
668.538 1.13550
669.439 1.17016
670.341 1.23164
671.242 1.35987
671.692 1.48565
672.143 1.71229
672.368 1.90144
672.594 2.18793
672.819 2.65247
673.044 3.48069
673.157 4.16325
673.269 5.18166
673.382 6.80156
673.438 7.99449
673.495 9.60147
673.551 11.8424
673.607 15.0847
673.664 20.0301
673.720 28.0983
673.748 34.1926
673.776 42.5224
673.805 54.3891
673.833 71.8815
673.861 99.1831
673.889 144.049
673.917 223.068
673.945 365.807
673.973 584.888
674.000 733.401
674.028 588.563
674.055 368.667
674.084 220.577
674.113 140.839
674.142 96.1064
674.171 69.2907
674.201 52.1881
674.230 40.6980
674.288 26.7892
674.346 19.0470
674.404 14.3312
674.521 9.12581
674.637 6.47301
674.754 4.94502
674.870 3.98533
674.986 3.34379
675.219 2.56648
675.452 2.13225
675.685 1.86548
675.918 1.69036
676.384 1.48255
676.849 1.36959
677.781 1.25973
678.712 1.21324
679.644 1.19304
681.507 1.18915
683.369 1.21752
685.232 1.29552
686.164 1.38494
686.630 1.46429
687.095 1.59755
687.561 1.86048
687.794 2.10900
688.027 2.54528
688.260 3.43733
688.376 4.29026
688.434 4.92317
688.492 5.78211
688.551 6.99217
688.580 7.78953
688.609 8.76791
688.638 9.98651
688.667 11.5307
688.696 13.5270
688.725 16.1697
688.754 19.7684
688.783 24.8398
688.813 32.2958
688.842 43.8579
688.871 63.0549
688.885 77.7491
688.900 97.8657
688.914 126.593
688.929 168.228
688.944 230.832
688.958 323.635
688.979 517.486
689.000 649.108
689.021 521.654
689.042 326.890
689.060 214.948
689.078 147.040
689.096 105.327
689.114 78.6206
689.151 48.3107
689.187 32.6912
689.223 23.6929
689.259 18.0680
689.332 11.7291
689.404 8.43223
689.476 6.51317
689.621 4.48856
689.766 3.50988
689.910 2.97450
690.200 2.46682
690.489 2.28283
690.779 2.24868
691.358 2.45658
691.647 2.70042
691.936 3.07984
692.226 3.67383
692.515 4.64367
692.805 6.34942
692.950 7.71797
693.094 9.69439
693.239 12.6676
693.384 17.3499
693.528 25.0539
693.673 37.9149
693.837 59.8180
694.000 74.1727
694.164 59.3512
694.328 37.4892
694.473 24.7771
694.618 17.1772
694.763 12.5558
694.907 9.61874
695.197 6.31071
695.487 4.62172
695.776 3.65896
696.066 3.06765
696.645 2.43725
697.224 2.19666
697.514 2.19286
697.804 2.30408
698.093 2.65465
698.238 3.03570
698.383 3.74002
698.528 5.21199
698.600 6.61881
698.672 9.04944
698.745 13.7791
698.781 18.0172
698.817 24.8748
698.853 36.9809
698.890 61.1170
698.908 83.0123
698.926 118.269
698.944 178.114
698.962 282.143
698.981 451.063
699.000 566.122
699.019 455.322
699.038 285.459
699.059 168.319
699.080 106.333
699.101 72.1460
699.122 51.9717
699.142 39.1396
699.163 30.5740
699.205 20.2897
699.247 14.5902
699.289 11.1321
699.372 7.32040
699.456 5.38253
699.539 4.26485
699.706 3.09073
699.873 2.51599
700.040 2.19097
700.374 1.85293
700.708 1.68737
701.042 1.59307
701.710 1.49470
703.045 1.42629
704.381 1.41764
707.053 1.48044
709.724 1.64695
711.060 1.79366
712.396 2.01705
713.731 2.37625
714.399 2.64271
715.067 3.00321
715.735 3.50743
716.403 4.24237
717.071 5.37201
717.739 7.23438
718.073 8.65334
718.406 10.6180
718.740 13.4426
719.074 17.6892
719.408 24.4451
719.742 35.9423
720.076 57.0476
720.243 74.0883
720.410 97.6408
720.705 155.515
721.000 194.039
721.295 155.401
721.590 97.5231
721.827 66.1621
722.064 46.4780
722.300 34.0183
722.537 25.8610
723.011 16.3868
723.484 11.3965
723.958 8.48077
724.431 6.64026
725.378 4.54456
726.325 3.44605
727.272 2.80148
728.219 2.39206
729.166 2.11650
731.060 1.78141
732.954 1.59497
734.847 1.48276
736.741 1.41247
740.529 1.34453
742.423 1.33838
744.317 1.35566
746.211 1.41863
747.158 1.48892
748.105 1.62090
749.052 1.90372
749.525 2.18214
749.999 2.68044
750.235 3.09227
750.472 3.70859
750.709 4.69170
750.827 5.41864
750.946 6.39988
751.064 7.77153
751.182 9.76863
751.242 11.1269
751.301 12.8346
751.360 15.0213
751.419 17.8765
751.478 21.7130
751.538 27.0181
751.597 34.6262
751.656 46.0101
751.715 64.0588
751.774 94.5759
751.804 117.975
751.833 150.001
751.863 194.244
751.893 254.576
751.946 405.621
752.000 501.025
752.054 396.572
752.108 247.727
752.168 144.739
752.228 90.9750
752.289 61.5446
752.349 44.2106
752.409 33.2572
752.470 25.9583
752.591 17.1994
752.711 12.3630
752.832 9.42852
753.073 6.20507
753.315 4.57138
753.556 3.63394
753.798 3.04838
754.039 2.65984
754.522 2.19644
755.005 1.94825
755.971 1.73670
756.937 1.73609
757.420 1.82075
757.903 2.01059
758.386 2.43177
758.627 2.83684
758.869 3.52902
759.110 4.84343
759.231 5.98648
759.352 7.77663
759.472 10.7907
759.593 16.3543
759.654 21.0142
759.714 27.9169
759.774 38.4485
759.835 54.4734
759.917 86.2636
760.000 106.785
760.083 85.1085
760.166 53.5938
760.258 31.7478
760.351 20.3355
760.444 14.0772
760.537 10.3892
760.629 8.06020
760.722 6.50932
760.908 4.64465
761.093 3.61479
761.279 2.98835
761.650 2.29808
762.021 1.94605
762.392 1.74211
763.134 1.52613
763.876 1.41913
764.618 1.35781
766.101 1.29292
767.585 1.26058
769.069 1.24200
772.037 1.22276
777.973 1.21030
783.909 1.20967
789.845 1.21434
795.781 1.22459
798.749 1.23494
800.233 1.24390
801.717 1.25904
803.201 1.28966
803.943 1.31939
804.685 1.37295
805.056 1.41782
805.427 1.48616
805.798 1.59794
806.169 1.80003
806.354 1.96892
806.540 2.22484
806.725 2.63978
806.911 3.37901
807.003 3.98765
807.096 4.89448
807.189 6.33459
807.282 8.81653
807.374 13.6568
807.421 18.0067
807.467 25.0508
807.490 30.3445
807.514 37.5739
807.537 47.7778
807.560 62.6811
807.583 85.6950
807.606 123.093
807.629 187.339
807.653 299.906
807.676 479.278
807.700 597.128
807.724 476.618
807.748 298.448
807.769 191.636
807.791 129.002
807.813 91.2242
807.834 67.5520
807.877 41.0398
807.921 27.5795
807.964 19.8958
808.007 15.1212
808.094 9.76740
808.180 6.99403
808.267 5.38051
808.354 4.35871
808.440 3.67280
808.613 2.83666
808.786 2.36636
808.959 2.07600
809.132 1.88431
809.479 1.65507
809.825 1.52857
810.171 1.45156
810.517 1.40131
811.210 1.34207
811.902 1.31006
813.287 1.27895
814.672 1.26550
816.057 1.25909
818.826 1.25479
824.366 1.25745
829.905 1.26498
835.444 1.27532
840.984 1.29006
843.754 1.30154
846.523 1.32220
847.908 1.34369
848.601 1.36270
849.293 1.39508
849.985 1.46061
850.332 1.52395
850.678 1.63734
850.851 1.73172
851.024 1.87458
851.197 2.10635
851.370 2.52042
851.457 2.86267
851.543 3.37476
851.630 4.19312
851.716 5.61657
851.803 8.43460
851.846 11.0087
851.889 15.2505
851.933 22.9958
851.954 29.5004
851.976 39.2704
851.998 54.9559
852.009 66.4281
852.019 81.7084
852.030 102.474
852.041 131.222
852.052 171.498
852.063 227.551
852.081 363.774
852.100 454.435
852.119 363.856
852.138 228.216
852.158 136.063
852.178 86.8513
852.198 59.3620
852.218 42.9298
852.238 32.4702
852.258 25.4530
852.298 16.9704
852.339 12.2521
852.379 9.38336
852.459 6.21923
852.540 4.60747
852.620 3.68008
852.701 3.09790
852.781 2.70892
852.942 2.23797
853.103 1.97539
853.264 1.81445
853.424 1.70918
853.746 1.58518
854.068 1.51895
854.711 1.45772
855.355 1.43636
855.998 1.43298
857.285 1.45883
858.572 1.53561
859.215 1.61249
859.859 1.74912
860.502 2.03069
860.824 2.30268
861.146 2.78526
861.307 3.18246
861.467 3.77586
861.628 4.72241
861.789 6.36909
861.870 7.69572
861.950 9.63032
862.030 12.6118
862.111 17.5492
862.151 21.3375
862.191 26.5957
862.232 34.1952
862.272 45.7107
862.312 64.2189
862.352 96.2122
862.372 121.289
862.392 156.317
862.412 205.924
862.433 275.806
862.466 441.277
862.500 553.975
862.534 445.701
862.568 279.667
862.604 165.834
862.641 105.286
862.678 71.6023
862.714 51.6272
862.751 38.9257
862.787 30.4528
862.861 20.2256
862.934 14.5664
863.007 11.1238
863.154 7.34098
863.300 5.42346
863.447 4.32587
863.740 3.19162
864.033 2.66160
864.326 2.38807
864.913 2.18640
865.499 2.24933
865.792 2.38757
866.085 2.65346
866.378 3.19536
866.525 3.70140
866.671 4.56937
866.818 6.28411
866.891 7.87087
866.964 10.5516
867.038 15.6639
867.074 20.1756
867.111 27.3464
867.148 39.7867
867.166 49.6477
867.184 63.7803
867.203 84.8558
867.221 117.700
867.239 171.070
867.258 259.067
867.279 414.244
867.300 521.187
867.321 420.746
867.343 264.795
867.358 186.990
867.373 135.516
867.388 101.485
867.403 78.5520
867.434 50.8530
867.464 35.7663
867.494 26.7686
867.524 21.0173
867.585 14.4159
867.646 10.9606
867.706 8.97645
867.828 7.01109
867.949 6.26940
868.070 6.12774
868.191 6.38631
868.313 7.00870
868.434 8.06176
868.555 9.72315
868.676 12.3686
868.737 14.2757
868.798 16.7773
868.858 20.1388
868.919 24.7657
868.979 31.3603
869.040 41.1527
869.101 56.4696
869.161 81.8036
869.222 126.450
869.283 207.604
869.341 330.440
869.400 408.430
869.459 323.790
869.518 202.546
869.565 136.687
869.613 95.5766
869.661 69.6596
869.708 52.7216
869.804 33.0867
869.899 22.7627
869.994 16.7228
870.090 12.9117
870.280 8.56218
870.471 6.27554
870.662 4.92822
870.853 4.06817
871.043 3.48567
871.425 2.76915
871.806 2.36146
872.188 2.10711
872.569 1.93758
873.332 1.73240
874.095 1.61758
874.858 1.54693
875.620 1.50056
877.146 1.44598
878.672 1.41736
881.723 1.39426
884.774 1.39601
886.300 1.40675
887.826 1.43006
889.352 1.48279
890.114 1.53596
890.877 1.63295
891.259 1.71454
891.640 1.83875
892.022 2.04142
892.403 2.40569
892.594 2.70807
892.784 3.16302
892.975 3.89332
893.166 5.17522
893.261 6.21486
893.356 7.74117
893.452 10.1166
893.500 11.8315
893.547 14.0937
893.595 17.1749
893.643 21.5077
893.690 27.8588
893.738 37.6395
893.786 53.8005
893.809 66.0713
893.833 82.8121
893.857 106.466
893.881 140.488
893.905 190.579
893.929 264.100
893.964 421.535
894.000 524.091
894.036 417.560
894.072 261.352
894.094 190.951
894.117 142.473
894.163 85.4630
894.209 56.1321
894.254 39.5725
894.300 29.4019
894.346 22.7657
894.437 14.9678
894.528 10.7460
894.620 8.21828
894.802 5.47386
894.985 4.09664
895.168 3.31060
895.350 2.81990
895.533 2.49360
895.898 2.09997
896.264 1.88094
896.629 1.74672
896.994 1.65862
897.725 1.55397
898.455 1.49673
899.186 1.46221
899.917 1.43994
901.378 1.41426
902.839 1.40101
905.762 1.38966
908.684 1.38655
911.607 1.38688
917.452 1.39225
923.297 1.40171
926.220 1.40850
929.142 1.41819
932.065 1.43492
933.526 1.44977
934.987 1.47535
935.718 1.49630
936.449 1.52786
937.179 1.57915
937.910 1.67161
938.275 1.74900
938.641 1.86654
939.006 2.05806
939.371 2.40200
939.554 2.68755
939.737 3.11695
939.919 3.80678
940.102 5.01753
940.193 6.00054
940.285 7.44460
940.376 9.69110
940.422 11.3156
940.467 13.4600
940.513 16.3837
940.559 20.4998
940.604 26.5425
940.650 35.8669
940.696 51.3210
940.718 63.0310
940.741 79.1053
940.764 101.896
940.787 134.807
940.810 183.513
940.833 255.434
940.866 407.858
940.900 508.056
940.934 405.599
940.968 254.038
941.003 153.656
941.038 98.8969
941.073 67.9582
941.109 49.3144
941.144 37.3785
941.179 29.3367
941.250 19.5838
941.320 14.1368
941.391 10.8059
941.532 7.12513
941.673 5.24590
941.814 4.16188
941.956 3.48037
942.097 3.02442
942.379 2.47144
942.661 2.16195
942.944 1.97158
943.226 1.84631
943.790 1.69700
944.355 1.61504
944.919 1.56542
945.484 1.53325
946.613 1.49579
947.742 1.47602
948.871 1.46468
950.000 1.45786
951.563 1.45255
953.125 1.44996
956.250 1.44885
959.375 1.45037
962.500 1.45313
968.750 1.46035
975.000 1.46861
987.500 1.48634
1000.00 1.50480
1014.74 1.52722
1029.48 1.55079
1036.85 1.56379
1040.54 1.57114
1044.22 1.57978
1047.91 1.59137
1049.75 1.59969
1051.59 1.61177
1053.43 1.63235
1054.35 1.64976
1055.28 1.67784
1056.20 1.73045
1056.66 1.77796
1057.12 1.85838
1057.58 2.01821
1057.81 2.16894
1058.04 2.43309
1058.16 2.65137
1058.27 2.97483
1058.39 3.49092
1058.50 4.39360
1058.62 6.20013
1058.67 7.89425
1058.73 10.6964
1058.76 12.9125
1058.79 16.0539
1058.82 20.7076
1058.85 27.6816
1058.87 39.7159
1058.89 49.3614
1058.90 61.8811
1058.92 81.1407
1058.93 107.699
1058.95 147.345
1058.96 206.422
1058.98 327.098
1059.00 407.963
1059.01 380.971
1059.02 323.146
1059.04 203.344
1059.06 118.443
1059.09 74.4126
1059.11 50.4486
1059.13 36.8565
1059.16 27.8406
1059.18 22.0758
1059.22 14.9402
1059.27 10.9262
1059.31 8.55033
1059.40 5.93806
1059.49 4.60824
1059.58 3.86291
1059.77 3.10850
1059.95 2.78614
1060.13 2.65786
1060.49 2.72344
1060.67 2.90215
1060.85 3.21965
1061.03 3.76858
1061.21 4.76781
1061.39 6.80856
1061.49 8.72979
1061.53 10.1096
1061.58 11.9387
1061.62 14.4980
1061.67 18.0452
1061.71 23.2717
1061.76 31.3974
1061.80 44.9323
1061.82 55.5498
1061.85 69.5811
1061.87 90.4603
1061.89 119.689
1061.91 165.497
1061.94 230.979
1061.97 366.779
1062.00 456.321
1062.03 361.747
1062.07 227.045
1062.09 153.576
1062.12 108.959
1062.14 79.3752
1062.17 60.6472
1062.22 38.2411
1062.27 26.5429
1062.32 19.5093
1062.37 15.0613
1062.47 10.0206
1062.57 7.33811
1062.67 5.77306
1062.78 4.77252
1062.88 4.09454
1063.08 3.25810
1063.28 2.78397
1063.49 2.48932
1063.69 2.29446
1064.09 2.05828
1064.50 1.92690
1064.90 1.84608
1065.31 1.79284
1066.12 1.72926
1066.93 1.69440
1067.74 1.67342
1068.55 1.66002
1070.17 1.64495
1071.79 1.63774
1075.04 1.63303
1078.28 1.63367
1081.52 1.63656
1088.01 1.64545
1094.50 1.65696
1100.98 1.67218
1104.22 1.68348
1105.85 1.69171
1107.47 1.70403
1109.09 1.72644
1109.90 1.74697
1110.71 1.78278
1111.12 1.81237
1111.52 1.85696
1111.93 1.92944
1112.33 2.05990
1112.53 2.16906
1112.74 2.33457
1112.94 2.60336
1113.14 3.08052
1113.24 3.47804
1113.35 4.06693
1113.45 5.00287
1113.55 6.62237
1113.60 7.93164
1113.65 9.83734
1113.70 12.7613
1113.75 17.4480
1113.78 21.1393
1113.80 26.0339
1113.83 32.9796
1113.85 43.2517
1113.88 60.0331
1113.90 86.9392
1113.93 134.292
1113.94 172.758
1113.95 220.345
1113.98 349.754
1114.00 436.809
1114.01 408.715
1114.03 346.945
1114.05 218.153
1114.08 130.608
1114.10 83.5581
1114.13 57.2664
1114.15 41.5434
1114.18 31.5315
1114.21 24.8124
1114.26 16.6874
1114.31 12.1749
1114.36 9.42209
1114.47 6.38545
1114.57 4.83974
1114.67 3.94877
1114.78 3.38933
1114.88 3.01839
1115.09 2.56413
1115.30 2.31037
1115.50 2.15456
1115.71 2.05262
1116.13 1.93092
1116.54 1.86471
1117.37 1.79964
1118.20 1.77106
1119.03 1.75725
1120.70 1.74808
1124.02 1.75776
1127.34 1.78955
1129.00 1.81695
1130.66 1.85811
1132.32 1.92404
1133.99 2.04036
1134.82 2.13572
1135.65 2.27790
1136.48 2.50386
1136.89 2.67042
1137.31 2.89520
1137.72 3.20975
1138.14 3.66651
1138.55 4.36743
1138.97 5.52134
1139.18 6.40159
1139.39 7.62052
1139.59 9.37208
1139.80 11.9902
1140.01 16.1682
1140.22 23.2316
1140.42 36.2348
1140.53 46.7279
1140.63 61.0869
1140.82 97.1222
1141.00 121.516
1141.19 97.4834
1141.37 61.3614
1141.52 41.7215
1141.67 29.4904
1141.82 21.8021
1141.97 16.8179
1142.27 11.0266
1142.57 7.98590
1142.87 6.20844
1143.17 5.09288
1143.76 3.82539
1144.36 3.16333
1144.96 2.77896
1145.56 2.53869
1146.16 2.38295
1147.36 2.22071
1147.95 2.19746
1148.55 2.22305
1149.15 2.34392
1149.45 2.48492
1149.75 2.75332
1150.05 3.33228
1150.20 3.89956
1150.35 4.89566
1150.50 6.91710
1150.57 8.80117
1150.65 11.9256
1150.69 14.4204
1150.72 17.8519
1150.74 20.1820
1150.76 23.0527
1150.78 26.6414
1150.80 30.9320
1150.82 36.7534
1150.84 44.4428
1150.85 54.8461
1150.87 68.4112
1150.89 88.6938
1150.91 116.625
1150.93 160.421
1150.95 221.658
1150.97 350.472
1151.00 430.445
1151.01 400.759
1151.03 336.457
1151.06 210.723
1151.08 135.636
1151.10 92.9452
1151.13 66.0041
1151.15 49.6173
1151.20 30.7082
1151.25 21.1824
1151.30 15.5751
1151.35 12.1405
1151.44 8.21127
1151.54 6.14999
1151.64 4.95902
1151.83 3.69173
1152.03 3.06410
1152.22 2.71063
1152.61 2.34307
1153.00 2.16463
1153.39 2.06353
1154.17 1.95700
1154.95 1.90328
1155.72 1.87148
1157.28 1.83613
1160.39 1.80665
1163.50 1.79697
1166.61 1.79777
1168.17 1.80274
1169.72 1.81350
1171.28 1.83777
1172.06 1.86218
1172.84 1.90663
1173.22 1.94409
1173.61 2.00126
1174.00 2.09487
1174.39 2.26411
1174.59 2.40591
1174.78 2.61949
1174.98 2.96719
1175.17 3.58214
1175.27 4.09266
1175.36 4.84555
1175.46 6.03521
1175.56 8.07617
1175.61 9.71261
1175.66 12.0165
1175.70 15.5672
1175.73 18.0108
1175.75 21.1545
1175.78 25.4869
1175.80 31.1319
1175.83 38.9823
1175.85 50.2902
1175.87 68.1392
1175.90 95.3293
1175.92 140.026
1175.95 214.485
1175.97 339.934
1176.00 421.475
1176.01 394.672
1176.03 332.659
1176.06 208.807
1176.08 136.563
1176.10 94.6502
1176.13 67.7148
1176.15 51.1650
1176.20 31.8337
1176.24 21.8438
1176.29 16.0760
1176.34 12.4640
1176.43 8.41065
1176.52 6.27027
1176.62 5.02982
1176.71 4.23322
1176.80 3.70199
1176.99 3.04867
1177.18 2.68005
1177.37 2.45197
1177.55 2.30116
1177.93 2.12015
1178.30 2.02042
1178.68 1.95962
1179.05 1.91990
1179.80 1.87298
1180.55 1.84764
1182.04 1.82304
1183.54 1.81249
1185.04 1.80757
1188.03 1.80467
1194.01 1.80823
1200.00 1.81596
1210.18 1.81884
1215.27 1.82346
1220.35 1.83266
1222.90 1.84067
1225.44 1.85305
1227.99 1.87350
1230.53 1.91074
1231.80 1.94202
1233.08 1.98950
1234.35 2.06672
1235.62 2.20479
1236.26 2.31880
1236.89 2.48941
1237.53 2.76127
1237.85 2.96215
1238.16 3.23338
1238.48 3.61194
1238.80 4.16250
1239.12 5.00642
1239.44 6.39279
1239.60 7.44487
1239.75 8.89696
1239.91 10.9745
1240.07 14.0800
1240.23 18.9774
1240.39 27.2133
1240.55 42.0631
1240.63 53.9332
1240.71 69.9211
1240.85 110.597
1241.00 137.325
1241.15 109.698
1241.29 69.2124
1241.41 47.6565
1241.52 33.9942
1241.64 25.2758
1241.75 19.5673
1241.98 12.8234
1242.21 9.25959
1242.44 7.15698
1242.67 5.83063
1243.13 4.31278
1243.59 3.51177
1244.05 3.04017
1244.51 2.73965
1244.96 2.53694
1245.88 2.28799
1246.80 2.14731
1247.72 2.06008
1248.63 2.00230
1250.47 1.93294
1252.30 1.89453
1254.14 1.87107
1255.97 1.85572
1259.64 1.83756
1263.31 1.82773
1266.98 1.82191
1270.65 1.81831
1277.99 1.81482
1285.32 1.81461
1292.66 1.81843
1296.33 1.82356
1300.00 1.83423
1301.61 1.84261
1303.22 1.85554
1304.82 1.87690
1306.43 1.91588
1307.23 1.94871
1308.04 1.99875
1308.84 2.08052
1309.64 2.22754
1310.05 2.34990
1310.45 2.53432
1310.85 2.83102
1311.25 3.35173
1311.45 3.77580
1311.65 4.40082
1311.85 5.37626
1311.96 6.08688
1312.06 7.02011
1312.16 8.30679
1312.26 10.1070
1312.36 12.7899
1312.46 16.9270
1312.56 23.9095
1312.61 29.2133
1312.66 36.5494
1312.71 46.9949
1312.76 62.3118
1312.81 85.3031
1312.86 119.776
1312.93 190.009
1313.00 236.006
1313.07 187.798
1313.14 118.044
1313.20 80.8977
1313.25 57.6845
1313.31 42.5368
1313.37 32.6966
1313.48 21.0246
1313.59 14.8554
1313.70 11.1853
1313.81 8.85858
1314.03 6.20593
1314.25 4.80116
1314.47 3.97693
1314.69 3.44879
1314.92 3.09329
1315.36 2.65634
1315.80 2.40900
1316.24 2.25562
1316.69 2.15401
1317.57 2.03204
1318.46 1.96443
1319.35 1.92310
1320.23 1.89601
1322.00 1.86388
1323.78 1.84630
1325.55 1.83570
1327.32 1.82885
1330.86 1.82099
1334.41 1.81707
1341.49 1.81466
1348.58 1.81732
1352.13 1.82152
1355.67 1.82995
1357.44 1.83731
1359.21 1.84874
1360.98 1.86770
1362.76 1.90237
1363.64 1.93158
1364.53 1.97612
1365.41 2.04891
1366.30 2.18000
1366.74 2.28900
1367.19 2.45324
1367.63 2.71742
1368.07 3.18246
1368.29 3.56148
1368.52 4.11749
1368.74 4.98916
1368.85 5.62109
1368.96 6.45110
1369.07 7.59340
1369.18 9.20862
1369.29 11.5933
1369.40 15.2690
1369.51 21.4556
1369.57 26.1509
1369.62 32.6365
1369.68 42.0574
1369.73 55.6484
1369.79 76.0134
1369.84 106.486
1369.92 169.234
1370.00 209.510
1370.08 167.127
1370.16 104.834
1370.24 65.1510
1370.32 42.9740
1370.40 30.1996
1370.47 22.3938
1370.55 17.3457
1370.63 13.9189
1370.79 9.72678
1370.95 7.37202
1371.11 5.92460
1371.42 4.32009
1371.74 3.49456
1372.05 3.01798
1372.37 2.71672
1372.68 2.51547
1373.32 2.27026
1373.95 2.13297
1374.58 2.04834
1375.21 1.99252
1376.47 1.92574
1377.73 1.88890
1379.00 1.86643
1380.26 1.85172
1382.78 1.83424
1385.31 1.82465
1387.83 1.81882
1390.36 1.81502
1395.41 1.81051
1400.46 1.80805
1410.55 1.80569
1420.65 1.80492
1430.75 1.80556
1435.80 1.80718
1438.33 1.80893
1440.85 1.81224
1442.11 1.81508
1443.37 1.81946
1444.64 1.82673
1445.90 1.84006
1446.53 1.85137
1447.16 1.86868
1447.79 1.89720
1448.42 1.94915
1448.74 1.99293
1449.05 2.05948
1449.37 2.16859
1449.69 2.36459
1449.84 2.52820
1450.00 2.77516
1450.16 3.17330
1450.32 3.87051
1450.40 4.44140
1450.47 5.28492
1450.55 6.60583
1450.63 8.84260
1450.67 10.6176
1450.71 13.0737
1450.75 16.8143
1450.79 22.5386
1450.81 26.7979
1450.83 32.4664
1450.85 40.2078
1450.87 50.4534
1450.89 65.9704
1450.91 87.8339
1450.93 122.921
1450.95 173.655
1450.97 277.153
1451.00 341.733
1451.03 272.360
1451.05 169.900
1451.08 110.386
1451.10 75.0396
1451.13 53.6612
1451.15 40.1222
1451.20 24.9106
1451.25 17.1421
1451.29 12.6906
1451.34 9.91712
1451.44 6.81932
1451.53 5.19142
1451.63 4.25053
1451.72 3.64766
1451.82 3.24613
1452.01 2.75123
1452.20 2.47419
1452.39 2.30285
1452.58 2.18956
1452.97 2.05356
1453.35 1.97855
1453.73 1.93264
1454.11 1.90265
1454.88 1.86700
1455.64 1.84746
1456.41 1.83561
1457.17 1.82789
1458.70 1.81874
1460.23 1.81375
1463.29 1.80876
1466.35 1.80643
1469.41 1.80516
1475.53 1.80391
1487.76 1.80312
1500.00 1.80315
1510.23 1.80373
1515.35 1.80439
1520.47 1.80562
1525.58 1.80826
1528.14 1.81087
1530.70 1.81562
1531.98 1.81962
1533.26 1.82574
1534.54 1.83580
1535.82 1.85415
1536.46 1.86964
1537.10 1.89329
1537.74 1.93220
1538.38 2.00272
1538.70 2.06198
1539.02 2.15210
1539.34 2.29895
1539.66 2.56131
1539.82 2.77912
1539.98 3.10612
1540.14 3.62949
1540.30 4.54415
1540.46 6.36227
1540.54 8.03146
1540.58 9.22946
1540.62 10.8054
1540.66 12.9344
1540.70 15.9038
1540.74 20.2099
1540.78 26.7624
1540.82 37.3516
1540.86 55.7872
1540.88 70.3255
1540.90 90.7265
1540.92 119.734
1540.93 158.273
1540.97 251.050
1541.00 312.552
1541.02 293.561
1541.03 248.255
1541.07 156.090
1541.09 106.984
1541.12 76.7378
1541.14 56.4450
1541.17 43.4797
1541.22 27.8248
1541.27 19.5786
1541.32 14.5924
1541.37 11.4772
1541.47 7.85167
1541.57 5.93302
1541.67 4.79900
1541.78 4.07435
1541.88 3.58365
1542.08 2.97906
1542.28 2.63844
1542.48 2.42689
1542.69 2.28662
1543.09 2.11775
1543.49 2.02433
1543.90 1.96719
1544.30 1.92972
1545.11 1.88521
1545.92 1.86089
1546.73 1.84619
1547.54 1.83671
1549.15 1.82575
1550.77 1.82018
1554.01 1.81616
1557.24 1.81804
1558.86 1.82192
1560.47 1.82999
1561.28 1.83712
1562.09 1.84823
1562.90 1.86674
1563.71 1.90066
1564.11 1.92940
1564.52 1.97323
1564.92 2.04508
1565.33 2.17501
1565.53 2.28416
1565.73 2.44870
1565.93 2.71496
1566.14 3.18780
1566.24 3.57556
1566.34 4.15196
1566.44 5.06206
1566.54 6.62161
1566.59 7.87004
1566.64 9.62714
1566.69 12.3290
1566.74 16.5756
1566.77 19.8564
1566.79 24.1301
1566.82 30.0614
1566.84 38.5828
1566.87 51.9605
1566.89 72.2718
1566.92 105.469
1566.94 160.424
1566.97 256.002
1567.00 316.221
1567.03 252.416
1567.06 157.615
1567.09 97.3703
1567.12 63.8080
1567.15 44.5203
1567.17 32.7535
1567.20 25.1524
1567.23 19.9969
1567.29 13.7745
1567.35 10.2052
1567.40 8.04546
1567.52 5.61564
1567.63 4.36843
1567.75 3.64557
1567.86 3.18990
1567.98 2.88441
1568.21 2.51199
1568.44 2.30411
1568.67 2.17589
1568.90 2.09129
1569.36 1.98995
1569.82 1.93413
1570.28 1.90006
1570.74 1.87775
1571.66 1.85125
1572.58 1.83673
1573.50 1.82790
1574.42 1.82213
1576.26 1.81529
1578.11 1.81154
1581.79 1.80777
1585.47 1.80601
1589.15 1.80507
1596.52 1.80423
1611.24 1.80416
1618.61 1.80490
1620.45 1.80544
1622.29 1.80673
1623.21 1.80840
1624.13 1.81294
1624.59 1.81913
1625.05 1.83629
1625.28 1.85951
1625.51 1.92265
1625.63 2.00564
1625.74 2.22074
1625.80 2.48989
1625.86 3.11508
1625.89 3.81644
1625.91 5.24623
1625.93 6.63275
1625.94 8.76742
1625.96 12.4420
1625.97 19.3909
1625.99 30.0350
1626.00 36.9257
1626.01 30.0413
1626.03 19.3957
1626.04 14.7955
1626.05 11.4715
1626.06 7.56488
1626.08 5.55393
1626.10 4.41710
1626.14 3.26721
1626.17 2.73369
1626.24 2.27274
1626.32 2.08544
1626.46 1.93798
1626.60 1.88233
1626.89 1.84063
1627.18 1.82550
1627.76 1.81448
1628.33 1.81060
1629.48 1.80793
1630.64 1.80713
1635.24 1.80724
1639.85 1.80880
1644.46 1.81182
1649.07 1.81816
1651.37 1.82437
1653.68 1.83559
1654.83 1.84499
1655.98 1.85931
1657.13 1.88278
1658.28 1.92533
1658.86 1.96101
1659.44 2.01528
1660.01 2.10374
1660.59 2.26263
1660.88 2.39446
1661.16 2.59274
1661.45 2.91089
1661.74 3.46903
1661.88 3.92116
1662.03 4.58530
1662.17 5.61711
1662.32 7.34477
1662.39 8.68069
1662.46 10.5572
1662.53 13.3040
1662.60 17.5374
1662.68 24.5038
1662.75 36.9656
1662.78 47.0657
1662.82 61.6091
1662.86 82.9599
1662.89 113.178
1662.95 180.854
1663.00 225.778
1663.06 181.120
1663.11 114.411
1663.15 78.2641
1663.20 55.3755
1663.24 40.7992
1663.28 31.3890
1663.37 20.1062
1663.45 14.1967
1663.54 10.6870
1663.62 8.49114
1663.79 5.97543
1663.96 4.64269
1664.13 3.86236
1664.30 3.36190
1664.47 3.02564
1664.82 2.61130
1665.16 2.37776
1665.50 2.23298
1665.84 2.13712
1666.52 2.02203
1667.20 1.95848
1667.89 1.91971
1668.57 1.89448
1669.93 1.86487
1671.30 1.84919
1674.03 1.83541
1676.76 1.83329
1678.12 1.83619
1679.49 1.84370
1680.85 1.86170
1681.54 1.88017
1682.22 1.91407
1682.56 1.94278
1682.90 1.98652
1683.24 2.05813
1683.58 2.18742
1683.76 2.29561
1683.93 2.45933
1684.10 2.72421
1684.27 3.19076
1684.35 3.57736
1684.44 4.14486
1684.52 5.03744
1684.61 6.55867
1684.65 7.77256
1684.69 9.51487
1684.74 12.1385
1684.78 16.2171
1684.80 19.3706
1684.82 23.4258
1684.84 29.0085
1684.86 36.9485
1684.89 49.3613
1684.91 67.7911
1684.93 97.3114
1684.95 146.589
1684.98 234.544
1685.00 292.425
1685.03 235.905
1685.05 147.653
1685.08 92.7783
1685.10 61.9979
1685.12 43.8447
1685.15 32.5622
1685.17 24.9259
1685.20 19.9402
1685.24 13.7718
1685.29 10.2118
1685.34 8.06125
1685.44 5.65102
1685.53 4.39603
1685.63 3.67486
1685.73 3.21474
1685.82 2.90919
1686.02 2.53383
1686.21 2.32441
1686.40 2.19520
1686.60 2.10995
1686.98 2.00790
1687.37 1.95184
1687.76 1.91778
1688.14 1.89562
1688.91 1.86969
1689.69 1.85601
1691.23 1.84370
1692.78 1.84003
1694.32 1.84058
1697.41 1.85092
1698.96 1.86190
1700.50 1.87951
1702.05 1.90903
1703.59 1.96290
1704.37 2.00805
1705.14 2.07630
1705.91 2.18685
1706.68 2.38264
1707.07 2.54340
1707.46 2.78144
1707.84 3.15641
1708.04 3.43045
1708.23 3.79683
1708.42 4.30497
1708.62 5.02923
1708.81 6.11621
1709.00 7.84993
1709.19 10.8474
1709.29 13.2406
1709.39 16.6301
1709.48 21.7276
1709.58 29.5617
1709.68 42.3600
1709.77 63.0749
1709.89 99.9448
1710.00 124.506
1710.11 100.166
1710.23 63.2445
1710.34 40.3480
1710.45 27.3053
1710.55 19.6120
1710.66 14.8307
1710.88 9.55637
1711.09 6.90921
1711.31 5.40357
1711.53 4.47775
1711.96 3.44316
1712.39 2.90923
1712.82 2.59999
1713.26 2.40438
1713.69 2.27347
1714.55 2.11415
1715.42 2.02482
1716.28 1.96986
1717.15 1.93377
1718.88 1.89108
1720.61 1.86825
1722.34 1.85526
1724.07 1.84803
1727.53 1.84530
1729.26 1.85030
1730.99 1.86305
1732.72 1.89362
1733.58 1.92503
1734.45 1.98266
1734.88 2.03127
1735.31 2.10510
1735.75 2.22569
1736.18 2.44130
1736.39 2.62057
1736.61 2.88825
1736.83 3.31569
1737.04 4.06019
1737.15 4.65892
1737.26 5.53219
1737.37 6.87592
1737.42 7.83639
1737.47 9.09537
1737.53 10.7887
1737.58 13.1374
1737.64 16.5195
1737.69 21.6186
1737.74 29.7558
1737.80 43.6752
1737.83 54.4722
1737.85 69.4102
1737.88 90.3205
1737.91 119.391
1737.95 189.927
1738.00 236.931
1738.05 189.895
1738.09 119.364
1738.13 86.7397
1738.16 64.4392
1738.22 38.6751
1738.28 25.6297
1738.34 18.3300
1738.40 13.8909
1738.47 11.0091
1738.59 7.65627
1738.71 5.83360
1738.84 4.74549
1739.08 3.57202
1739.33 2.98254
1739.58 2.64789
1739.83 2.43919
1740.07 2.30039
1740.57 2.13295
1741.06 2.04003
1741.56 1.98333
1742.05 1.94643
1743.04 1.90326
1744.03 1.88089
1746.01 1.86375
1747.99 1.86911
1748.98 1.88262
1749.97 1.91119
1750.46 1.93651
1750.96 1.97592
1751.45 2.04124
1751.95 2.15982
1752.20 2.25946
1752.44 2.40976
1752.69 2.65396
1752.94 3.08544
1753.06 3.44018
1753.19 3.96722
1753.31 4.79865
1753.43 6.20615
1753.49 7.32400
1753.56 8.92532
1753.62 11.3305
1753.68 15.0914
1753.71 17.8993
1753.74 21.6732
1753.77 26.8925
1753.80 34.3562
1753.83 45.4471
1753.87 62.6334
1753.90 90.3043
1753.93 133.460
1753.96 212.375
1754.00 264.678
1754.04 211.839
1754.07 133.038
1754.10 98.3707
1754.12 75.0126
1754.16 46.2271
1754.21 31.0676
1754.25 22.3627
1754.30 16.9749
1754.34 13.4329
1754.43 9.27018
1754.52 6.97145
1754.61 5.58873
1754.79 4.08873
1754.97 3.32880
1755.15 2.89611
1755.33 2.62403
1755.51 2.44373
1755.87 2.22516
1756.23 2.10317
1756.59 2.02820
1756.95 1.97893
1757.66 1.91989
1758.38 1.88729
1759.10 1.86731
1759.82 1.85420
1761.25 1.83849
1762.69 1.82977
1765.56 1.82088
1768.43 1.81668
1771.30 1.81443
1777.04 1.81254
1788.52 1.81344
1794.26 1.81588
1800.00 1.82073
1804.97 1.82933
1807.45 1.83725
1809.93 1.85086
1812.42 1.87821
1813.66 1.90436
1814.90 1.95071
1815.52 1.98906
1816.14 2.04685
1816.76 2.14022
1817.38 2.30608
1817.69 2.44317
1818.00 2.64752
1818.31 2.97291
1818.62 3.53791
1818.78 3.99460
1818.93 4.65583
1819.09 5.67086
1819.24 7.34205
1819.32 8.62281
1819.40 10.3718
1819.48 12.9151
1819.55 16.6835
1819.63 22.7429
1819.71 32.8928
1819.79 51.7135
1819.83 66.9189
1819.86 87.3581
1819.93 139.282
1820.00 175.380
1820.07 142.514
1820.14 89.8828
1820.20 58.8755
1820.26 40.3354
1820.32 29.0947
1820.38 21.9711
1820.50 13.9686
1820.63 9.88503
1820.75 7.54711
1820.87 6.09176
1821.11 4.45617
1821.36 3.60942
1821.60 3.11633
1821.85 2.80476
1822.09 2.59574
1822.58 2.34220
1823.07 2.20102
1824.04 2.06028
1825.02 1.99893
1825.99 1.97173
1827.95 1.96931
1829.90 2.02705
1830.87 2.09499
1831.85 2.22114
1832.83 2.48418
1833.31 2.73524
1833.56 2.92021
1833.80 3.16915
1834.05 3.51508
1834.29 4.01522
1834.53 4.77569
1834.78 6.01073
1834.90 6.93756
1835.02 8.20363
1835.14 9.99126
1835.27 12.6175
1835.39 16.6633
1835.51 23.2498
1835.63 34.5994
1835.75 54.4904
1835.88 86.2809
1836.00 108.017
1836.12 87.4468
1836.25 55.3994
1836.33 40.7677
1836.41 30.6803
1836.57 18.9208
1836.73 12.9162
1836.89 9.53914
1837.05 7.47881
1837.21 6.13835
1837.53 4.57017
1837.85 3.72163
1838.17 3.21448
1838.81 2.66653
1839.45 2.39271
1840.09 2.23776
1841.36 2.07971
1842.64 2.00770
1843.92 1.97269
1846.48 1.95613
1849.04 1.99254
1850.32 2.04084
1851.59 2.13186
1852.87 2.32223
1853.51 2.50414
1853.83 2.63833
1854.15 2.81859
1854.47 3.07045
1854.79 3.43619
1855.11 3.99605
1855.43 4.91103
1855.59 5.60650
1855.75 6.56598
1855.91 7.93829
1856.07 9.97351
1856.23 13.1985
1856.39 18.6223
1856.55 28.4118
1856.63 36.1948
1856.71 46.6881
1856.85 73.6329
1857.00 92.3678
1857.15 74.8760
1857.29 47.6619
1857.43 31.1670
1857.56 21.5219
1857.69 15.6971
1857.83 12.0652
1858.09 8.00174
1858.36 5.95254
1858.63 4.78257
1858.89 4.06221
1859.43 3.26202
1859.96 2.86192
1860.49 2.64510
1861.56 2.47585
1862.63 2.53059
1863.16 2.66086
1863.69 2.92381
1863.96 3.14713
1864.22 3.47967
1864.49 4.00476
1864.62 4.38519
1864.76 4.89062
1864.89 5.58778
1865.02 6.56919
1865.16 8.02226
1865.29 10.2982
1865.42 14.1714
1865.49 17.1799
1865.56 21.3246
1865.62 27.4041
1865.69 36.3501
1865.76 50.3138
1865.82 71.5076
1865.91 113.065
1866.00 140.334
1866.09 112.765
1866.18 71.2947
1866.24 52.5810
1866.29 39.6508
1866.41 24.6128
1866.52 16.8166
1866.63 12.4609
1866.75 9.78216
1866.86 8.06348
1867.09 6.07710
1867.31 5.05428
1867.54 4.51256
1867.99 4.18481
1868.44 4.62181
1868.67 5.24416
1868.78 5.72487
1868.90 6.37722
1868.95 6.79374
1869.01 7.28601
1869.07 7.87170
1869.12 8.56045
1869.18 9.40708
1869.24 10.4216
1869.29 11.6956
1869.35 13.2597
1869.41 15.2786
1869.46 17.8864
1869.52 21.3169
1869.58 25.8255
1869.63 32.0881
1869.69 40.6276
1869.75 52.8037
1869.80 69.3308
1869.90 108.367
1870.00 128.336
1870.10 98.4111
1870.20 61.5104
1870.28 41.6004
1870.36 29.4109
1870.45 21.8068
1870.53 16.9145
1870.70 11.1849
1870.86 8.19097
1871.03 6.42844
1871.19 5.31950
1871.52 4.04453
1871.85 3.36902
1872.18 2.96731
1872.85 2.53123
1873.51 2.30911
1874.17 2.17953
1875.49 2.04002
1876.82 1.96894
1878.14 1.92717
1880.79 1.88163
1883.43 1.85809
1886.08 1.84412
1891.37 1.82879
1896.67 1.82091
1901.96 1.81633
1912.54 1.81170
1923.13 1.81025
1928.42 1.81054
1933.72 1.81192
1939.01 1.81563
1941.66 1.81955
1944.30 1.82684
1946.95 1.84252
1948.27 1.85813
1949.60 1.88653
1950.26 1.91043
1950.92 1.94686
1951.58 2.00640
1952.24 2.11349
1952.57 2.20273
1952.91 2.33737
1953.24 2.55433
1953.57 2.93572
1953.73 3.24830
1953.90 3.70726
1954.06 4.43031
1954.15 4.95630
1954.23 5.64684
1954.31 6.60325
1954.39 7.96204
1954.48 9.98065
1954.56 13.1063
1954.64 18.4423
1954.68 22.5242
1954.72 28.2163
1954.77 36.6476
1954.81 48.9425
1954.85 67.7285
1954.89 96.4629
1954.95 153.253
1955.00 189.462
1955.06 151.149
1955.11 94.8155
1955.15 68.8923
1955.19 51.2268
1955.26 30.8658
1955.33 20.5735
1955.41 14.8779
1955.48 11.3575
1955.55 9.09946
1955.70 6.43062
1955.85 4.98471
1956.00 4.12702
1956.29 3.19726
1956.59 2.73039
1956.88 2.46509
1957.17 2.29916
1957.47 2.18922
1958.06 2.05651
1958.65 1.98271
1959.24 1.93752
1959.82 1.90792
1961.00 1.87275
1962.18 1.85358
1964.53 1.83478
1966.89 1.82666
1969.25 1.82304
1973.96 1.82260
1978.67 1.83019
1981.02 1.83941
1983.38 1.85699
1984.56 1.87204
1985.73 1.89513
1986.91 1.93303
1988.09 2.00141
1988.68 2.05842
1989.27 2.14444
1989.86 2.28302
1990.44 2.52692
1990.74 2.72617
1991.03 3.01930
1991.33 3.47939
1991.48 3.81228
1991.62 4.25444
1991.77 4.86377
1991.92 5.72197
1992.06 6.99209
1992.21 8.97910
1992.36 12.3191
1992.43 14.9165
1992.51 18.4867
1992.58 23.6900
1992.65 31.3061
1992.73 43.0702
1992.80 60.7535
1992.90 96.0281
1993.00 118.558
1993.10 94.5759
1993.20 59.6161
1993.31 36.4078
1993.42 23.9498
1993.52 16.9203
1993.63 12.6861
1993.73 9.95479
1993.84 8.13480
1994.05 5.92384
1994.27 4.68579
1994.48 3.93248
1994.90 3.09734
1995.33 2.67139
1995.75 2.42552
1996.18 2.27097
1996.60 2.16776
1997.45 2.04226
1998.30 1.97198
1999.15 1.92870
2000.00 1.90019
2001.12 1.87529
2002.25 1.85889
2004.49 1.83928
2006.74 1.82844
2008.99 1.82182
2013.48 1.81448
2017.97 1.81070
2026.96 1.80714
2035.94 1.80562
2053.92 1.80462
2071.89 1.80484
2089.86 1.80618
2098.85 1.80760
2107.83 1.81006
2116.82 1.81487
2121.31 1.81926
2125.80 1.82668
2130.30 1.84124
2132.54 1.85482
2134.79 1.87841
2137.04 1.92628
2138.16 1.97210
2139.28 2.05301
2139.84 2.11945
2140.40 2.21844
2140.97 2.37639
2141.53 2.65076
2141.81 2.87199
2142.09 3.19535
2142.37 3.69468
2142.65 4.52027
2142.79 5.15809
2142.93 6.04136
2143.07 7.33198
2143.21 9.28338
2143.35 12.4655
2143.49 17.9843
2143.56 22.3488
2143.63 28.4971
2143.70 37.2977
2143.77 49.8547
2143.89 79.0167
2144.00 99.6661
2144.11 81.3709
2144.23 51.6941
2144.33 33.4627
2144.44 22.8383
2144.55 16.5339
2144.65 12.6321
2144.86 8.26885
2145.07 6.08439
2145.29 4.83904
2145.50 4.07259
2145.92 3.21617
2146.34 2.77530
2146.77 2.52100
2147.61 2.25776
2148.46 2.13568
2149.30 2.07508
2150.99 2.04227
2152.68 2.09439
2153.53 2.16719
2154.37 2.30558
2154.80 2.42148
2155.22 2.59474
2155.64 2.86872
2155.85 3.06872
2156.06 3.33612
2156.28 3.70668
2156.49 4.23478
2156.70 5.02690
2156.91 6.28950
2157.12 8.48484
2157.23 10.2305
2157.33 12.7056
2157.44 16.4255
2157.54 22.1512
2157.65 31.5081
2157.75 46.7025
2157.88 73.7285
2158.00 92.1673
2158.12 74.6684
2158.25 47.4391
2158.38 28.9696
2158.51 19.0520
2158.65 13.5245
2158.78 10.2470
2158.91 8.14582
2159.05 6.73933
2159.31 5.04916
2159.58 4.11127
2159.84 3.54521
2160.37 2.92946
2160.90 2.63014
2161.43 2.47459
2162.50 2.37650
2163.56 2.48241
2164.09 2.64431
2164.62 2.95425
2164.89 3.21193
2165.15 3.59011
2165.28 3.84947
2165.42 4.17620
2165.55 4.59492
2165.68 5.13777
2165.82 5.86959
2165.95 6.87828
2166.08 8.31753
2166.21 10.4395
2166.35 13.7811
2166.48 19.2796
2166.55 23.4812
2166.61 29.0547
2166.68 36.5873
2166.74 46.6518
2166.87 73.1099
2167.00 88.7164
2167.13 69.7752
2167.26 44.0376
2167.39 27.9504
2167.51 18.9178
2167.64 13.6813
2167.77 10.4634
2167.90 8.37276
2168.03 6.94821
2168.28 5.19800
2168.54 4.21005
2168.79 3.60030
2169.31 2.92034
2169.82 2.56854
2170.33 2.36374
2171.35 2.14555
2172.38 2.03724
2173.40 1.97541
2175.44 1.91044
2177.49 1.87845
2179.54 1.86031
2183.63 1.84183
2187.72 1.83390
2191.81 1.83120
2195.91 1.83239
2200.00 1.83817
2200.00 3.50303
2500.00 3.13919
3000.00 2.71920
3500.00 2.41068
4000.00 2.17367
5000.00 1.80018
6000.00 1.55790
7000.00 1.39237
7200.00 1.36808
8000.00 1.27093
8500.00 1.21466
9000.00 1.15838
9500.00 1.11836
10000.0 1.08637
12000.0 0.958429
12500.0 0.930374
13000.0 0.902319
14000.0 0.853160
15000.0 0.821876
17000.0 0.770344
20000.0 0.711906
22000.0 0.681247
25000.0 0.639117
30000.0 0.582938
35000.0 0.544172
40000.0 0.506178
45000.0 0.483656
46736.3 0.467584
50000.0 0.437374
55000.0 0.401037
60000.0 0.373364
65000.0 0.351324
70000.0 0.332545
80000.0 0.302360
90000.0 0.287090
95000.0 0.280928
99626.3 0.270731
120000 0.225826
130000 0.213862
140000 0.205430
150000 0.196994
160000 0.189875
170000 0.183174
180000 0.177272
190000 0.172221
200000 0.167877
208151 0.161494
209961 0.160077
220000 0.152216
250000 0.132252
270000 0.124146
293328 0.117378
300000 0.115443
310653 0.111884
311196 0.111702
320000 0.108761
350000 0.101244
400000 0.0929721
414362 0.0913063
420000 0.0906524
450000 0.0864770
455568 0.0861482
478021 0.0848223
489685 0.0841335
500000 0.0835244
520000 0.0821827
550000 0.0809847
600000 0.0783849
700000 0.0759025
750000 0.0764448
850000 0.0766816
1.10000E+06 0.0795991
1.30000E+06 0.0793382
1.40000E+06 0.0765388
1.50000E+06 0.0722464
1.60000E+06 0.0649848
1.70000E+06 0.0602210
1.80000E+06 0.0561790
1.90000E+06 0.0504545
2.00000E+06 0.0468758
2.10000E+06 0.0425236
2.20000E+06 0.0397326
2.30000E+06 0.0357845
2.50000E+06 0.0309773
2.75000E+06 0.0258584
3.00000E+06 0.0215024
3.50000E+06 0.0151282
4.00000E+06 0.0108065
4.50000E+06 0.00757706
5.00000E+06 0.00526280
5.50000E+06 0.00369917
6.00000E+06 0.00274925
6.22513E+06 0.00243468
6.50000E+06 0.00205063
7.00000E+06 0.00145359
8.00000E+06 0.000893040
8.20000E+06 0.000889433
8.40000E+06 0.000890041
8.60000E+06 0.000894392
9.00000E+06 0.000923690
9.30000E+06 0.000957611
9.60000E+06 0.000995830
1.00000E+07 0.00104984
1.05000E+07 0.00138934
1.10000E+07 0.00171435
1.15000E+07 0.00200517
1.20000E+07 0.00225038
1.25000E+07 0.00246012
1.30000E+07 0.00233006
1.35000E+07 0.00213025
1.40000E+07 0.00192736
1.43336E+07 0.00178182
1.45000E+07 0.00170922
1.50000E+07 0.00148016
1.55000E+07 0.00125847
1.60000E+07 0.00107715
1.70000E+07 0.000787426
1.80000E+07 0.000598246
1.90000E+07 0.000465281
2.00000E+07 0.000370669
2.10514E+07 0.000299264
2.20000E+07 0.000234845
2.40000E+07 0.000154677
2.80000E+07 7.88495E-05
3.00000E+07 5.89239E-05
3.20000E+07 4.47311E-05
3.40000E+07 3.47533E-05
3.80000E+07 2.13009E-05
4.20000E+07 1.29975E-05
4.60000E+07 8.25285E-06
4.80000E+07 6.60560E-06
5.50000E+07 2.97101E-06
6.00000E+07 1.64235E-06
6.04359E+07 1.60695E-06
6.28533E+07 1.41061E-06
6.53675E+07 1.20641E-06
6.79822E+07 9.94047E-07
7.00000E+07 8.30164E-07
7.07015E+07 8.08162E-07
7.35295E+07 7.19463E-07
7.64707E+07 6.27213E-07
7.95295E+07 5.31275E-07
8.00000E+07 5.16518E-07
8.27107E+07 4.52943E-07
8.60191E+07 3.75349E-07
8.94599E+07 2.94650E-07
9.00000E+07 2.81983E-07
9.30383E+07 2.44781E-07
9.67598E+07 1.99214E-07
1.00000E+08 1.59540E-07
1.00630E+08 1.55963E-07
1.04655E+08 1.33107E-07
1.08842E+08 1.09332E-07
1.13195E+08 8.46144E-08
1.15000E+08 7.43650E-08
1.17723E+08 6.82989E-08
1.22432E+08 5.78086E-08
1.27329E+08 4.68995E-08
1.30000E+08 4.09493E-08
1.32422E+08 3.80048E-08
1.37719E+08 3.15649E-08
1.43228E+08 2.48674E-08
1.48957E+08 1.79023E-08
1.50000E+08 1.66343E-08