W-184(n,tot) ENDF/B-VII.1
Energy(eV) XS(b)
1.00000E-05 82.8700
1.25000E-05 74.8975
1.50000E-05 69.0124
2.00000E-05 60.7517
2.75000E-05 52.8916
3.50000E-05 47.7188
4.25000E-05 43.9844
5.00000E-05 41.1255
6.25000E-05 37.5601
7.50000E-05 34.9282
0.000100000 31.2339
0.000125000 28.7128
0.000150000 26.8518
0.000200000 24.2395
0.000275000 21.7539
0.000350000 20.1181
0.000425000 18.9372
0.000500000 18.0331
0.000625000 16.9056
0.000750000 16.0734
0.00100000 14.9051
0.00125000 14.1079
0.00150000 13.5194
0.00200000 12.6933
0.00275000 11.9073
0.00350000 11.3899
0.00425000 11.0165
0.00500000 10.7306
0.00625000 10.3740
0.00750000 10.1108
0.0100000 9.74129
0.0125000 9.48912
0.0150000 9.30295
0.0200000 9.04159
0.0253000 8.85420
0.0314750 8.69873
0.0376500 8.58324
0.0500000 8.42015
0.0625000 8.30707
0.0750000 8.22350
0.100000 8.10599
0.125000 8.02559
0.150000 7.96605
0.200000 7.88207
0.275000 7.80140
0.350000 7.74760
0.500000 7.67751
0.750000 7.60860
1.00000 7.56471
1.50000 7.50696
2.00000 7.46691
2.75000 7.42113
3.50000 7.38383
5.00000 7.32108
7.50000 7.23156
10.0000 7.14985
15.0000 6.99549
20.0000 6.84592
27.5000 6.62386
35.0000 6.40072
50.0000 5.94104
75.0000 5.08867
87.5000 4.57895
90.6250 4.43236
93.7500 4.26985
95.3125 4.17876
96.8750 4.07731
97.6563 4.02189
98.4375 3.96471
99.2188 3.91470
99.6094 3.90383
100.000 3.92486
100.209 3.96681
100.418 4.05499
100.626 4.23684
100.835 4.63005
100.939 4.99514
101.044 5.58500
101.148 6.60064
101.252 8.50728
101.305 10.1319
101.357 12.6089
101.409 16.6160
101.461 23.6263
101.513 37.4523
101.526 43.0108
101.539 49.9035
101.552 58.7241
101.559 64.0094
101.565 70.0470
101.572 77.0968
101.579 85.1286
101.585 94.4700
101.592 105.410
101.598 118.536
101.605 133.936
101.618 174.824
101.631 236.780
101.644 333.393
101.650 402.429
101.657 491.417
101.663 606.370
101.670 753.508
101.685 1220.07
101.700 1541.27
101.708 1459.40
101.715 1247.64
101.730 791.805
101.747 476.870
101.763 306.932
101.780 211.666
101.796 154.476
101.812 117.898
101.829 93.2297
101.862 63.1764
101.894 46.2983
101.927 35.8834
101.993 24.2165
102.058 18.1241
102.124 14.5296
102.189 12.2197
102.255 10.6419
102.386 8.66480
102.517 7.50919
102.648 6.76649
102.779 6.25593
103.042 5.60873
103.304 5.22090
103.566 4.96429
103.829 4.78209
104.353 4.53876
104.878 4.38075
105.927 4.17808
106.976 4.04284
108.025 3.93765
110.123 3.76740
114.319 3.48174
118.516 3.21122
126.908 2.64757
135.301 2.02156
143.694 1.33018
152.086 0.652126
154.184 0.518505
156.282 0.422242
157.332 0.394914
157.856 0.388064
158.381 0.386527
158.905 0.390975
159.430 0.402163
159.954 0.420949
160.479 0.448304
161.003 0.485344
161.528 0.533315
162.052 0.593678
162.577 0.668062
163.626 0.866874
164.675 1.14898
165.724 1.54132
166.773 2.08541
167.822 2.88277
168.347 3.60226
168.478 3.97078
168.609 4.71267
168.675 5.52369
168.708 6.22456
168.740 7.34099
168.773 9.32228
168.789 10.9508
168.806 13.3775
168.822 17.2063
168.839 23.6809
168.855 35.5044
168.871 57.9441
168.886 89.5219
168.900 109.473
168.914 87.1036
168.929 55.2244
168.943 34.9542
168.957 23.8037
168.972 17.3927
168.986 13.5398
169.015 9.39842
169.044 7.39753
169.072 6.30490
169.101 5.65617
169.158 4.98078
169.273 4.53996
169.388 4.47044
169.847 4.88181
170.765 6.32351
172.602 10.8559
174.439 19.1490
175.357 25.8717
176.275 35.5439
177.194 49.9336
178.112 72.2769
179.030 109.001
179.949 174.239
180.408 227.030
180.867 303.836
181.326 420.783
181.785 609.494
182.245 938.434
182.704 1573.66
182.933 2127.15
183.163 2978.72
183.393 4334.76
183.622 6510.88
183.911 10642.8
184.200 13581.3
184.490 11089.8
184.779 7076.49
185.017 4814.95
185.255 3392.71
185.493 2490.73
185.730 1898.33
186.206 1205.77
186.682 836.753
187.157 618.183
187.633 478.263
188.584 315.551
189.536 227.652
190.487 174.474
191.438 139.650
192.390 115.474
194.292 84.7189
196.195 66.4010
198.097 54.4693
200.000 46.1830
202.623 38.2711
205.246 32.8031
210.493 25.8144
215.739 21.5786
220.985 18.7506
226.232 16.7268
231.478 15.1947
236.724 13.9522
238.036 13.6566
239.347 13.3421
240.003 13.1641
240.331 13.0656
240.659 12.9596
240.987 12.8539
241.151 12.8146
241.315 12.8147
241.397 12.8524
241.479 12.9466
241.561 13.1551
241.643 13.6176
241.725 14.7350
241.766 15.8911
241.807 17.9704
241.848 22.1340
241.868 25.8800
241.889 31.8741
241.909 42.1433
241.930 61.3682
241.940 77.6352
241.950 101.549
241.960 137.831
241.971 192.940
241.978 247.656
241.985 311.641
242.000 398.724
242.015 332.027
242.030 218.913
242.046 136.480
242.063 92.7382
242.080 68.2137
242.097 53.5941
242.113 44.1619
242.130 37.8094
242.164 29.9724
242.197 25.5048
242.231 22.7027
242.298 19.4848
242.365 17.7494
242.432 16.6904
242.499 15.9871
242.566 15.4902
242.700 14.8400
242.834 14.4350
242.968 14.1583
243.102 13.9560
243.370 13.6761
243.638 13.4864
244.174 13.2314
244.710 13.0537
245.246 12.9128
246.318 12.6848
248.462 12.3223
250.606 12.0151
259.181 11.0199
276.333 9.52778
284.909 8.85713
289.197 8.49735
293.485 8.08550
297.773 7.55860
299.917 7.20905
302.061 6.75088
303.133 6.45689
304.205 6.09739
305.277 5.64521
306.349 5.06141
306.885 4.70641
307.421 4.30777
307.957 3.88589
308.493 3.53658
308.761 3.48676
309.029 3.66917
309.297 4.38345
309.364 4.71641
309.431 5.14513
309.498 5.69621
309.565 6.40514
309.632 7.31993
309.665 7.87425
309.699 8.50662
309.766 10.0577
309.833 12.1053
309.900 14.8426
309.967 18.5603
310.034 23.7093
310.101 31.0161
310.168 41.7060
310.235 57.9622
310.302 83.9540
310.369 128.380
310.402 163.003
310.436 211.634
310.469 282.369
310.503 389.721
310.536 561.317
310.570 853.129
310.603 1383.67
310.637 2382.29
310.668 3936.72
310.700 5069.27
310.732 4177.40
310.764 2694.93
310.791 1816.21
310.818 1274.20
310.846 933.929
310.873 713.277
310.928 456.842
310.982 320.870
311.037 240.412
311.092 188.812
311.201 128.589
311.310 95.7545
311.420 75.7286
311.529 62.4821
311.638 53.2120
311.857 41.2687
312.076 34.0410
312.295 29.2652
312.513 25.9055
312.951 21.5340
313.388 18.8431
313.826 17.0322
314.263 15.7351
315.138 14.0055
316.013 12.9060
316.888 12.1439
317.762 11.5829
319.512 10.8064
321.262 10.2876
324.761 9.61973
328.261 9.19006
331.760 8.87686
338.759 8.42434
352.756 7.81534
366.754 7.36192
380.751 6.96708
394.749 6.57091
401.748 6.33903
405.247 6.19895
408.747 6.02622
412.246 5.79015
413.996 5.62722
415.745 5.40930
416.620 5.26804
417.495 5.09473
418.370 4.87692
419.245 4.59818
419.682 4.43145
420.120 4.24885
420.557 4.06619
420.994 3.94490
421.213 3.96603
421.432 4.12843
421.651 4.60288
421.869 5.82431
421.979 7.04846
422.033 7.93902
422.088 9.10180
422.115 9.81952
422.143 10.6459
422.170 11.6084
422.197 12.7265
422.225 14.0416
422.252 15.5860
422.279 17.4173
422.307 19.6040
422.334 22.2465
422.361 25.4444
422.389 29.3819
422.416 34.2491
422.443 40.3881
422.471 48.1882
422.498 58.3003
422.525 71.6701
422.553 89.8371
422.580 115.022
422.607 151.369
422.635 205.528
422.662 290.766
422.689 431.449
422.717 677.879
422.744 1122.14
422.772 1852.82
422.800 2391.89
422.828 1976.80
422.856 1276.19
422.875 935.423
422.894 701.726
422.913 540.465
422.931 428.225
422.969 287.729
423.007 208.023
423.044 158.581
423.082 125.938
423.157 86.8415
423.233 65.0358
423.308 51.5796
423.383 42.6246
423.459 36.3283
423.609 28.1998
423.760 23.2840
423.911 20.0444
424.061 17.7747
424.363 14.8366
424.664 13.0428
424.966 11.8448
425.267 10.9933
425.870 9.86910
426.472 9.16353
427.075 8.68034
427.678 8.32862
428.883 7.84929
430.088 7.53570
431.294 7.31228
432.499 7.14325
434.910 6.89987
437.321 6.72801
442.142 6.48834
446.964 6.31659
451.785 6.17841
461.428 5.95247
480.714 5.58584
500.000 5.26144
545.209 4.52545
567.813 4.12996
590.418 3.68387
613.022 3.14071
624.324 2.80383
635.626 2.39149
646.929 1.85449
652.580 1.51326
658.231 1.10657
661.056 0.879290
663.882 0.647098
666.707 0.444579
668.120 0.383094
668.827 0.373055
669.533 0.384215
670.239 0.424951
670.946 0.507193
671.299 0.569005
671.652 0.648237
672.005 0.748369
672.359 0.873675
673.065 1.22229
673.771 1.75453
674.478 2.56789
675.184 3.82592
675.890 5.81824
676.597 9.08883
677.303 14.7476
678.010 25.3142
678.363 34.1832
678.716 47.4526
679.069 68.3008
679.422 103.230
679.776 167.091
679.952 220.163
680.129 299.116
680.305 422.160
680.482 624.557
680.659 976.580
680.835 1606.45
681.018 2652.40
681.200 3446.04
681.383 2864.41
681.565 1845.24
681.738 1193.55
681.910 809.485
682.083 579.175
682.256 433.977
682.429 337.652
682.601 270.825
682.947 186.880
683.292 138.127
683.637 107.269
684.328 71.6803
685.019 52.5206
685.710 40.9132
686.400 33.2805
687.091 27.9520
688.472 21.1089
689.854 16.9728
691.235 14.2353
692.617 12.3016
695.380 9.75581
698.143 8.13239
699.524 7.49903
700.905 6.91602
701.596 6.61821
701.942 6.45955
702.287 6.29000
702.632 6.11082
702.805 6.02664
702.978 5.97082
703.150 6.02503
703.237 6.17913
703.323 6.56785
703.409 7.57508
703.453 8.65089
703.496 10.6190
703.539 14.6122
703.561 18.2306
703.582 24.0078
703.604 33.9601
703.614 41.7224
703.625 52.5883
703.631 59.6717
703.636 68.2285
703.641 78.6387
703.647 91.3871
703.652 107.083
703.658 126.467
703.663 150.382
703.668 179.052
703.676 232.910
703.684 295.446
703.700 382.772
703.708 367.636
703.716 319.609
703.732 210.147
703.742 159.656
703.751 123.996
703.771 80.5179
703.791 57.1246
703.810 43.4018
703.830 34.7251
703.849 28.8984
703.889 21.7864
703.928 17.7417
703.967 15.2135
704.046 12.3006
704.124 10.7158
704.202 9.74068
704.281 9.08532
704.359 8.61778
704.516 7.99498
704.673 7.59760
704.987 7.11053
705.301 6.81162
705.615 6.59976
706.242 6.29965
707.497 5.90017
708.753 5.60600
713.773 4.77792
723.815 3.70110
733.856 2.89704
743.898 2.17703
753.939 1.46189
763.981 0.737612
769.001 0.413908
771.512 0.290727
772.767 0.247751
774.022 0.223118
774.650 0.219646
775.277 0.223424
775.591 0.228419
775.905 0.235723
776.533 0.258087
777.160 0.292424
777.788 0.341138
778.415 0.407331
779.043 0.495149
779.670 0.610481
780.298 0.762183
780.926 0.965110
781.553 1.24801
782.181 1.67972
782.495 2.00685
782.808 2.49032
783.122 3.31804
783.279 4.02094
783.436 5.15982
783.593 7.29424
783.671 9.20755
783.750 12.3795
783.828 18.3533
783.868 23.6007
783.907 32.0156
783.946 46.8314
783.966 58.8862
783.985 76.6388
784.005 104.181
784.024 149.655
784.044 229.953
784.064 377.281
784.082 593.569
784.100 734.720
784.118 582.103
784.137 358.214
784.151 242.169
784.164 169.051
784.178 122.366
784.192 91.6353
784.206 70.5536
784.220 55.8119
784.234 45.1011
784.248 37.1150
784.276 26.2604
784.304 19.5217
784.331 15.0740
784.359 12.0058
784.387 9.80663
784.415 8.19631
784.443 6.98407
784.471 6.05353
784.526 4.75116
784.582 3.92036
784.693 2.99319
784.805 2.55432
785.027 2.25731
785.250 2.26186
785.472 2.38234
785.918 2.76964
786.808 3.83431
787.699 5.24959
788.590 7.13304
789.480 9.68611
790.371 13.2212
791.261 18.2381
792.152 25.5745
793.043 36.7122
793.933 54.4553
794.824 84.5810
795.714 140.381
796.160 187.186
796.605 257.288
797.050 367.321
797.496 549.726
797.941 869.740
798.386 1448.08
798.843 2408.53
799.300 3144.85
799.757 2627.50
800.214 1704.65
800.519 1254.79
800.825 942.728
801.130 727.621
801.436 576.653
802.046 387.564
802.657 279.653
803.268 212.713
803.878 168.399
805.100 115.083
806.321 85.2566
807.543 66.7537
809.986 45.6749
812.428 34.3638
814.871 27.4707
817.314 22.8915
819.757 19.6545
824.643 15.4119
829.528 12.7661
834.414 10.9558
839.300 9.63134
849.071 7.79297
858.843 6.53343
878.386 4.76404
897.928 3.34472
907.700 2.63586
917.471 1.87491
927.243 1.04317
932.129 0.631261
934.571 0.453788
937.014 0.327511
938.236 0.298833
938.846 0.297357
939.457 0.306759
939.763 0.316208
940.068 0.329228
940.679 0.367430
941.289 0.424631
941.900 0.504857
942.511 0.613119
943.121 0.755612
943.732 0.940191
944.343 1.17680
945.564 1.86074
946.786 2.96255
948.007 4.75604
949.229 7.75380
950.450 12.9951
951.061 17.0924
951.671 22.8141
952.282 31.0338
952.893 43.2611
953.504 62.2866
954.114 93.6649
954.725 149.587
955.030 194.832
955.336 260.331
955.641 358.817
955.946 512.983
956.252 763.907
956.557 1177.63
956.929 1960.46
957.300 2568.11
957.672 2151.81
958.044 1396.35
958.360 948.751
958.675 668.679
958.991 492.222
959.306 376.772
959.937 242.173
960.568 170.418
961.199 127.765
961.830 100.312
963.092 68.0919
964.355 50.4304
965.617 39.5802
966.879 32.3624
968.141 27.2712
970.665 20.6403
973.189 16.5517
975.713 13.7858
978.237 11.7809
983.286 9.00390
988.334 7.00538
990.858 6.07340
992.120 5.57202
993.382 5.00673
994.644 4.31794
995.275 3.89674
995.906 3.40588
996.222 3.13626
996.538 2.86543
996.853 2.63694
997.169 2.58807
997.326 2.75002
997.484 3.20045
997.563 3.61843
997.642 4.24690
997.721 5.19276
997.800 6.62964
997.839 7.62210
997.878 8.86366
997.918 10.4380
997.957 12.4445
997.997 15.0456
998.036 18.4488
998.076 22.9871
998.115 29.1624
998.155 37.7972
998.194 50.1689
998.233 68.6422
998.273 97.3405
998.312 144.725
998.352 228.073
998.371 294.081
998.391 386.755
998.411 518.503
998.431 704.972
998.465 1184.05
998.500 1553.87
998.535 1304.82
998.570 855.059
998.592 640.824
998.614 489.498
998.659 308.150
998.704 212.011
998.748 156.113
998.793 120.952
998.838 97.4101
998.927 68.7288
999.017 52.4568
999.106 42.2465
999.285 30.4640
999.464 24.0469
999.642 20.0891
999.821 17.4342
1000.00 15.5419
1000.33 13.1909
1000.66 11.6677
1001.32 9.81125
1001.98 8.70783
1002.64 7.96595
1003.96 6.99942
1005.28 6.36770
1007.91 5.52293
1010.55 4.92750
1015.83 4.03612
1021.10 3.32273
1031.65 2.11140
1042.20 1.05053
1047.48 0.599204
1050.11 0.415567
1052.75 0.279965
1054.07 0.237820
1055.39 0.218614
1056.71 0.228246
1057.37 0.246152
1058.03 0.274261
1058.69 0.313946
1059.34 0.366581
1060.00 0.434044
1060.66 0.518102
1061.98 0.745909
1063.30 1.07258
1064.62 1.52960
1065.94 2.15944
1067.26 3.02178
1068.58 4.20077
1069.89 5.82224
1071.21 8.07105
1072.53 11.2331
1073.85 15.7603
1075.17 22.4167
1076.49 32.5239
1077.81 48.5437
1079.13 75.3925
1080.44 124.045
1081.10 163.877
1081.76 221.927
1082.42 310.030
1083.08 448.951
1083.74 676.953
1084.40 1056.43
1085.20 1779.12
1086.00 2345.35
1086.80 1974.04
1087.60 1291.25
1088.29 878.646
1088.98 621.111
1089.67 459.101
1090.36 353.231
1091.74 229.453
1093.13 163.145
1094.51 123.485
1095.89 97.8132
1098.65 67.3858
1101.41 50.4390
1104.18 39.8378
1106.94 32.6167
1109.70 27.3629
1115.23 19.9989
1120.75 14.3924
1123.51 11.5077
1124.89 9.85353
1126.28 7.92579
1127.66 5.59739
1128.35 4.28984
1129.04 3.05066
1129.38 2.62001
1129.56 2.52608
1129.73 2.56995
1129.90 2.82362
1129.99 3.06036
1130.07 3.39473
1130.16 3.85709
1130.25 4.46828
1130.33 5.27322
1130.42 6.32471
1130.51 7.71071
1130.59 9.49397
1130.68 11.8467
1130.77 14.8927
1130.85 18.9570
1130.94 24.3052
1131.02 31.4996
1131.11 41.3239
1131.20 55.1771
1131.28 74.6993
1131.37 103.248
1131.46 146.390
1131.54 215.168
1131.63 327.116
1131.71 518.944
1131.80 852.747
1131.90 1477.43
1132.00 1968.52
1132.10 1676.47
1132.20 1127.33
1132.26 866.806
1132.33 678.552
1132.45 447.032
1132.58 319.471
1132.70 243.003
1132.83 193.687
1132.95 159.959
1133.20 117.808
1133.45 93.0775
1133.70 77.2323
1134.20 58.3705
1134.70 47.6910
1135.20 40.9098
1135.70 36.2253
1136.20 32.8104
1137.21 28.1434
1138.21 25.0889
1140.21 21.2753
1142.21 18.9244
1144.21 17.2833
1148.21 15.0555
1152.22 13.5389
1156.22 12.3929
1164.23 10.6948
1180.24 8.39361
1196.26 6.67165
1212.27 5.07707
1220.28 4.22098
1228.28 3.25269
1236.29 2.09665
1240.29 1.43341
1244.30 0.756923
1246.30 0.469961
1247.30 0.366303
1247.80 0.331205
1248.30 0.311261
1248.80 0.310291
1249.05 0.318415
1249.30 0.333216
1249.80 0.386396
1250.30 0.477633
1250.80 0.617678
1251.30 0.819484
1251.80 1.10105
1252.30 1.48608
1252.81 2.00774
1253.31 2.70787
1253.81 3.65059
1254.31 4.91892
1254.81 6.64408
1255.31 9.00614
1255.81 12.2933
1256.31 16.9561
1256.81 23.7512
1257.31 33.9295
1257.81 49.8710
1258.31 76.0820
1258.81 122.469
1259.06 159.427
1259.31 212.133
1259.56 289.662
1259.81 407.485
1260.06 591.673
1260.31 881.386
1260.66 1496.26
1261.00 1985.46
1261.35 1676.97
1261.69 1100.58
1261.98 761.890
1262.26 547.007
1262.55 409.386
1262.84 318.076
1263.41 209.759
1263.98 151.048
1264.55 115.572
1265.13 92.4879
1266.27 64.9554
1267.42 49.5852
1268.56 39.9961
1269.71 33.5319
1270.85 28.9192
1273.14 22.8289
1275.43 19.0174
1277.72 16.4154
1280.01 14.5249
1284.59 11.9430
1289.17 10.2356
1298.33 8.02475
1307.49 6.54184
1316.65 5.36698
1325.80 4.29545
1328.09 4.01342
1330.38 3.69639
1331.53 3.50493
1332.10 3.39163
1332.67 3.25876
1333.25 3.09539
1333.53 2.99939
1333.82 2.89731
1333.96 2.85011
1334.11 2.81642
1334.25 2.82010
1334.39 2.92606
1334.46 3.07047
1334.53 3.33980
1334.61 3.86378
1334.68 4.90689
1334.75 7.26823
1334.79 9.58774
1334.80 11.2999
1334.82 13.4425
1334.84 16.5181
1334.86 20.8369
1334.87 27.1046
1334.88 31.3263
1334.89 36.5688
1334.90 43.1602
1334.91 51.5599
1334.92 62.4196
1334.93 76.6723
1334.94 95.6556
1334.95 121.259
1334.96 156.009
1334.96 199.842
1334.98 334.334
1335.00 433.917
1335.01 418.406
1335.02 365.174
1335.04 237.679
1335.05 163.128
1335.07 117.538
1335.08 86.7797
1335.10 67.8902
1335.13 44.9255
1335.16 32.6429
1335.19 25.3216
1335.22 20.5951
1335.28 15.0277
1335.35 11.9613
1335.41 10.0697
1335.47 8.80728
1335.53 7.92676
1335.66 6.75655
1335.78 6.03574
1335.90 5.55078
1336.03 5.20560
1336.27 4.73949
1336.52 4.44105
1337.02 4.07155
1337.51 3.84171
1338.01 3.67704
1338.99 3.43963
1340.97 3.10760
1342.95 2.84247
1350.87 1.93354
1358.78 1.09301
1366.69 0.383436
1368.67 0.262070
1369.66 0.216865
1370.65 0.184880
1371.64 0.168761
1372.63 0.171840
1373.62 0.198123
1374.61 0.252570
1375.60 0.341423
1376.59 0.472143
1377.58 0.654368
1378.57 0.900179
1379.56 1.22534
1380.54 1.64897
1382.52 2.90329
1384.50 4.98665
1386.48 8.48789
1388.46 14.5754
1390.44 25.7570
1391.43 34.9109
1392.42 48.1959
1393.40 68.2050
1394.39 99.7506
1395.38 152.517
1396.37 247.248
1396.87 323.707
1397.36 432.542
1397.86 590.536
1398.35 818.492
1399.18 1380.57
1400.00 1830.30
1400.83 1549.47
1401.65 1013.74
1402.34 697.534
1403.02 496.333
1403.71 367.812
1404.39 282.850
1405.77 182.240
1407.14 127.606
1408.51 94.4255
1409.88 72.5154
1412.62 45.3040
1415.37 28.1202
1416.74 21.0546
1418.11 14.3355
1419.48 7.77483
1420.17 4.81110
1420.51 3.61324
1420.85 2.82484
1421.02 2.67869
1421.19 2.78117
1421.28 2.95368
1421.37 3.22617
1421.45 3.61644
1421.54 4.13877
1421.62 4.83089
1421.71 5.71855
1421.88 8.22189
1422.05 12.0927
1422.22 17.9170
1422.40 26.7667
1422.57 40.1616
1422.74 61.0231
1422.91 93.9403
1423.08 148.256
1423.25 240.338
1423.42 403.147
1423.59 693.862
1423.80 1262.45
1424.00 1712.93
1424.20 1476.96
1424.41 1022.98
1424.58 740.635
1424.75 556.170
1424.93 434.872
1425.10 352.658
1425.45 251.314
1425.80 193.613
1426.14 157.302
1426.49 132.702
1427.18 101.907
1427.88 83.6050
1428.57 71.5327
1429.96 56.5777
1431.35 47.6063
1432.74 41.5668
1435.51 33.8061
1438.29 28.9107
1441.07 25.4652
1446.62 20.8021
1452.17 17.6768
1457.72 15.3453
1468.83 11.8440
1479.93 8.90228
1485.49 7.38031
1491.04 5.67090
1496.59 3.62511
1499.37 2.44869
1502.15 1.25376
1503.53 0.753906
1504.23 0.577946
1504.58 0.520640
1504.92 0.490769
1505.27 0.495207
1505.44 0.512972
1505.62 0.542576
1505.96 0.643763
1506.31 0.812604
1506.66 1.06682
1507.00 1.42927
1507.35 1.92979
1507.70 2.60761
1508.05 3.51501
1508.39 4.72250
1509.09 8.46128
1509.78 15.1667
1510.13 20.4175
1510.47 27.6848
1510.82 37.9332
1511.17 52.7263
1511.52 74.7031
1511.86 108.527
1512.21 162.857
1512.56 254.581
1512.90 417.472
1513.25 713.707
1513.63 1242.04
1514.00 1664.97
1514.38 1422.39
1514.75 955.781
1515.04 692.080
1515.33 516.181
1515.62 398.891
1515.91 318.697
1516.49 219.931
1517.08 164.141
1517.66 129.490
1518.24 106.374
1519.40 78.1101
1520.56 61.8662
1521.72 51.4962
1522.89 44.3707
1524.05 39.2020
1526.37 32.2366
1528.70 27.7733
1531.02 24.6601
1533.34 22.3484
1537.99 19.0678
1542.64 16.6579
1544.97 15.5146
1546.13 14.8873
1547.29 14.1590
1548.45 13.2178
1549.03 12.5929
1549.61 11.7796
1549.91 11.2630
1550.20 10.6429
1550.49 9.87892
1550.78 8.93665
1550.92 8.39033
1551.07 7.82085
1551.21 7.29547
1551.36 7.04259
1551.50 7.86153
1551.58 9.46250
1551.61 10.8996
1551.65 13.0591
1551.69 16.4485
1551.72 21.5769
1551.74 25.1681
1551.76 29.7338
1551.78 35.5980
1551.79 43.2198
1551.81 53.9080
1551.83 67.5694
1551.85 86.1877
1551.87 112.053
1551.88 148.720
1551.90 201.696
1551.92 279.237
1551.94 392.186
1551.97 683.728
1552.00 923.656
1552.02 902.499
1552.03 794.977
1552.06 543.848
1552.09 391.007
1552.11 294.400
1552.14 230.209
1552.16 186.250
1552.21 132.222
1552.26 101.630
1552.32 82.2534
1552.37 69.5742
1552.47 53.9638
1552.57 44.8454
1552.67 39.0536
1552.77 35.0507
1552.87 32.1344
1553.07 28.1756
1553.27 25.6392
1553.47 23.8790
1553.67 22.5914
1554.07 20.8121
1554.47 19.6420
1554.87 18.8029
1555.28 18.1686
1556.08 17.2549
1556.88 16.6131
1558.49 15.7323
1560.09 15.1198
1561.70 14.6455
1564.91 13.9171
1571.33 12.8785
1577.76 12.1043
1590.60 10.9260
1603.45 9.99069
1616.29 9.14183
1622.72 8.70469
1629.14 8.21932
1635.56 7.61908
1638.77 7.23027
1641.99 6.72707
1643.59 6.40540
1645.20 6.01099
1646.80 5.50959
1648.41 4.84487
1649.21 4.42352
1650.01 3.92341
1650.82 3.33186
1651.62 2.66343
1652.02 2.33386
1652.42 2.07545
1652.82 2.03582
1653.03 2.20470
1653.23 2.61719
1653.43 3.45816
1653.53 4.13983
1653.63 5.06975
1653.73 6.36624
1653.83 8.14899
1653.93 10.6474
1654.03 14.2024
1654.13 19.4269
1654.23 27.1556
1654.33 39.0821
1654.43 58.3082
1654.53 91.5171
1654.63 151.866
1654.68 201.097
1654.73 271.829
1654.78 374.934
1654.83 524.753
1654.92 904.658
1655.00 1212.73
1655.09 1038.54
1655.17 695.523
1655.24 498.889
1655.30 370.545
1655.37 284.239
1655.44 226.315
1655.57 155.064
1655.70 115.194
1655.84 90.6166
1655.97 74.3239
1656.23 54.5533
1656.50 43.2957
1656.77 36.1681
1657.03 31.3088
1657.30 27.8109
1657.83 23.1518
1658.36 20.2155
1658.89 18.2075
1659.43 16.7523
1660.49 14.7882
1661.55 13.5241
1662.62 12.6404
1663.68 11.9853
1665.81 11.0716
1667.94 10.4555
1670.07 10.0038
1672.19 9.65244
1676.45 9.12571
1680.70 8.73310
1689.22 8.14247
1697.73 7.67452
1706.24 7.25900
1723.26 6.46020
1740.28 5.55785
1748.79 4.99700
1757.31 4.29166
1761.56 3.85357
1765.82 3.33177
1770.07 2.69690
1774.33 1.91601
1776.46 1.46725
1778.58 0.996355
1780.71 0.562324
1781.78 0.408886
1782.31 0.366730
1782.84 0.360326
1783.11 0.374769
1783.37 0.403911
1783.90 0.517679
1784.44 0.730467
1784.70 0.886439
1784.97 1.08430
1785.50 1.64167
1786.03 2.49779
1786.56 3.80190
1787.10 5.79595
1787.63 8.88847
1788.16 13.8042
1788.69 21.9094
1789.22 35.9854
1789.76 62.2726
1790.02 84.2042
1790.29 116.637
1790.55 166.402
1790.82 245.943
1791.09 378.086
1791.35 599.717
1791.68 1033.97
1792.00 1388.97
1792.33 1187.79
1792.65 790.838
1792.90 569.382
1793.15 422.362
1793.40 324.119
1793.64 257.211
1794.14 175.198
1794.64 129.205
1795.14 100.837
1795.63 82.0348
1796.63 59.2573
1797.62 46.2948
1798.61 38.1039
1799.61 32.5296
1800.60 28.5266
1802.59 23.1976
1804.58 19.8454
1806.56 17.5527
1808.55 15.8908
1812.53 13.6415
1816.50 12.1849
1820.48 11.1571
1824.45 10.3862
1832.40 9.28620
1840.35 8.51439
1856.25 7.42635
1872.15 6.59338
1888.05 5.79392
1896.00 5.32532
1899.97 5.04082
1903.94 4.68991
1907.92 4.21329
1909.91 3.88850
1911.89 3.46221
1912.89 3.19173
1913.88 2.86760
1914.88 2.47505
1915.87 2.00522
1916.37 1.74876
1916.86 1.50250
1917.36 1.32987
1917.61 1.31967
1917.86 1.41756
1918.11 1.71529
1918.35 2.38747
1918.48 2.97273
1918.60 3.81486
1918.73 5.04214
1918.85 6.85426
1918.98 9.61204
1919.10 13.8623
1919.22 20.7190
1919.35 32.3829
1919.47 53.7091
1919.53 71.2132
1919.60 96.7611
1919.66 135.371
1919.72 195.972
1919.78 294.450
1919.84 456.239
1919.92 780.658
1920.00 1040.87
1920.08 889.986
1920.16 590.879
1920.24 387.250
1920.31 267.369
1920.39 195.429
1920.47 149.894
1920.55 119.493
1920.63 98.2371
1920.78 71.1917
1920.94 55.1925
1921.09 44.8713
1921.41 32.6529
1921.72 25.8438
1922.03 21.5862
1922.34 18.7056
1922.65 16.6419
1923.28 13.9033
1923.90 12.1805
1924.53 11.0017
1925.15 10.1467
1926.40 8.98468
1927.64 8.23004
1928.89 7.69542
1930.14 7.29365
1932.63 6.71917
1935.13 6.31652
1940.12 5.75731
1945.11 5.35416
1950.10 5.02369
1960.08 4.45751
1980.04 3.40092
1990.02 2.83232
2000.00 2.20183
2011.09 1.40139
2016.64 0.960617
2022.18 0.515568
2024.95 0.315009
2026.34 0.230743
2027.73 0.165362
2029.11 0.129222
2030.50 0.138759
2031.19 0.168402
2031.88 0.220650
2032.58 0.301801
2033.27 0.420241
2033.96 0.587567
2034.66 0.818838
2035.35 1.13594
2036.04 1.56976
2036.74 2.16538
2037.43 2.99040
2038.12 4.14944
2038.82 5.81063
2039.51 8.26105
2040.20 11.9971
2040.90 17.9799
2041.59 28.2040
2042.28 47.3361
2042.63 63.5967
2042.97 88.1812
2043.32 127.580
2043.67 194.453
2044.01 316.970
2044.36 551.100
2045.00 1220.55
2045.32 1040.10
2045.64 673.679
2045.99 409.583
2046.33 265.140
2046.67 183.311
2047.02 134.060
2047.36 102.292
2047.71 80.8096
2048.40 54.3895
2049.08 39.3242
2049.77 29.9038
2051.15 19.0891
2052.53 13.2467
2053.90 9.66462
2056.66 5.54267
2059.41 3.24331
2062.17 1.78761
2064.92 0.837353
2066.30 0.517232
2066.99 0.395883
2067.68 0.302057
2068.36 0.237361
2069.05 0.204496
2069.40 0.201000
2069.74 0.206761
2070.43 0.248228
2071.12 0.334192
2071.81 0.470777
2072.50 0.666225
2073.18 0.929578
2074.56 1.71203
2075.94 2.94880
2077.32 4.84410
2078.69 7.72129
2080.07 12.1147
2081.45 18.9248
2082.83 29.7820
2084.20 47.7906
2085.58 79.3123
2086.96 138.506
2087.65 187.750
2088.33 259.397
2089.02 365.549
2089.71 521.872
2090.86 914.093
2092.00 1235.87
2093.15 1066.54
2094.29 721.794
2095.20 520.439
2096.11 386.926
2097.02 298.279
2097.93 237.820
2099.75 163.805
2101.57 122.144
2103.40 96.3030
2105.22 79.0652
2108.86 57.9636
2112.50 45.8026
2116.14 38.0128
2123.43 28.7298
2130.71 23.4318
2137.99 20.0073
2145.28 17.5964
2152.56 15.7861
2167.13 13.1595
2181.70 11.1355
2188.98 10.1278
2192.62 9.56119
2196.27 8.89470
2199.91 8.02601
2201.73 7.44680
2203.55 6.69034
2204.46 6.20818
2205.37 5.62422
2206.28 4.89815
2207.19 3.97956
2207.65 3.43152
2208.10 2.83066
2208.56 2.21598
2209.01 1.74292
2209.24 1.70412
2209.47 2.00100
2209.58 2.38145
2209.70 3.01805
2209.81 4.04122
2209.92 5.64378
2210.04 8.20318
2210.15 12.3229
2210.27 19.1401
2210.38 30.7700
2210.44 39.7921
2210.49 52.2039
2210.55 69.6503
2210.61 94.7861
2210.66 132.005
2210.72 188.692
2210.78 277.042
2210.83 411.991
2210.92 725.688
2211.00 982.887
2211.08 850.094
2211.17 578.587
2211.25 393.229
2211.33 281.368
2211.41 211.878
2211.48 166.665
2211.64 113.591
2211.80 85.1302
2211.96 67.7884
2212.12 56.4646
2212.44 42.7200
2212.75 34.8727
2213.07 29.8693
2213.39 26.4280
2213.70 23.9340
2214.34 20.5530
2214.97 18.3798
2215.60 16.8641
2216.24 15.7449
2217.51 14.1859
2218.77 13.1380
2221.31 11.7673
2223.84 10.8508
2226.38 10.1394
2231.45 8.94447
2236.52 7.71538
2239.05 6.96850
2241.58 6.03081
2242.85 5.44728
2244.12 4.75288
2245.39 3.91087
2246.65 2.88635
2247.29 2.30835
2247.92 1.71879
2248.56 1.21219
2248.87 1.06491
2249.19 1.07826
2249.35 1.18567
2249.51 1.39324
2249.66 1.74264
2249.82 2.28485
2249.98 3.10823
2250.14 4.32279
2250.30 6.11568
2250.46 8.77432
2250.61 12.7968
2250.77 18.9291
2250.93 28.6784
2251.09 44.5943
2251.25 72.3157
2251.41 123.226
2251.49 164.839
2251.56 224.564
2251.64 311.365
2251.72 436.964
2251.86 768.531
2252.00 1043.77
2252.14 903.079
2252.28 614.230
2252.43 394.343
2252.59 271.105
2252.74 198.831
2252.90 154.154
2253.05 124.391
2253.21 103.791
2253.51 77.5346
2253.82 61.8516
2254.13 51.6476
2254.75 39.4109
2255.37 32.4374
2255.98 27.9986
2256.60 24.9405
2257.22 22.7130
2258.45 19.6912
2259.69 17.7411
2260.92 16.3743
2262.16 15.3613
2264.63 13.9479
2267.10 12.9980
2272.03 11.7688
2276.97 10.9756
2281.91 10.3968
2291.79 9.55729
2301.66 8.92721
2311.54 8.39637
2331.30 7.44552
2351.05 6.45456
2360.93 5.86773
2370.80 5.14869
2380.68 4.18508
2385.62 3.54465
2390.56 2.73525
2393.03 2.24644
2395.50 1.69384
2397.97 1.08839
2400.43 0.505245
2401.05 0.389803
2401.67 0.303325
2402.29 0.261054
2402.60 0.263343
2402.75 0.271905
2402.90 0.286141
2403.52 0.414233
2403.83 0.533144
2404.14 0.700145
2404.45 0.928534
2404.76 1.23246
2405.06 1.63423
2405.37 2.15778
2405.99 3.73245
2406.61 6.41133
2407.22 11.0841
2407.84 19.6079
2408.15 26.4936
2408.46 36.3311
2408.77 50.7892
2409.08 72.6906
2409.39 107.479
2409.69 165.010
2410.00 265.395
2410.31 443.270
2410.66 771.123
2411.00 1045.79
2411.35 904.982
2411.69 609.346
2412.06 392.322
2412.43 268.524
2412.79 195.791
2413.16 150.358
2413.53 120.259
2413.89 99.2991
2414.63 72.6798
2415.36 56.9082
2416.10 46.6901
2417.56 34.4901
2419.03 27.5900
2420.50 23.2100
2421.97 20.1945
2423.44 17.9923
2426.37 14.9734
2429.31 12.9655
2432.25 11.4846
2435.18 10.2956
2441.06 8.28758
2443.99 7.28786
2446.93 6.16022
2449.87 4.74634
2451.33 3.85572
2452.80 2.79460
2453.54 2.20099
2454.27 1.59577
2455.00 1.06573
2455.37 0.898655
2455.74 0.881158
2455.92 0.966366
2456.11 1.14526
2456.29 1.45627
2456.47 1.94782
2456.66 2.70132
2456.84 3.82102
2457.02 5.49204
2457.21 7.96589
2457.39 11.7113
2457.57 17.4297
2457.76 26.5109
2457.94 41.3326
2458.12 67.0694
2458.31 114.208
2458.40 152.862
2458.49 208.291
2458.58 288.762
2458.67 403.571
2458.84 712.353
2459.00 971.179
2459.16 843.997
2459.33 574.814
2459.48 390.716
2459.64 278.563
2459.80 209.290
2459.95 164.403
2460.11 133.848
2460.27 112.130
2460.58 84.0138
2460.90 66.9248
2461.21 55.6884
2461.84 42.0981
2462.46 34.3039
2463.09 29.3275
2463.72 25.8933
2464.35 23.3895
2465.60 19.9892
2466.86 17.7902
2468.11 16.2474
2469.36 15.1013
2471.87 13.4952
2474.38 12.4075
2479.40 10.9797
2484.42 10.0335
2489.44 9.31668
2499.48 8.18406
2509.52 7.14109
2514.53 6.55857
2519.55 5.86043
2522.06 5.43594
2524.57 4.93245
2527.08 4.31366
2529.59 3.52534
2530.85 3.04450
2532.10 2.49493
2533.36 1.88240
2534.61 1.27000
2535.24 1.03537
2535.87 0.962361
2536.18 1.04807
2536.49 1.27620
2536.81 1.72988
2536.96 2.08047
2537.12 2.54110
2537.28 3.15009
2537.43 3.94859
2537.59 4.99600
2537.75 6.37437
2537.90 8.19892
2538.06 10.6347
2538.22 13.9234
2538.37 18.3939
2538.53 24.6595
2538.69 33.5853
2538.85 46.6410
2539.00 66.1996
2539.16 97.0123
2539.32 147.391
2539.47 233.184
2539.63 380.415
2539.81 665.862
2540.00 905.888
2540.19 785.722
2540.37 532.570
2540.53 376.973
2540.69 276.899
2540.84 211.892
2541.00 168.212
2541.31 115.498
2541.62 86.3860
2541.94 68.4478
2542.25 56.6006
2542.87 42.1809
2543.50 33.9070
2544.12 28.6326
2544.75 25.0104
2545.37 22.3871
2546.62 18.8489
2547.87 16.5867
2549.12 15.0155
2550.37 13.8584
2552.87 12.2576
2555.37 11.1882
2557.87 10.4084
2560.36 9.80225
2565.36 8.88530
2570.36 8.17879
2580.35 6.99704
2590.35 5.77991
2595.35 5.04029
2600.34 4.11914
2602.84 3.55505
2605.34 2.89726
2607.84 2.12936
2610.34 1.26590
2611.59 0.837405
2612.84 0.488059
2613.46 0.388222
2614.09 0.385946
2614.40 0.440423
2614.71 0.546459
2615.02 0.719556
2615.34 0.980133
2615.65 1.35700
2615.96 1.88504
2616.27 2.61924
2616.59 3.62677
2616.90 5.01692
2617.21 6.92961
2617.52 9.58934
2617.83 13.3331
2618.15 18.7115
2618.46 26.5571
2618.77 38.3526
2619.08 56.7071
2619.40 86.6206
2619.71 137.528
2620.02 228.947
2620.33 397.394
2620.67 700.108
2621.00 955.136
2621.34 830.317
2621.67 564.777
2621.96 395.981
2622.25 288.777
2622.55 220.062
2622.84 174.333
2623.42 119.681
2624.01 89.6485
2624.59 71.2258
2625.18 59.0537
2626.35 44.2335
2627.51 35.7350
2628.68 30.3066
2629.85 26.5712
2631.02 23.8575
2633.36 20.1967
2635.70 17.8505
2638.04 16.2208
2640.37 15.0226
2645.05 13.3721
2649.72 12.2813
2654.40 11.4993
2659.08 10.9054
2668.43 10.0481
2677.78 9.44314
2696.48 8.60396
2715.18 8.00630
2733.89 7.52317
2771.29 6.69505
2808.70 5.86633
2827.40 5.38587
2846.10 4.80352
2864.80 4.02741
2874.15 3.50986
2883.51 2.84670
2888.18 2.43720
2892.86 1.95955
2897.53 1.40391
2902.21 0.784007
2904.55 0.480269
2906.88 0.237947
2908.05 0.173571
2909.22 0.182447
2909.81 0.228503
2910.39 0.313181
2910.98 0.448063
2911.56 0.648485
2912.14 0.935658
2912.73 1.33677
2913.31 1.89228
2913.90 2.65511
2914.48 3.70668
2915.07 5.15859
2915.65 7.18922
2916.24 10.0590
2916.82 14.2061
2917.40 20.3265
2917.99 29.6797
2918.57 44.5029
2919.16 69.2937
2919.74 113.248
2920.33 196.879
2920.62 265.997
2920.91 363.561
2921.46 635.453
2922.00 869.129
2922.55 755.852
2923.09 508.553
2923.55 357.623
2924.00 260.386
2924.46 197.628
2924.92 155.703
2925.83 105.564
2926.75 77.9952
2927.66 61.1311
2928.57 50.0142
2930.40 36.5408
2932.23 28.8499
2934.05 23.9553
2935.88 20.5892
2937.71 18.1384
2941.36 14.8009
2945.02 12.6069
2948.67 11.0117
2952.33 9.75046
2959.63 7.67395
2963.29 6.66693
2966.94 5.54890
2970.60 4.16742
2972.43 3.30653
2974.25 2.29059
2975.17 1.72874
2976.08 1.16310
2976.99 0.681596
2977.45 0.542280
2977.91 0.553370
2978.14 0.652141
2978.36 0.843275
2978.59 1.16353
2978.82 1.65975
2979.05 2.40864
2979.28 3.51006
2979.51 5.12730
2979.73 7.51034
2979.96 11.0800
2980.19 16.4793
2980.42 24.9406
2980.65 38.5599
2980.88 61.7245
2981.10 103.075
2981.33 181.963
2981.45 246.990
2981.56 338.364
2981.78 601.538
2982.00 826.408
2982.22 723.222
2982.44 495.077
2982.59 378.272
2982.73 294.795
2983.03 193.268
2983.32 138.481
2983.62 106.104
2983.91 85.2583
2984.20 71.0790
2984.79 53.3125
2985.38 42.8692
2985.96 36.1243
2987.14 28.0320
2988.31 23.4049
2989.49 20.4350
2990.66 18.3705
2991.84 16.8520
2994.18 14.7616
2996.53 13.3828
3001.23 11.6474
3005.93 10.5717
3010.62 9.81776
3020.02 8.78636
3029.41 8.07042
3038.81 7.50989
3057.59 6.60280
3076.38 5.78180
3095.17 4.87184
3104.57 4.29731
3109.26 3.94476
3113.96 3.51503
3118.66 2.95133
3121.01 2.58367
3123.35 2.12261
3124.53 1.84305
3125.70 1.52267
3126.88 1.15878
3128.05 0.770587
3128.64 0.595157
3129.23 0.480948
3129.81 0.529475
3130.11 0.685836
3130.40 1.00797
3130.69 1.61524
3130.84 2.08781
3130.99 2.72191
3131.13 3.58845
3131.28 4.77556
3131.43 6.42168
3131.57 8.72324
3131.72 12.0554
3131.87 16.9837
3132.02 24.5276
3132.16 36.4867
3132.31 56.8028
3132.46 93.6091
3132.53 123.631
3132.60 165.918
3132.68 227.045
3132.75 315.277
3132.87 544.071
3133.00 741.083
3133.13 644.942
3133.25 432.129
3133.35 312.739
3133.44 233.072
3133.54 179.551
3133.63 142.715
3133.82 97.2369
3134.01 71.7787
3134.20 55.9605
3134.38 45.5221
3134.76 32.8424
3135.14 25.6072
3135.51 21.0429
3135.89 17.9244
3136.27 15.6858
3137.02 12.6927
3137.77 10.8017
3138.53 9.49925
3139.28 8.54566
3140.79 7.23159
3142.29 6.35385
3145.30 5.20196
3148.32 4.41766
3151.33 3.79307
3157.36 2.71947
3163.38 1.67235
3166.40 1.13083
3169.41 0.605382
3170.92 0.382302
3171.67 0.295718
3172.42 0.237346
3173.18 0.221680
3173.36 0.226886
3173.55 0.236544
3173.93 0.271396
3174.68 0.422822
3175.06 0.554449
3175.43 0.736702
3175.81 0.985393
3176.19 1.32026
3176.57 1.76907
3176.94 2.36895
3177.32 3.17882
3177.69 4.27590
3178.07 5.78952
3178.45 7.90363
3178.82 10.9417
3179.20 15.4157
3179.58 22.2995
3179.95 33.3732
3180.33 52.4963
3180.71 88.2910
3180.90 118.597
3181.08 163.407
3181.27 231.683
3181.46 336.434
3182.00 770.101
3182.14 756.535
3182.27 666.619
3182.54 437.515
3182.84 264.549
3183.15 170.716
3183.45 118.150
3183.75 86.5318
3184.05 66.2044
3184.35 52.3892
3184.96 35.3304
3185.56 25.4813
3186.16 19.2165
3187.37 11.8315
3188.58 7.64256
3189.79 4.93470
3190.99 3.03801
3192.20 1.68566
3192.81 1.18550
3193.41 0.809330
3194.01 0.576072
3194.62 0.519776
3194.92 0.574126
3195.22 0.695710
3195.52 0.896556
3195.82 1.19175
3196.13 1.60024
3196.43 2.14600
3197.03 3.77600
3197.64 6.44916
3198.24 10.7792
3198.84 17.8587
3199.45 29.7058
3200.05 50.4146
3200.65 88.5110
3200.96 119.450
3201.26 163.418
3201.56 226.483
3201.86 316.052
3202.43 571.807
3203.00 791.223
3203.57 695.262
3204.14 479.700
3204.57 356.091
3205.01 271.573
3205.44 213.800
3205.87 173.534
3206.74 122.925
3207.60 93.6607
3208.46 75.0883
3209.33 62.4895
3211.06 46.7148
3212.79 37.3635
3214.52 31.1992
3217.97 23.4677
3221.43 18.4928
3223.16 16.4008
3224.89 14.3140
3226.62 11.9631
3227.48 10.5434
3228.35 8.82402
3229.21 6.63101
3229.64 5.30940
3230.08 3.88460
3230.51 2.70597
3230.73 2.64159
3230.83 2.95753
3230.94 3.69835
3231.05 5.13280
3231.16 7.72963
3231.21 9.70758
3231.27 12.3447
3231.32 15.8743
3231.37 20.6295
3231.43 27.0947
3231.48 35.9873
3231.54 48.3902
3231.59 65.9668
3231.64 91.3034
3231.70 128.418
3231.75 183.351
3231.81 264.150
3231.90 490.799
3232.00 685.031
3232.10 607.401
3232.20 428.780
3232.31 286.223
3232.41 204.549
3232.52 155.796
3232.63 124.798
3232.74 103.727
3232.85 88.9502
3233.07 69.7213
3233.29 57.9237
3233.51 50.1064
3233.94 40.4265
3234.38 34.7273
3234.82 30.9828
3235.25 28.3322
3235.69 26.3559
3236.56 23.5762
3237.44 21.7000
3239.18 19.2698
3240.93 17.7138
3242.68 16.5986
3246.17 15.0467
3249.67 13.9724
3253.16 13.1585
3260.15 11.9669
3274.13 10.4414
3288.10 9.44319
3302.08 8.69836
3316.06 8.09185
3344.01 7.07226
3371.97 6.08688
3385.95 5.52467
3399.92 4.84462
3413.90 3.93602
3420.89 3.33007
3427.88 2.56032
3431.37 2.09330
3434.87 1.56328
3438.36 0.979762
3441.85 0.412412
3442.73 0.298155
3443.60 0.210383
3444.48 0.163408
3444.91 0.161526
3445.35 0.178532
3446.22 0.288185
3446.66 0.393205
3447.10 0.542249
3447.53 0.746972
3447.97 1.02113
3448.84 1.85442
3449.72 3.26684
3450.59 5.65177
3451.46 9.76414
3452.34 17.1104
3452.77 22.9232
3453.21 31.0710
3453.65 42.7580
3454.08 59.9349
3454.52 86.0980
3454.96 127.230
3455.39 193.866
3455.83 302.377
3456.42 535.109
3457.00 737.370
3457.59 648.259
3458.17 443.035
3458.80 288.073
3459.43 198.972
3460.06 146.467
3460.69 113.565
3461.33 91.6917
3461.96 76.4056
3463.22 56.9038
3464.48 45.2586
3465.74 37.6721
3468.26 28.5401
3470.79 23.3321
3473.31 20.0059
3475.83 17.7088
3478.36 16.0306
3483.40 13.7416
3488.45 12.2462
3493.50 11.1814
3498.54 10.3728
3508.63 9.18257
3518.73 8.25323
3523.77 7.78779
3526.30 7.52442
3528.82 7.21139
3531.34 6.79489
3532.61 6.50990
3533.87 6.12748
3534.50 5.87656
3535.13 5.56361
3535.76 5.15904
3536.39 4.61376
3536.71 4.26205
3537.02 3.84027
3537.34 3.32953
3537.65 2.72979
3537.97 2.12245
3538.13 1.95455
3538.28 2.16168
3538.36 2.60616
3538.44 3.52965
3538.52 5.35659
3538.60 8.93508
3538.64 12.0403
3538.68 16.4937
3538.72 23.3916
3538.76 33.8712
3538.80 51.3149
3538.83 80.1910
3538.87 131.228
3538.91 224.701
3538.96 398.857
3539.00 552.751
3539.04 486.786
3539.09 335.350
3539.12 261.199
3539.14 205.886
3539.20 137.265
3539.26 99.5336
3539.31 77.2419
3539.37 62.5338
3539.42 52.6125
3539.53 40.0025
3539.64 32.5675
3539.75 27.7469
3539.98 21.9633
3540.20 18.6671
3540.42 16.5592
3540.64 15.1028
3540.86 14.0393
3541.31 12.5932
3541.75 11.6565
3542.20 10.9996
3542.64 10.5123
3543.53 9.83331
3544.42 9.37918
3545.31 9.04962
3546.19 8.79646
3547.97 8.42518
3549.75 8.15785
3553.30 7.77690
3556.85 7.49770
3560.40 7.26898
3567.51 6.88338
3574.61 6.53048
3581.72 6.14694
3585.27 5.90297
3587.05 5.74789
3588.82 5.54924
3589.71 5.42249
3590.60 5.26663
3591.49 5.06598
3592.38 4.79198
3592.82 4.61140
3593.27 4.38675
3593.71 4.09924
3594.15 3.72015
3594.60 3.21219
3594.82 2.90711
3595.04 2.60312
3595.26 2.46304
3595.37 2.64063
3595.49 3.31685
3595.54 4.06508
3595.60 5.31891
3595.65 7.53981
3595.71 11.4799
3595.74 14.6752
3595.76 19.2002
3595.79 25.7696
3595.82 35.1672
3595.85 50.1315
3595.87 74.1631
3595.90 114.152
3595.93 180.600
3595.97 317.673
3596.00 435.530
3596.02 429.024
3596.04 383.180
3596.07 261.317
3596.10 178.303
3596.14 127.094
3596.17 95.6089
3596.21 75.2983
3596.24 61.5264
3596.27 51.7695
3596.34 39.2974
3596.41 31.6432
3596.48 26.6934
3596.61 20.6613
3596.75 17.2218
3596.88 15.0315
3597.02 13.5273
3597.15 12.4361
3597.42 10.9665
3597.69 10.0271
3597.96 9.37641
3598.23 8.89945
3598.77 8.24546
3599.31 7.81810
3599.85 7.51471
3600.39 7.28666
3601.47 6.96245
3602.55 6.73878
3604.71 6.43765
3606.87 6.23165
3609.03 6.07233
3613.36 5.82194
3622.00 5.42968
3630.64 5.08278
3647.93 4.39007
3665.21 3.60492
3682.50 2.62538
3691.14 2.02125
3699.78 1.31997
3704.10 0.937459
3708.42 0.554187
3712.74 0.225078
3714.91 0.123165
3715.99 0.103013
3716.53 0.103773
3717.07 0.113368
3718.15 0.165275
3719.23 0.273874
3720.31 0.460837
3721.39 0.756523
3722.47 1.20637
3723.55 1.87655
3724.63 2.87009
3725.71 4.34951
3726.79 6.58419
3727.87 10.0283
3728.95 15.5124
3730.03 24.6361
3731.11 40.7599
3732.19 71.5223
3732.73 97.5783
3733.27 136.286
3733.81 195.038
3734.35 284.511
3735.18 496.435
3736.00 683.768
3736.83 600.448
3737.65 404.588
3738.18 308.186
3738.70 238.840
3739.75 153.840
3740.80 107.870
3741.85 80.7002
3742.91 63.3539
3743.96 51.5743
3746.06 36.9381
3748.16 28.3981
3750.26 22.8794
3754.47 16.2077
3758.67 12.2724
3762.87 9.58879
3771.28 5.85297
3779.69 2.94369
3783.89 1.62967
3788.10 0.529890
3789.15 0.335739
3790.20 0.202095
3791.25 0.154211
3792.30 0.228806
3792.83 0.328169
3793.35 0.480061
3793.88 0.696168
3794.40 0.989383
3794.93 1.37794
3795.45 1.88178
3796.50 3.35424
3797.55 5.72690
3798.61 9.53926
3799.66 15.7404
3800.71 26.0862
3801.76 44.0174
3802.81 76.6968
3803.34 102.921
3803.86 139.713
3804.39 191.785
3804.91 264.998
3805.96 484.710
3807.00 676.482
3808.05 599.491
3809.09 417.721
3810.12 287.938
3811.15 208.344
3812.18 158.826
3813.21 126.495
3814.24 104.299
3815.27 88.4165
3817.32 67.5810
3819.38 54.7768
3821.44 46.2457
3825.56 35.7259
3829.68 29.5645
3833.79 25.5426
3842.03 20.6177
3850.26 17.7026
3858.49 15.7565
3874.96 13.2631
3891.43 11.6451
3907.90 10.3655
3916.13 9.72023
3920.25 9.35428
3924.36 8.91920
3928.48 8.34097
3930.54 7.94621
3932.60 7.41751
3933.63 7.07123
3934.66 6.64057
3935.69 6.08506
3936.71 5.33708
3937.23 4.85677
3937.74 4.28120
3938.26 3.58654
3938.77 2.77109
3939.29 1.94214
3939.54 1.69969
3939.80 1.93006
3939.93 2.47070
3940.06 3.60036
3940.19 5.82173
3940.25 7.61611
3940.32 10.1373
3940.38 13.7864
3940.45 18.9868
3940.51 26.6479
3940.57 38.2217
3940.64 56.5882
3940.70 85.7860
3940.77 134.199
3940.83 215.094
3940.92 390.586
3941.00 546.099
3941.09 485.569
3941.17 338.250
3941.23 260.199
3941.29 205.140
3941.34 165.347
3941.40 137.146
3941.52 100.205
3941.63 78.1699
3941.75 63.9513
3941.86 54.1929
3942.09 41.9031
3942.32 34.6252
3942.55 29.8810
3943.01 24.1534
3943.47 20.8461
3943.93 18.7155
3944.39 17.2275
3944.85 16.1348
3945.77 14.6307
3946.69 13.6447
3947.61 12.9445
3948.52 12.4185
3950.36 11.6725
3952.20 11.1598
3955.88 10.4739
3959.56 10.0084
3963.23 9.64840
3970.59 9.07083
3977.94 8.55139
3985.29 7.98174
3988.97 7.63204
3992.65 7.18950
3996.32 6.56757
3998.16 6.13218
4000.00 5.54864
4000.00 22.2700
5000.00 20.5480
6000.00 19.4781
7000.00 18.4176
7200.00 18.2878
8000.00 17.7685
8500.00 17.4995
9000.00 17.2304
9500.00 16.8453
10000.0 16.6412
12500.0 15.6207
13000.0 15.4166
14000.0 15.1566
15000.0 14.9239
17000.0 14.5000
18000.0 14.3060
20000.0 13.7122
22000.0 13.4166
25000.0 13.0350
30000.0 12.3433
35000.0 11.9288
40000.0 11.4796
45000.0 11.2122
50000.0 10.8804
55000.0 10.6803
60000.0 10.5021
65000.0 10.2501
70000.0 10.1167
72000.0 10.0519
80000.0 9.79271
85000.0 9.69687
90000.0 9.60102
95000.0 9.42564
99999.9 9.29881
111820 8.99897
120000 8.90950
130000 8.75865
140000 8.62736
150000 8.51552
160000 8.40815
170000 8.28043
180000 8.16171
190000 8.05057
200000 7.94702
220000 7.80204
250000 7.61565
270000 7.48837
300000 7.31522
366056 7.14202
400000 7.05899
500000 6.83854
520000 6.78164
550000 6.70371
600000 6.59588
610000 6.58402
620000 6.57313
630000 6.56304
650000 6.56474
693000 6.56954
700000 6.57040
750000 6.58275
752413 6.58262
850000 6.57743
900000 6.57690
908233 6.55792
950000 6.58159
1.00000E+06 6.60845
1.00798E+06 6.60033
1.01149E+06 6.59961
1.10000E+06 6.67783
1.30000E+06 6.74838
1.40000E+06 6.77125
1.50000E+06 6.78594
1.60000E+06 6.80103
1.70000E+06 6.86707
1.90000E+06 6.99369
2.00000E+06 7.05157
2.10000E+06 7.05747
2.20000E+06 7.05635
2.30000E+06 7.04854
2.50000E+06 7.01114
2.75000E+06 6.96266
3.00000E+06 6.89597
3.50000E+06 6.67689
4.00000E+06 6.41693
4.50000E+06 6.16240
5.00000E+06 5.92733
5.50000E+06 5.74414
6.00000E+06 5.59155
6.50000E+06 5.44336
7.00000E+06 5.28446
7.45164E+06 5.17622
7.50000E+06 5.16464
7.76284E+06 5.12424
8.00000E+06 5.08779
8.20000E+06 5.09459
8.40000E+06 5.10076
8.60000E+06 5.10632
9.00000E+06 5.11465
9.60000E+06 5.13216
1.00000E+07 5.14617
1.05000E+07 5.15945
1.10000E+07 5.18222
1.15000E+07 5.21139
1.20000E+07 5.24158
1.25000E+07 5.27122
1.30000E+07 5.30973
1.35000E+07 5.34714
1.36766E+07 5.35883
1.40000E+07 5.38053
1.45000E+07 5.40956
1.47500E+07 5.42216
1.50000E+07 5.44848
1.55000E+07 5.46041
1.60000E+07 5.46955
1.70000E+07 5.49665
1.80000E+07 5.50445
1.90000E+07 5.47212
2.00000E+07 5.42052
2.17848E+07 5.29090
2.20000E+07 5.27527
2.60000E+07 4.91734
2.80000E+07 4.72505
3.20000E+07 4.41563
3.80000E+07 4.14353
4.20000E+07 4.05529
4.60000E+07 4.07261
5.00000E+07 4.13578
5.50000E+07 4.21287
5.62432E+07 4.25134
5.84929E+07 4.32095
6.00000E+07 4.36758
6.08326E+07 4.37883
6.32659E+07 4.41172
6.57966E+07 4.44592
6.84284E+07 4.48149
7.00000E+07 4.50273
7.11656E+07 4.50032
7.40122E+07 4.49442
7.69727E+07 4.48829
8.00000E+07 4.48202
8.00516E+07 4.48166
8.32536E+07 4.45947
8.65838E+07 4.43639
9.00000E+07 4.41272
9.00471E+07 4.41182
9.36490E+07 4.34335
9.73950E+07 4.27215
1.01291E+08 4.19809
1.05342E+08 4.12109
1.09556E+08 4.04098
1.13938E+08 3.95769
1.15000E+08 3.93750
1.18496E+08 3.85721
1.23236E+08 3.74836
1.28165E+08 3.63516
1.30000E+08 3.59302
1.33292E+08 3.52007
1.38623E+08 3.40194
1.44168E+08 3.27906
1.49935E+08 3.15127
1.50000E+08 3.14983