W-186(n,tot) ENDF/B-VII.1
Energy(eV) XS(b)
1.00000E-05 1910.98
1.25000E-05 1709.24
1.50000E-05 1560.33
2.00000E-05 1351.30
2.75000E-05 1152.40
3.50000E-05 1021.50
4.25000E-05 927.008
5.00000E-05 854.667
6.25000E-05 764.447
7.50000E-05 697.849
0.000100000 604.368
0.000125000 540.573
0.000150000 493.482
0.000200000 427.381
0.000275000 364.487
0.000350000 323.095
0.000425000 293.213
0.000500000 270.338
0.000625000 241.809
0.000750000 220.750
0.00100000 191.191
0.00125000 171.020
0.00150000 156.130
0.00200000 135.230
0.00275000 115.345
0.00350000 102.260
0.00425000 92.8135
0.00500000 85.5826
0.00625000 76.5656
0.00750000 69.9104
0.0100000 60.5703
0.0125000 54.1979
0.0150000 49.4952
0.0200000 42.8967
0.0253000 38.1693
0.0314750 34.2508
0.0376500 31.3431
0.0500000 27.2434
0.0625000 24.4073
0.0750000 22.3167
0.100000 19.3885
0.125000 17.3961
0.150000 15.9300
0.200000 13.8817
0.275000 11.9490
0.350000 10.6912
0.500000 9.11651
0.750000 7.69145
1.00000 6.89344
1.50000 6.05857
2.00000 5.68765
2.75000 5.54864
3.50000 5.71730
5.00000 6.76309
6.25000 8.41382
7.50000 11.0442
8.75000 15.1720
10.0000 21.7653
11.0826 30.8917
12.1653 45.7097
13.2479 71.3795
13.7892 91.5905
14.3305 120.239
14.8718 162.438
15.4131 227.743
15.9544 335.664
16.4958 531.055
16.7664 693.262
17.0371 936.190
17.3077 1322.08
17.5784 1985.86
17.8490 3264.92
17.9844 4396.08
18.1197 6196.95
18.2550 9294.98
18.3904 15206.2
18.4580 20314.8
18.5257 28130.6
18.5933 40506.9
18.6610 60244.2
18.7455 96811.0
18.8300 121348
18.9145 97514.9
18.9990 61369.5
19.0616 42887.7
19.1241 30795.1
19.1867 22865.6
19.2493 17522.2
19.3744 11128.6
19.4995 7656.81
19.6246 5583.85
19.7498 4253.69
20.0000 2711.32
20.2344 1926.19
20.4688 1444.14
20.9375 906.467
21.4063 628.118
21.8750 464.908
22.3438 360.678
22.8125 289.839
23.7500 202.018
24.6875 151.311
25.6250 119.153
27.5000 81.7846
29.3750 61.4066
31.2500 48.8960
33.1250 40.5668
35.0000 34.6848
38.7500 27.0175
42.5000 22.2962
46.2500 19.1219
50.0000 16.8497
56.2500 14.2272
62.5000 12.4475
68.7500 11.1546
75.0000 10.1661
87.5000 8.73201
100.000 7.70890
117.663 6.60819
135.326 5.66841
144.157 5.19072
152.988 4.64958
157.404 4.32049
159.612 4.12635
161.820 3.89933
164.028 3.62112
165.132 3.45542
166.236 3.27253
166.788 3.18074
167.340 3.10159
167.892 3.06545
168.443 3.16013
168.719 3.33018
168.995 3.68311
169.271 4.40937
169.547 5.98064
169.685 7.44020
169.754 8.47198
169.789 9.09301
169.823 9.80017
169.858 10.6087
169.892 11.5374
169.927 12.6093
169.961 13.8531
169.996 15.3051
170.030 17.0110
170.065 19.0299
170.099 21.4383
170.134 24.3372
170.168 27.8618
170.237 37.5947
170.272 44.4200
170.306 53.1976
170.341 64.7143
170.375 80.1864
170.410 101.571
170.444 132.165
170.479 177.851
170.513 249.868
170.548 371.588
170.582 596.831
170.600 785.702
170.617 1063.47
170.634 1484.11
170.651 2121.88
170.676 3448.37
170.700 4383.94
170.724 3569.75
170.749 2269.52
170.777 1316.55
170.806 825.368
170.835 559.184
170.863 403.385
170.892 304.817
170.920 239.042
170.977 159.773
171.035 115.506
171.092 88.3349
171.206 57.8907
171.320 41.9818
171.434 32.5677
171.549 26.4844
171.663 22.3068
171.892 17.0379
172.120 13.9266
172.349 11.9084
172.577 10.5089
173.034 8.71538
173.491 7.62631
173.948 6.89767
174.405 6.37570
175.319 5.67232
176.233 5.21154
178.062 4.61646
179.890 4.21632
181.718 3.90133
185.374 3.37464
189.031 2.88741
192.687 2.38926
196.344 1.86070
200.000 1.31483
202.152 1.02137
204.304 0.822110
204.842 0.803031
205.380 0.803732
205.649 0.813216
205.918 0.829900
206.187 0.854765
206.456 0.888935
206.725 0.933701
206.994 0.990548
207.263 1.06119
207.532 1.14761
207.801 1.25212
208.070 1.37739
208.608 1.70329
209.146 2.15760
209.684 2.78548
210.222 3.65135
210.760 4.84911
211.298 6.51907
211.836 8.87708
212.374 12.2670
212.912 17.2596
213.450 24.8522
213.988 36.9008
214.526 57.1518
215.064 94.0296
215.333 124.482
215.602 169.555
215.871 239.627
216.140 355.797
216.409 565.847
216.544 738.921
216.678 994.641
216.813 1389.99
216.947 2033.94
217.082 3139.49
217.216 5084.32
217.358 8316.38
217.500 10636.8
217.642 8715.47
217.784 5574.96
217.919 3589.59
218.053 2425.53
218.188 1728.96
218.322 1290.55
218.591 798.930
218.860 546.918
219.129 401.092
219.398 309.168
219.936 203.675
220.475 147.308
221.013 113.398
221.551 91.2542
222.089 75.9021
223.165 56.3683
224.241 44.7157
225.317 37.1052
226.393 31.8047
228.546 24.9889
230.698 20.8467
232.850 18.0868
235.003 16.1248
239.307 13.5276
243.612 11.8842
247.916 10.7436
252.221 9.89698
260.830 8.68932
269.439 7.78898
273.744 7.35591
275.896 7.11673
278.049 6.83857
280.201 6.48031
281.277 6.24449
282.353 5.94200
282.891 5.75387
283.429 5.53246
283.967 5.27165
284.505 4.97619
284.775 4.83014
285.044 4.71524
285.313 4.70107
285.582 4.98557
285.716 5.40370
285.851 6.22612
285.985 7.86115
286.053 9.24938
286.086 10.1707
286.120 11.2975
286.153 12.6913
286.187 14.4210
286.204 15.4448
286.221 16.5962
286.237 17.8952
286.254 19.3658
286.288 22.9553
286.322 27.6587
286.355 33.9628
286.389 42.6174
286.422 54.8934
286.456 72.8358
286.490 100.339
286.523 145.018
286.557 223.675
286.574 286.369
286.591 376.244
286.607 509.754
286.624 715.850
286.641 1045.23
286.658 1576.43
286.679 2595.28
286.700 3332.50
286.721 2739.85
286.742 1763.34
286.757 1280.33
286.771 953.081
286.786 730.267
286.800 575.363
286.829 383.440
286.858 275.150
286.888 208.378
286.917 164.656
286.975 112.476
287.033 83.5316
287.091 65.7618
287.149 53.9654
287.207 45.7159
287.323 35.1086
287.439 28.7265
287.555 24.5388
287.671 21.6142
287.903 17.8481
288.136 15.5599
288.368 14.0383
288.600 12.9599
289.064 11.5408
289.529 10.6523
289.993 10.0444
290.458 9.60153
291.386 8.99657
292.315 8.59839
294.173 8.09428
296.030 7.77594
297.888 7.54727
301.603 7.22239
309.033 6.79656
316.463 6.49084
331.324 6.01889
346.184 5.62430
361.045 5.24552
375.905 4.81627
383.335 4.53396
387.050 4.35193
390.766 4.11785
392.623 3.96916
394.481 3.78769
396.338 3.55801
398.196 3.25464
399.125 3.06312
400.053 2.83660
400.982 2.57051
401.911 2.27547
402.375 2.13741
402.840 2.04395
403.304 2.08118
403.768 2.48955
403.885 2.71632
404.001 3.02934
404.117 3.46049
404.233 4.05612
404.291 4.43633
404.349 4.88526
404.407 5.41895
404.465 6.05373
404.523 6.81488
404.581 7.72929
404.697 10.1889
404.813 13.9128
404.929 19.7863
405.046 29.5736
405.104 37.0063
405.162 47.1704
405.220 61.5295
405.278 82.4806
405.336 114.566
405.394 166.433
405.452 257.192
405.481 329.305
405.510 432.316
405.539 584.674
405.568 818.602
405.597 1190.01
405.626 1784.74
405.663 2939.58
405.700 3785.78
405.737 3118.95
405.774 2004.59
405.797 1498.14
405.820 1140.89
405.866 709.670
405.912 480.488
405.958 347.452
406.004 264.117
406.050 208.630
406.142 141.654
406.234 104.159
406.326 80.9985
406.510 54.7965
406.694 40.9000
406.878 32.5477
407.062 27.0750
407.246 23.2604
407.615 18.3631
407.983 15.4022
408.351 13.4430
408.719 12.0614
409.455 10.2549
410.191 9.13434
410.927 8.37430
411.663 7.82563
413.136 7.08546
414.608 6.60683
416.080 6.26907
417.552 6.01556
420.497 5.65378
423.442 5.40045
429.331 5.04825
435.220 4.79313
441.109 4.58213
452.887 4.21220
464.665 3.85031
476.444 3.44580
488.222 2.92509
494.111 2.56469
497.056 2.33218
500.000 2.03686
502.384 1.72062
503.576 1.52326
504.768 1.29488
505.364 1.17294
505.960 1.05701
506.556 0.976155
507.152 1.01811
507.450 1.16041
507.599 1.29248
507.748 1.48821
507.897 1.77596
508.046 2.19987
508.120 2.48355
508.195 2.83096
508.269 3.25866
508.344 3.78857
508.418 4.45017
508.493 5.28373
508.642 7.71471
508.716 9.50794
508.791 11.8989
508.865 15.1565
508.940 19.7131
509.014 26.2971
509.089 36.2075
509.163 51.9322
509.238 78.6956
509.312 128.900
509.350 171.858
509.387 237.414
509.424 343.929
509.461 528.585
509.498 875.929
509.517 1162.28
509.536 1565.59
509.568 2565.51
509.600 3304.24
509.632 2722.72
509.664 1741.56
509.695 1116.44
509.726 752.238
509.756 535.023
509.787 398.684
509.818 308.340
509.848 246.117
509.909 168.274
509.971 123.280
510.032 95.0054
510.154 62.5953
510.277 45.3147
510.399 34.9351
510.522 28.1653
510.644 23.4786
510.889 17.5164
511.134 13.9629
511.379 11.6409
511.624 10.0228
512.114 7.93610
512.604 6.66073
513.094 5.80342
513.584 5.18669
514.564 4.35168
515.544 3.80135
517.503 3.08319
519.463 2.59031
521.422 2.19144
525.342 1.49504
527.301 1.16723
529.261 0.863491
531.221 0.639262
531.711 0.611471
532.201 0.603268
532.691 0.621487
533.180 0.675546
533.670 0.778606
533.915 0.854045
534.160 0.949227
534.405 1.06786
534.650 1.21423
535.140 1.61302
535.630 2.20498
536.120 3.08211
536.610 4.39188
537.100 6.38037
537.590 9.48002
538.080 14.4952
538.570 23.0542
539.059 38.8107
539.304 51.8871
539.549 71.2577
539.794 101.355
540.039 151.018
540.284 240.008
540.407 312.509
540.529 418.244
540.652 579.097
540.774 835.010
540.897 1260.47
541.019 1979.65
541.160 3268.78
541.300 4235.49
541.441 3511.18
541.581 2262.10
541.699 1533.46
541.818 1078.26
541.936 791.504
542.054 603.970
542.291 385.635
542.528 269.530
542.764 200.734
543.001 156.633
543.474 105.164
543.947 77.1761
544.421 60.1305
544.894 48.8891
545.367 41.0302
546.313 30.9347
547.260 24.8434
548.206 20.8265
549.153 18.0048
551.046 14.3359
552.939 12.0741
554.832 10.5462
556.724 9.44518
560.510 7.95825
564.296 6.98921
571.868 5.76320
579.440 4.97151
587.011 4.37324
602.155 3.40876
617.298 2.50316
624.870 2.01514
632.441 1.47930
640.013 0.894361
643.799 0.609233
647.585 0.402819
648.531 0.383851
649.478 0.389619
649.951 0.404915
650.424 0.430705
650.897 0.469125
651.371 0.522806
651.844 0.595027
652.317 0.689834
652.790 0.812370
653.264 0.969156
653.737 1.16860
654.210 1.42147
655.156 2.14916
656.103 3.33492
657.049 5.32540
657.996 8.83878
658.469 11.6157
658.942 15.5381
659.416 21.2616
659.889 29.9598
660.362 43.9093
660.835 67.9539
661.308 113.831
661.545 153.648
661.782 215.524
662.018 317.907
662.255 501.302
662.373 649.603
662.491 862.374
662.610 1173.35
662.728 1627.45
662.914 2671.13
663.100 3462.33
663.286 2872.18
663.472 1840.11
663.669 1123.75
663.867 729.728
664.064 505.934
664.261 370.307
664.458 282.865
664.655 223.549
665.050 150.704
665.444 109.370
665.839 83.6358
666.628 54.4240
667.416 38.9425
668.205 29.6588
668.994 23.5960
669.783 19.3822
671.361 13.9824
672.939 10.7097
676.094 6.95727
679.249 4.83450
682.405 3.42446
685.560 2.38857
688.716 1.58723
691.871 0.974036
693.449 0.742118
695.027 0.571612
695.816 0.514327
696.605 0.479421
697.393 0.470580
698.182 0.492394
698.577 0.516541
698.971 0.550596
699.366 0.595506
699.760 0.652324
700.549 0.806571
701.338 1.02460
702.127 1.32077
702.915 1.71338
704.493 2.88918
706.071 4.84267
707.649 8.09566
709.226 13.6564
710.804 23.7082
711.593 31.9477
712.382 44.4217
712.776 53.6737
713.171 67.5194
713.368 78.5012
713.466 86.3305
713.565 97.2634
713.664 114.430
713.713 127.693
713.762 147.119
713.812 178.404
713.836 202.412
713.861 236.239
713.886 287.057
713.910 368.149
713.935 509.184
713.947 618.199
713.959 764.614
713.980 1078.01
713.990 1208.45
714.000 1233.80
714.010 1116.84
714.020 909.066
714.031 690.896
714.041 513.834
714.050 394.396
714.059 306.860
714.068 243.314
714.077 197.486
714.086 163.410
714.095 138.371
714.104 119.357
714.113 105.095
714.131 85.6505
714.149 73.9860
714.186 62.6299
714.222 58.8018
714.258 58.2043
714.330 60.7428
714.403 64.9247
714.475 69.4978
714.620 78.7455
714.910 97.2704
715.199 117.143
715.779 166.773
716.358 239.904
716.937 355.960
717.516 552.989
718.096 910.564
718.675 1584.32
719.238 2663.64
719.800 3484.72
720.363 2914.12
720.925 1905.34
721.355 1354.52
721.786 991.060
722.216 751.087
722.646 588.143
723.506 390.708
724.367 281.336
725.227 214.618
726.088 170.862
727.809 118.533
729.529 89.3051
731.250 71.1210
732.971 58.9162
734.692 50.2546
738.134 38.9201
741.575 31.9270
745.017 27.2281
748.459 23.8721
755.342 19.4185
762.226 16.6038
769.109 14.6609
775.993 13.2325
789.760 11.2465
803.526 9.88011
817.293 8.75641
820.735 8.44869
824.177 8.05766
825.898 7.77713
826.758 7.58814
827.618 7.33867
828.049 7.17793
828.479 6.98092
828.909 6.73239
829.339 6.40986
829.554 6.21230
829.770 5.98805
829.985 5.74481
830.200 5.52499
830.307 5.46850
830.415 5.51620
830.522 5.80546
830.630 6.68557
830.684 7.61368
830.738 9.19971
830.764 10.3981
830.791 12.0125
830.818 14.2236
830.845 17.3005
830.859 19.3147
830.872 21.7247
830.885 24.6760
830.899 28.2696
830.912 32.7575
830.926 38.3442
830.939 45.4979
830.953 54.6595
830.966 66.7760
830.980 82.8748
830.993 105.078
831.006 136.008
831.020 180.962
831.033 247.132
831.047 347.309
831.060 499.095
831.080 839.026
831.100 1100.52
831.110 1061.93
831.120 925.496
831.140 610.101
831.156 428.887
831.172 312.386
831.188 236.322
831.204 185.684
831.236 124.902
831.268 91.6928
831.300 71.4897
831.332 58.3214
831.396 42.5721
831.461 33.7771
831.525 28.2980
831.589 24.6142
831.653 21.9947
831.781 18.5558
831.909 16.4292
832.038 14.9970
832.166 13.9725
832.422 12.6119
832.679 11.7537
832.935 11.1639
833.191 10.7335
833.704 10.1457
834.217 9.76037
835.243 9.27716
836.269 8.97702
837.294 8.76488
839.346 8.46895
843.448 8.08707
847.551 7.81055
863.963 6.98554
880.374 6.27154
896.785 5.52712
913.196 4.62885
921.402 4.05690
929.608 3.33696
933.710 2.89529
937.813 2.38058
941.916 1.78092
946.019 1.11050
948.070 0.783526
950.122 0.529596
950.635 0.491766
951.147 0.470841
951.660 0.471834
952.173 0.501255
952.686 0.567622
953.199 0.682127
953.712 0.859760
954.224 1.12059
954.737 1.49221
955.250 2.01258
955.763 2.73559
956.276 3.73810
956.789 5.13383
957.302 7.09301
957.814 9.88179
958.327 13.9262
958.840 19.9456
959.353 29.2076
959.866 44.1129
960.379 69.5608
960.892 116.712
961.148 156.072
961.404 214.598
961.661 305.424
961.917 453.199
962.174 705.452
962.430 1145.35
962.715 1927.54
963.000 2536.09
963.285 2133.18
963.570 1397.68
963.855 900.378
964.139 611.948
964.424 440.823
964.709 333.510
964.993 262.431
965.278 213.077
965.847 150.827
966.416 114.391
966.985 91.1098
968.124 63.8646
969.262 48.8920
970.401 39.6408
971.539 33.4448
972.678 29.0448
974.954 23.2673
977.231 19.6768
979.508 17.2428
981.785 15.4876
986.339 13.1222
990.893 11.5908
995.446 10.5037
1000.00 9.67808
1008.84 8.49280
1017.68 7.59300
1026.52 6.81039
1035.36 6.03322
1044.19 5.13755
1048.61 4.58214
1053.03 3.89059
1055.24 3.46699
1057.45 2.97060
1059.66 2.38266
1061.87 1.69602
1062.98 1.33119
1064.08 0.993014
1065.19 0.783577
1065.46 0.777925
1065.74 0.804276
1066.01 0.873404
1066.29 0.999946
1066.57 1.20495
1066.84 1.51516
1067.12 1.97109
1067.40 2.63054
1067.67 3.58308
1067.95 4.95202
1068.22 6.94341
1068.50 9.88678
1068.78 14.3600
1069.05 21.3308
1069.33 32.7150
1069.61 52.4560
1069.88 89.6632
1070.02 121.181
1070.16 168.638
1070.30 243.390
1070.43 367.455
1070.57 584.680
1070.71 975.368
1070.86 1646.76
1071.00 2167.75
1071.15 1827.14
1071.29 1202.68
1071.39 894.417
1071.49 678.793
1071.68 424.128
1071.87 290.055
1072.07 213.080
1072.26 164.611
1072.45 132.408
1072.84 93.1899
1073.23 70.8783
1073.61 56.8999
1074.38 40.7072
1075.16 31.8567
1075.93 26.3788
1076.70 22.6917
1077.48 20.0555
1079.02 16.5529
1080.57 14.3346
1082.11 12.7983
1083.66 11.6635
1086.75 10.0714
1089.84 8.96707
1096.03 7.38489
1102.21 6.04915
1105.31 5.33102
1108.40 4.49119
1109.94 3.99457
1111.49 3.42422
1113.04 2.76222
1114.58 2.00894
1115.35 1.62260
1116.13 1.28425
1116.51 1.16728
1116.90 1.12283
1117.29 1.20385
1117.48 1.31800
1117.67 1.50314
1117.87 1.78501
1118.06 2.19418
1118.25 2.77882
1118.45 3.60649
1118.64 4.78346
1118.83 6.44759
1119.03 8.83560
1119.22 12.3190
1119.41 17.5520
1119.61 25.5780
1119.80 38.4639
1119.99 60.3355
1120.19 100.656
1120.28 133.963
1120.38 182.314
1120.48 256.721
1120.57 373.535
1120.67 568.228
1120.77 890.256
1120.88 1513.84
1121.00 1999.93
1121.12 1687.03
1121.24 1113.15
1121.36 695.678
1121.49 464.023
1121.62 331.091
1121.75 250.063
1121.87 196.673
1122.00 160.211
1122.26 114.339
1122.51 87.5383
1122.77 70.5093
1123.28 50.5414
1123.79 39.4939
1124.30 32.6393
1124.81 28.0167
1125.32 24.7117
1126.34 20.3277
1127.36 17.5720
1128.38 15.6802
1129.40 14.3020
1131.44 12.4155
1133.48 11.1697
1137.56 9.57398
1141.65 8.53184
1145.73 7.73704
1153.89 6.42350
1162.06 5.09027
1166.14 4.29345
1170.22 3.32417
1172.26 2.74998
1174.30 2.10803
1176.35 1.41647
1178.39 0.781283
1178.90 0.668442
1179.41 0.597106
1179.92 0.588325
1180.17 0.616832
1180.43 0.674123
1180.68 0.767357
1180.94 0.904236
1181.19 1.09564
1181.45 1.35503
1181.70 1.69959
1181.96 2.15156
1182.21 2.73992
1182.47 3.50290
1182.98 5.78077
1183.49 9.65448
1184.00 16.4702
1184.25 21.7806
1184.51 29.1397
1184.77 39.6221
1185.02 54.8607
1185.28 77.8791
1185.53 114.208
1185.79 174.782
1186.04 282.875
1186.30 491.177
1186.42 666.381
1186.55 913.786
1186.78 1555.68
1187.00 2061.64
1187.23 1747.83
1187.45 1158.50
1187.68 753.963
1187.90 518.507
1188.13 377.705
1188.35 288.784
1188.58 229.512
1188.80 188.118
1189.25 135.518
1189.70 104.388
1190.15 84.3805
1191.05 60.7179
1191.95 47.5349
1192.85 39.3102
1193.75 33.7497
1194.65 29.7686
1196.45 24.4879
1198.25 21.1723
1200.06 18.9055
1201.86 17.2627
1205.46 15.0397
1209.06 13.6028
1212.66 12.5932
1216.26 11.8410
1223.46 10.7849
1230.66 10.0678
1245.07 9.12840
1259.47 8.51337
1273.88 8.05874
1302.69 7.38399
1331.50 6.84665
1360.30 6.33062
1374.71 6.04179
1389.11 5.68385
1396.32 5.44209
1399.92 5.28677
1403.52 5.08844
1407.12 4.80948
1408.92 4.61337
1410.72 4.34752
1411.62 4.17264
1412.52 3.95530
1413.42 3.67627
1414.32 3.30513
1414.77 3.07078
1415.22 2.79659
1415.67 2.48095
1416.12 2.14805
1416.35 2.00804
1416.57 1.94147
1416.80 2.06620
1416.91 2.28388
1417.02 2.69399
1417.14 3.44349
1417.25 4.78101
1417.30 5.84146
1417.36 7.27210
1417.42 9.26078
1417.47 12.0788
1417.53 16.2596
1417.59 22.4370
1417.64 32.0774
1417.70 47.9260
1417.75 76.4973
1417.78 98.9655
1417.81 130.956
1417.84 177.911
1417.87 249.056
1417.89 359.836
1417.92 533.247
1417.96 903.655
1418.00 1199.21
1418.04 1016.30
1418.08 669.883
1418.10 499.145
1418.13 383.508
1418.18 241.869
1418.23 167.072
1418.28 124.310
1418.33 96.7613
1418.38 78.3204
1418.48 55.9957
1418.59 43.1454
1418.69 35.1304
1418.89 25.8110
1419.09 20.6738
1419.30 17.4929
1419.50 15.3534
1419.70 13.8327
1420.11 11.8101
1420.51 10.5440
1420.92 9.67705
1421.32 9.04982
1422.13 8.19979
1422.94 7.64965
1423.76 7.26229
1424.57 6.97306
1426.19 6.56328
1427.81 6.28033
1431.05 5.89535
1434.30 5.62343
1437.54 5.40241
1444.03 5.01913
1450.51 4.64604
1457.00 4.23760
1463.49 3.75780
1465.11 3.62408
1466.73 3.48971
1467.54 3.42964
1468.35 3.39738
1468.76 3.42157
1468.96 3.46535
1469.16 3.56058
1469.37 3.78446
1469.47 4.01172
1469.57 4.42331
1469.62 4.76818
1469.67 5.28567
1469.72 6.11057
1469.77 7.50218
1469.82 10.2542
1469.85 12.6640
1469.87 16.5251
1469.90 23.6115
1469.92 37.1193
1469.94 49.7634
1469.95 68.2096
1469.96 101.408
1469.97 154.653
1469.99 244.300
1470.00 305.731
1470.01 244.327
1470.03 154.684
1470.04 95.0721
1470.06 62.7792
1470.07 43.2268
1470.09 32.2748
1470.10 24.7659
1470.11 20.0570
1470.14 14.2596
1470.17 10.8906
1470.20 8.83883
1470.26 6.60476
1470.32 5.44147
1470.37 4.77944
1470.49 4.07567
1470.60 3.72337
1470.72 3.52212
1470.94 3.30280
1471.17 3.18518
1471.40 3.10858
1471.86 3.00504
1472.78 2.86009
1473.69 2.73468
1475.52 2.48623
1477.36 2.22302
1481.02 1.63356
1484.68 0.972974
1486.52 0.652222
1488.35 0.407905
1489.26 0.356345
1489.72 0.361794
1489.95 0.374951
1490.18 0.396352
1490.64 0.468597
1491.10 0.589786
1491.55 0.774843
1492.01 1.04377
1492.47 1.42369
1492.93 1.95195
1493.39 2.68075
1493.84 3.68440
1494.30 5.07095
1494.76 7.00120
1495.22 9.72131
1495.68 13.6205
1496.13 19.3385
1496.59 27.9757
1497.05 41.5344
1497.51 63.9146
1497.97 103.378
1498.42 179.296
1498.65 244.361
1498.88 342.262
1499.11 493.254
1499.34 726.914
1499.67 1242.01
1500.00 1656.98
1500.33 1411.36
1500.66 935.977
1501.02 587.197
1501.38 393.119
1501.74 281.554
1502.10 213.162
1502.46 168.292
1502.82 137.459
1503.55 98.7145
1504.27 76.0627
1504.99 61.5880
1506.43 44.5597
1507.87 35.1099
1509.32 29.2188
1510.76 25.2371
1512.20 22.3859
1515.08 18.6025
1517.97 16.2241
1520.85 14.5984
1523.74 13.4197
1529.51 11.8256
1535.28 10.7970
1541.05 10.0758
1546.82 9.53994
1558.36 8.79038
1569.89 8.28368
1581.43 7.91232
1584.32 7.83435
1587.20 7.76241
1590.09 7.70454
1590.81 7.70016
1591.53 7.71878
1591.89 7.75907
1592.25 7.88502
1592.43 8.06275
1592.52 8.23661
1592.61 8.54573
1592.70 9.17432
1592.75 9.76472
1592.79 10.7700
1592.84 12.6869
1592.86 14.4164
1592.88 17.0360
1592.91 21.7346
1592.93 30.2634
1592.94 38.3423
1592.95 49.7610
1592.96 67.6539
1592.97 95.8631
1592.99 148.792
1593.00 184.068
1593.01 148.774
1593.03 95.8383
1593.04 67.6290
1593.05 49.7374
1593.06 38.3204
1593.07 30.7928
1593.09 21.9934
1593.12 17.4883
1593.14 14.6885
1593.16 12.9208
1593.20 10.9395
1593.25 9.86937
1593.29 9.25295
1593.38 8.58370
1593.46 8.25194
1593.55 8.06339
1593.72 7.86796
1594.07 7.71686
1594.42 7.65765
1595.11 7.60489
1595.81 7.57658
1598.59 7.50553
1604.15 7.39358
1615.26 7.20004
1637.50 6.88372
1659.74 6.62585
1665.30 6.56755
1670.85 6.51148
1676.41 6.45970
1679.19 6.44576
1679.89 6.45243
1680.58 6.48335
1680.93 6.53169
1681.28 6.67103
1681.45 6.86171
1681.54 7.04765
1681.62 7.37208
1681.71 8.03458
1681.76 8.66379
1681.80 9.70720
1681.84 11.7373
1681.86 13.5245
1681.89 16.1998
1681.91 20.9414
1681.93 29.3529
1681.94 36.7718
1681.95 47.9927
1681.96 65.5009
1681.97 91.7084
1681.99 143.767
1682.00 177.234
1682.01 143.763
1682.03 91.7009
1682.04 59.9019
1682.06 41.2725
1682.07 30.4882
1682.08 23.8807
1682.10 19.6010
1682.11 16.6932
1682.14 13.2265
1682.17 11.1876
1682.19 9.97309
1682.25 8.58595
1682.31 7.86213
1682.36 7.45094
1682.47 7.01609
1682.58 6.80142
1682.69 6.68163
1682.91 6.55773
1683.35 6.46335
1683.79 6.42680
1684.68 6.39494
1685.56 6.37831
1689.09 6.33719
1696.15 6.27021
1710.26 6.14304
1738.50 5.89247
1752.61 5.76045
1766.73 5.61075
1773.79 5.51859
1777.32 5.46252
1780.84 5.39349
1784.37 5.29927
1786.14 5.23376
1787.90 5.14453
1788.79 5.08502
1789.67 5.00960
1790.55 4.90955
1791.43 4.76866
1791.87 4.67329
1792.31 4.55260
1792.76 4.39451
1793.20 4.17932
1793.42 4.04050
1793.64 3.87509
1793.86 3.67747
1794.08 3.45516
1794.19 3.34648
1794.30 3.26597
1794.41 3.26766
1794.52 3.50111
1794.58 3.83079
1794.63 4.44794
1794.69 5.62493
1794.71 6.60910
1794.74 7.96751
1794.77 10.0326
1794.80 13.0366
1794.82 17.9275
1794.84 21.4558
1794.85 25.7008
1794.86 31.7308
1794.88 39.9271
1794.89 51.3360
1794.91 66.2735
1794.92 89.6410
1794.93 125.089
1794.95 180.286
1794.96 263.541
1794.98 444.709
1795.00 596.695
1795.01 579.264
1795.02 506.328
1795.04 338.475
1795.06 213.157
1795.08 144.988
1795.10 103.875
1795.13 79.7991
1795.15 63.2973
1795.17 52.4585
1795.21 38.4968
1795.25 30.3568
1795.30 25.1535
1795.38 19.0932
1795.47 15.6891
1795.55 13.5709
1795.64 12.1424
1795.73 11.1318
1795.90 9.77693
1796.07 8.93259
1796.24 8.35659
1796.41 7.93995
1796.75 7.37807
1797.10 7.01871
1797.44 6.76933
1797.78 6.58654
1798.47 6.33462
1799.15 6.16920
1799.84 6.05137
1800.52 5.96260
1801.89 5.83614
1803.26 5.74873
1806.01 5.63136
1808.75 5.55224
1811.49 5.49534
1812.86 5.47671
1814.23 5.47657
1814.92 5.49988
1815.60 5.58811
1815.94 5.71997
1816.11 5.85266
1816.29 6.09383
1816.46 6.60378
1816.54 7.10019
1816.63 7.96514
1816.67 8.67678
1816.71 9.72881
1816.76 11.3769
1816.80 14.0829
1816.84 19.2761
1816.86 23.9099
1816.89 30.8250
1816.91 43.0191
1816.93 64.4554
1816.94 83.1569
1816.95 108.034
1816.96 149.123
1816.97 204.994
1816.99 324.653
1817.00 404.393
1817.02 324.708
1817.03 205.061
1817.05 128.305
1817.06 87.4699
1817.07 63.1255
1817.09 47.8579
1817.12 30.8542
1817.14 22.2372
1817.17 17.1874
1817.20 14.1813
1817.26 10.7989
1817.31 9.02100
1817.37 8.00562
1817.43 7.35206
1817.48 6.92071
1817.60 6.38937
1817.71 6.08992
1817.93 5.78216
1818.16 5.63295
1818.39 5.54891
1818.84 5.46068
1819.74 5.38750
1820.64 5.35270
1822.45 5.31045
1824.25 5.27868
1831.47 5.17109
1838.70 5.06817
1845.92 4.96201
1860.36 4.72474
1874.80 4.42606
1889.25 4.00590
1896.47 3.71039
1903.69 3.31109
1907.30 3.05056
1910.91 2.72952
1914.52 2.32394
1918.14 1.79994
1919.94 1.48203
1921.75 1.12649
1923.55 0.751809
1925.36 0.442005
1925.81 0.402165
1926.26 0.393866
1926.71 0.432173
1927.16 0.539351
1927.62 0.750087
1928.07 1.11659
1928.29 1.38384
1928.52 1.72430
1928.97 2.71462
1929.42 4.33755
1929.87 7.03656
1930.32 11.6968
1930.77 20.2066
1931.00 27.1411
1931.23 37.1593
1931.45 52.1298
1931.68 75.3252
1931.90 113.505
1932.13 179.787
1932.35 304.190
1932.47 405.691
1932.58 546.030
1932.79 933.094
1933.00 1252.03
1933.21 1073.66
1933.42 713.254
1933.55 543.806
1933.68 422.340
1933.94 272.480
1934.20 190.814
1934.46 142.404
1934.72 111.509
1934.98 90.5867
1935.50 64.7680
1936.02 49.8869
1936.54 40.4652
1937.58 29.4536
1938.63 23.3670
1939.67 19.5779
1940.71 17.0156
1941.75 15.1782
1943.83 12.7325
1945.91 11.1872
1947.99 10.1233
1950.07 9.34577
1954.23 8.27891
1958.39 7.57184
1962.55 7.05800
1966.71 6.65758
1975.03 6.04024
1983.36 5.53165
1991.68 5.02892
2000.00 4.42699
2003.09 4.14471
2006.17 3.80581
2009.26 3.38211
2012.34 2.82828
2013.89 2.48124
2015.43 2.07351
2016.97 1.59880
2018.51 1.07939
2019.29 0.839197
2020.06 0.678074
2020.44 0.665087
2020.83 0.737059
2021.22 0.948639
2021.41 1.13375
2021.60 1.39187
2021.79 1.74898
2021.99 2.23593
2022.18 2.89713
2022.37 3.79539
2022.57 5.02131
2022.76 6.70859
2022.95 9.05986
2023.14 12.3713
2023.34 17.1879
2023.53 24.3613
2023.72 35.4332
2023.91 53.2038
2024.11 83.7649
2024.30 140.168
2024.40 186.884
2024.49 253.900
2024.59 352.491
2024.69 497.343
2024.84 855.487
2025.00 1148.98
2025.16 986.917
2025.32 659.690
2025.49 417.483
2025.66 281.432
2025.83 202.731
2026.00 154.387
2026.17 122.443
2026.34 100.489
2026.68 72.7484
2027.02 56.4783
2027.36 46.0279
2028.04 33.6852
2028.73 26.7994
2029.41 22.4941
2030.09 19.5743
2030.77 17.4773
2032.14 14.6832
2033.50 12.9197
2034.87 11.7090
2036.23 10.8273
2038.96 9.62794
2041.69 8.84774
2044.42 8.29559
2047.14 7.88120
2052.60 7.29103
2058.06 6.87926
2060.79 6.71310
2063.52 6.56707
2064.88 6.50288
2066.24 6.45237
2066.93 6.44294
2067.61 6.47645
2067.95 6.55083
2068.12 6.63247
2068.29 6.78525
2068.46 7.11537
2068.55 7.43760
2068.63 8.00890
2068.72 9.18508
2068.76 10.2938
2068.80 12.1303
2068.85 15.7006
2068.87 18.7499
2068.89 23.5254
2068.91 32.0804
2068.93 47.4883
2068.94 61.2757
2068.95 80.0672
2068.96 112.112
2068.97 159.574
2068.99 250.339
2069.00 313.335
2069.01 250.389
2069.03 159.635
2069.04 119.790
2069.05 90.0825
2069.06 55.6409
2069.08 38.1709
2069.10 28.8119
2069.12 22.7101
2069.13 18.9429
2069.17 14.3432
2069.20 11.8500
2069.24 10.3528
2069.31 8.72396
2069.38 7.90433
2069.45 7.43442
2069.59 6.94257
2069.73 6.70203
2069.87 6.56517
2070.15 6.41977
2070.71 6.29730
2071.27 6.23782
2072.39 6.16364
2073.51 6.10626
2077.99 5.90499
2082.48 5.70183
2086.96 5.46969
2091.44 5.16602
2093.69 4.95875
2095.93 4.67987
2097.05 4.49644
2098.17 4.26720
2099.29 3.97031
2100.41 3.56956
2100.97 3.31170
2101.53 3.00296
2102.09 2.63238
2102.65 2.20548
2102.93 1.98859
2103.21 1.80923
2103.49 1.75459
2103.63 1.83767
2103.77 2.06730
2103.91 2.55429
2104.05 3.51031
2104.12 4.28481
2104.19 5.36906
2104.26 6.90275
2104.33 9.10588
2104.40 12.3380
2104.47 17.2132
2104.54 24.8377
2104.61 37.3373
2104.68 59.1283
2104.72 76.2481
2104.75 100.272
2104.79 134.854
2104.82 185.918
2104.86 262.868
2104.89 378.924
2104.95 651.256
2105.00 876.315
2105.05 753.624
2105.11 503.901
2105.17 316.563
2105.23 212.685
2105.29 153.150
2105.35 117.114
2105.41 93.0841
2105.47 76.7713
2105.59 56.0433
2105.70 43.8917
2105.82 36.0859
2106.06 26.8618
2106.30 21.7170
2106.54 18.4919
2106.78 16.3034
2107.01 14.7310
2107.49 12.6369
2107.97 11.3146
2108.44 10.4078
2108.92 9.74869
2109.87 8.85512
2110.82 8.27852
2111.77 7.87445
2112.73 7.57466
2114.63 7.15680
2116.54 6.87666
2118.44 6.67305
2120.34 6.51646
2124.15 6.28675
2127.96 6.12151
2135.58 5.88779
2143.20 5.71945
2150.81 5.58488
2166.05 5.36875
2196.52 5.03006
2226.99 4.73597
2257.46 4.44540
2287.92 4.12202
2303.16 3.92388
2310.78 3.80394
2318.39 3.65744
2326.01 3.46036
2329.82 3.32575
2333.63 3.14577
2335.53 3.02805
2337.44 2.88145
2339.34 2.69174
2341.25 2.43429
2342.20 2.26721
2343.15 2.06440
2344.10 1.81558
2345.05 1.51377
2345.53 1.34766
2346.01 1.18702
2346.48 1.07311
2346.96 1.12899
2347.20 1.32365
2347.43 1.76800
2347.67 2.71349
2347.79 3.53347
2347.91 4.75003
2348.03 6.59362
2348.15 9.47234
2348.27 14.1556
2348.39 22.2130
2348.45 28.5323
2348.51 37.1856
2348.57 49.7993
2348.62 68.1795
2348.68 97.0123
2348.74 142.703
2348.80 220.968
2348.86 352.984
2348.93 600.974
2349.00 806.615
2349.07 693.015
2349.14 460.242
2349.21 293.918
2349.28 198.915
2349.35 143.340
2349.43 108.821
2349.50 86.0955
2349.57 70.3730
2349.71 50.5884
2349.86 39.0137
2350.00 31.6047
2350.29 22.9222
2350.58 18.0998
2350.86 15.1101
2351.15 13.0881
2351.44 11.6496
2352.02 9.74244
2352.59 8.55191
2353.17 7.74168
2353.74 7.15646
2354.89 6.36893
2356.04 5.86459
2357.19 5.51312
2358.34 5.25338
2360.64 4.89252
2362.94 4.65084
2365.24 4.47479
2367.54 4.33899
2372.14 4.13938
2374.45 4.06390
2376.75 4.00248
2379.05 3.96004
2380.20 3.95219
2381.35 3.96428
2382.50 4.02477
2383.07 4.09945
2383.65 4.24708
2384.22 4.57607
2384.51 4.90794
2384.80 5.50854
2384.94 6.01156
2385.09 6.77138
2385.23 7.99572
2385.37 10.1332
2385.44 11.8789
2385.52 14.4498
2385.59 18.4566
2385.66 25.1944
2385.73 37.8010
2385.77 48.6487
2385.80 65.4751
2385.84 93.4146
2385.88 144.061
2385.89 185.655
2385.91 246.286
2385.93 336.636
2385.95 468.346
2385.97 748.697
2386.00 932.762
2386.03 748.966
2386.05 468.691
2386.07 349.456
2386.08 263.644
2386.12 163.242
2386.15 108.342
2386.18 77.7427
2386.21 58.1380
2386.24 45.6417
2386.30 30.5324
2386.37 22.2972
2386.43 17.3350
2386.56 11.9510
2386.68 9.20919
2386.81 7.64847
2386.93 6.66259
2387.06 6.00942
2387.31 5.21380
2387.56 4.76711
2387.81 4.49050
2388.06 4.30661
2388.56 4.08263
2389.07 3.95482
2390.07 3.81588
2391.08 3.74008
2392.08 3.68977
2394.09 3.62034
2398.10 3.52321
2402.12 3.44295
2410.16 3.29661
2418.19 3.15538
2434.26 2.86555
2450.33 2.54267
2466.40 2.15268
2474.43 1.91364
2482.46 1.62507
2490.50 1.25635
2494.52 1.02602
2498.53 0.754828
2502.55 0.451256
2504.56 0.316625
2505.56 0.273900
2506.57 0.269466
2507.57 0.339059
2508.07 0.421745
2508.58 0.554864
2509.08 0.761062
2509.58 1.07528
2510.08 1.55314
2510.58 2.28667
2511.09 3.43811
2511.59 5.29586
2512.09 8.43877
2512.59 14.1169
2512.84 18.7264
2513.10 25.4047
2513.35 35.4590
2513.60 51.3433
2513.85 78.0221
2514.10 126.450
2514.23 166.132
2514.35 222.940
2514.48 307.190
2514.60 430.372
2515.00 978.338
2515.20 841.588
2515.40 553.233
2515.62 335.967
2515.85 218.462
2516.07 152.695
2516.30 113.156
2516.52 87.7544
2516.74 70.5119
2517.19 49.2968
2517.64 37.1296
2518.09 29.4943
2518.98 20.7016
2519.88 15.9798
2520.77 13.1586
2522.56 10.2351
2524.35 9.36494
2525.25 9.68329
2526.14 10.8619
2527.04 13.8855
2527.49 16.9434
2527.93 22.2881
2528.38 32.6853
2528.61 41.8943
2528.83 56.4698
2529.05 81.6038
2529.28 129.520
2529.39 170.927
2529.50 234.327
2529.61 334.860
2529.72 493.686
2529.86 788.040
2530.00 982.280
2530.14 785.979
2530.28 493.956
2530.39 329.506
2530.51 228.252
2530.63 165.242
2530.74 124.774
2530.97 78.0274
2531.20 53.6307
2531.43 39.3973
2531.67 30.4780
2532.13 20.3135
2532.59 14.9476
2533.05 11.7743
2533.98 8.32402
2534.90 6.55189
2535.83 5.49778
2537.67 4.30526
2539.52 3.63474
2541.37 3.18829
2545.07 2.59042
2548.77 2.16856
2552.47 1.82536
2559.86 1.23740
2567.26 0.693674
2570.96 0.436013
2574.66 0.222635
2576.51 0.164509
2577.43 0.161225
2578.36 0.185546
2579.28 0.250503
2580.21 0.376202
2581.13 0.595620
2582.06 0.963094
2582.98 1.57612
2583.90 2.61412
2584.83 4.44573
2585.29 5.88101
2585.75 7.88792
2586.22 10.7801
2586.68 15.0770
2587.14 21.7638
2587.60 32.7926
2588.07 52.5116
2588.30 68.4511
2588.53 91.5627
2588.76 126.378
2588.99 181.107
2589.22 270.790
2589.45 420.675
2590.00 947.271
2590.14 927.141
2590.28 814.143
2590.55 531.306
2590.81 345.319
2591.07 234.721
2591.32 168.213
2591.58 126.368
2591.84 98.4575
2592.10 79.0804
2592.61 54.7357
2593.13 40.5313
2593.64 31.5260
2594.67 21.0657
2595.70 15.3805
2596.74 11.8971
2597.77 9.57735
2598.80 7.93469
2600.86 5.77515
2602.92 4.41875
2607.05 2.78417
2611.17 1.79736
2615.29 1.11145
2619.42 0.606870
2621.48 0.410882
2623.54 0.253938
2625.60 0.141685
2626.63 0.105408
2627.66 0.0847090
2628.70 0.0819051
2629.73 0.0998764
2630.76 0.142190
2631.79 0.213263
2632.82 0.318575
2633.85 0.464948
2634.88 0.660910
2635.91 0.917189
2637.97 1.66876
2640.04 2.88042
2642.10 4.82756
2644.16 7.99882
2646.22 13.3208
2648.28 22.6883
2650.35 40.3772
2651.38 55.2414
2652.41 77.3356
2653.44 111.424
2654.47 166.257
2655.50 258.071
2656.53 414.195
2657.77 716.614
2659.00 973.966
2660.24 845.684
2661.47 567.349
2662.33 420.678
2663.20 318.880
2664.06 248.677
2664.92 199.442
2666.65 137.571
2668.38 102.007
2670.10 79.7020
2671.83 64.7653
2675.28 46.4617
2678.74 35.9513
2682.19 29.2637
2689.10 21.3734
2696.00 16.9301
2702.91 14.0919
2716.72 10.6408
2730.53 8.53255
2744.35 6.96244
2751.25 6.23143
2758.16 5.43756
2761.61 4.97028
2765.07 4.40342
2766.79 4.05811
2768.52 3.64983
2769.38 3.41455
2770.25 3.15660
2771.11 2.89789
2771.33 2.85814
2771.54 2.88790
2771.65 2.99529
2771.76 3.34357
2771.81 3.80776
2771.87 4.93853
2771.89 6.20072
2771.92 8.76547
2771.93 11.2427
2771.95 15.0034
2771.96 21.3854
2771.97 33.2894
2771.99 51.3560
2772.00 64.3224
2772.01 51.4829
2772.03 33.4399
2772.04 21.5126
2772.05 15.0998
2772.07 11.3099
2772.08 8.94721
2772.11 6.26017
2772.13 4.96560
2772.19 3.74061
2772.24 3.21301
2772.34 2.74809
2772.45 2.53779
2772.66 2.31512
2772.87 2.16911
2773.71 1.69199
2774.55 1.21477
2775.39 0.771016
2775.82 0.628871
2776.24 0.645052
2776.45 0.769340
2776.66 1.02599
2776.87 1.49162
2777.08 2.28374
2777.18 2.86928
2777.29 3.62125
2777.50 5.87164
2777.71 9.79354
2777.82 12.7891
2777.92 16.8770
2778.03 22.6257
2778.13 30.7413
2778.24 42.6149
2778.34 60.5779
2778.45 88.8576
2778.55 135.450
2778.66 215.765
2778.76 357.153
2778.88 622.998
2779.00 847.416
2779.12 736.658
2779.24 497.868
2779.34 355.915
2779.43 263.226
2779.53 202.059
2779.62 160.502
2779.81 109.786
2780.00 81.6435
2780.19 64.2208
2780.38 52.7326
2780.76 38.7341
2781.14 30.7442
2781.53 25.6705
2781.91 22.2003
2782.29 19.6995
2783.05 16.3420
2783.81 14.2108
2784.57 12.7425
2785.33 11.6711
2786.86 10.2051
2788.38 9.24457
2789.90 8.55927
2791.43 8.04012
2794.47 7.29119
2797.52 6.76103
2803.61 6.01886
2809.71 5.48305
2815.80 5.04699
2827.99 4.30944
2840.17 3.61950
2852.36 2.84145
2858.46 2.33718
2861.50 2.02073
2864.55 1.63065
2867.60 1.12648
2869.12 0.818631
2870.64 0.483512
2871.40 0.325659
2872.17 0.210840
2872.55 0.190981
2872.93 0.218670
2873.31 0.325025
2873.69 0.562846
2874.07 1.02982
2874.26 1.40217
2874.45 1.90965
2874.64 2.61146
2874.83 3.57984
2875.02 4.93916
2875.21 6.88098
2875.40 9.73790
2875.59 14.0242
2875.78 20.7838
2875.97 31.8837
2876.16 51.5970
2876.26 67.2347
2876.35 89.4800
2876.45 122.087
2876.54 171.413
2876.64 248.123
2876.73 368.348
2877.00 856.937
2877.13 743.175
2877.27 493.506
2877.36 363.855
2877.45 274.852
2877.54 212.970
2877.63 170.096
2877.82 116.122
2878.00 85.2742
2878.18 66.0635
2878.36 53.2728
2878.73 37.7411
2879.10 28.9303
2879.46 23.3862
2880.19 16.9546
2880.93 13.4095
2881.66 11.2025
2882.39 9.70418
2883.12 8.62703
2884.58 7.18114
2886.05 6.25893
2886.78 5.91633
2887.51 5.64252
2887.88 5.54373
2888.24 5.51708
2888.42 5.59082
2888.61 5.89334
2888.70 6.33765
2888.79 7.50220
2888.84 8.94653
2888.86 10.2325
2888.88 12.1806
2888.90 15.6720
2888.93 22.4089
2888.94 28.6218
2888.95 37.4437
2888.96 51.3607
2888.97 74.7887
2888.99 115.899
2889.00 144.726
2889.01 115.951
2889.03 74.8484
2889.04 53.0312
2889.05 38.4947
2889.06 29.2977
2889.07 23.7316
2889.09 16.5200
2889.11 12.8741
2889.14 10.6268
2889.16 9.26764
2889.20 7.66530
2889.29 6.31343
2889.37 5.76452
2889.54 5.31180
2889.71 5.11608
2890.06 4.91617
2890.40 4.79309
2891.77 4.45941
2893.15 4.20424
2894.52 3.98801
2897.27 3.63089
2900.01 3.34025
2911.00 2.49612
2932.97 1.31333
2943.96 0.811003
2954.94 0.369574
2960.43 0.190984
2963.18 0.120657
2965.93 0.0707325
2968.67 0.0557945
2970.05 0.0729152
2971.42 0.123573
2972.79 0.248332
2973.48 0.374488
2974.16 0.599780
2974.51 0.785729
2974.85 1.06275
2975.19 1.50445
2975.54 2.27670
2975.71 2.90510
2975.88 3.83315
2976.05 5.28992
2976.22 7.75546
2976.40 12.5124
2976.48 16.7366
2976.57 23.4248
2976.65 35.2395
2976.74 58.5702
2976.78 79.5794
2976.83 113.236
2976.87 170.168
2976.91 267.109
2977.00 563.929
2977.02 543.816
2977.05 471.229
2977.09 296.584
2977.13 195.973
2977.17 132.816
2977.20 94.0786
2977.24 69.3844
2977.32 41.5538
2977.39 27.3464
2977.47 19.2279
2977.55 14.1887
2977.70 8.55242
2977.85 5.65581
2978.00 3.98165
2978.15 2.93162
2978.31 2.23233
2978.61 1.39245
2978.91 0.930664
2979.22 0.653155
2979.52 0.476332
2980.13 0.276766
2980.74 0.180372
2981.95 0.114638
2983.17 0.122335
2984.38 0.165957
2985.60 0.233905
2986.81 0.322494
2989.24 0.560634
2991.67 0.889314
2994.10 1.32905
2996.53 1.90937
3001.39 3.66831
3006.25 6.70441
3011.11 12.0857
3013.54 16.2903
3014.76 18.9696
3015.37 20.5281
3015.67 21.5063
3015.75 21.8756
3015.82 22.4930
3015.86 23.0824
3015.90 24.2649
3015.92 25.4212
3015.94 27.5086
3015.96 31.7790
3015.96 35.3870
3015.97 41.3335
3015.99 53.0219
3016.00 60.6901
3016.01 53.1511
3016.03 41.5525
3016.04 32.7678
3016.06 28.5510
3016.08 26.4235
3016.09 25.2487
3016.13 24.1143
3016.16 23.6518
3016.23 23.3521
3016.30 23.3469
3016.56 23.9366
3017.10 25.5912
3018.18 29.4502
3020.33 39.4062
3022.47 53.5460
3024.62 74.1771
3026.77 105.250
3028.92 153.597
3031.07 231.135
3033.22 356.542
3036.11 624.090
3039.00 854.682
3041.89 746.240
3044.78 504.056
3046.88 371.535
3048.98 280.421
3051.08 218.239
3053.18 174.872
3057.38 120.716
3061.58 89.6700
3065.78 70.1852
3069.98 57.0804
3078.38 40.8599
3086.78 31.3273
3095.18 25.0263
3103.58 20.4441
3107.78 18.5404
3109.88 17.6599
3110.93 17.2545
3111.45 17.1364
3111.58 17.1758
3111.71 17.3670
3111.78 17.6533
3111.84 18.3838
3111.88 19.2573
3111.91 21.1637
3111.93 23.1381
3111.94 26.4412
3111.96 32.7627
3111.97 38.0681
3111.97 45.7491
3111.99 63.0146
3112.00 74.6361
3112.01 63.0301
3112.03 45.7607
3112.04 35.8505
3112.05 29.8575
3112.07 23.7555
3112.09 20.9356
3112.12 19.5508
3112.16 18.2121
3112.20 17.6325
3112.29 17.1221
3112.38 16.9035
3112.74 16.5682
3113.46 16.2348
3114.89 15.6681
3117.75 14.5842
3123.46 12.4708
3129.18 10.3134
3134.90 7.95502
3140.62 5.18990
3143.48 3.59770
3146.34 1.91872
3147.77 1.13527
3148.49 0.800971
3149.20 0.539933
3149.92 0.396179
3150.28 0.388439
3150.63 0.438403
3150.99 0.561439
3151.35 0.776053
3151.70 1.10711
3152.06 1.58652
3152.42 2.25825
3152.78 3.17384
3153.13 4.41262
3153.49 6.06763
3154.21 11.2451
3154.92 20.6153
3155.28 27.9933
3155.64 38.1788
3155.99 52.5380
3156.35 73.0269
3156.71 103.001
3157.07 147.429
3157.42 214.290
3157.78 314.414
3158.39 579.493
3159.00 806.503
3159.61 711.715
3160.22 497.791
3160.90 330.609
3161.58 234.009
3162.26 176.527
3162.94 140.082
3163.62 115.558
3164.30 98.2142
3165.66 75.7226
3167.02 62.0032
3168.38 52.8883
3171.10 41.6352
3173.82 35.0067
3176.54 30.6439
3179.25 27.5495
3180.61 26.3262
3181.29 25.8270
3181.46 25.7532
3181.63 25.7850
3181.72 25.9331
3181.80 26.4114
3181.85 27.0436
3181.89 28.4873
3181.91 30.0084
3181.93 32.8840
3181.95 39.0643
3181.96 45.2269
3181.97 54.0055
3181.99 71.9522
3182.00 82.7980
3182.01 70.6414
3182.03 54.0571
3182.04 41.5238
3182.06 35.1843
3182.08 31.7964
3182.09 29.8288
3182.12 27.7830
3182.15 26.8245
3182.22 25.9237
3182.28 25.5311
3182.41 25.1600
3182.53 24.9638
3183.04 24.5004
3184.05 23.8084
3186.08 22.6265
3190.13 20.7294
3198.22 18.0602
3206.32 16.2180
3214.42 14.8277
3230.61 12.7680
3246.81 11.1885
3263.00 9.77850
3271.10 9.05459
3279.20 8.25173
3287.30 7.26445
3291.34 6.63270
3295.39 5.82900
3299.44 4.72088
3301.47 3.97511
3303.49 3.03341
3304.50 2.46999
3305.52 1.84494
3306.53 1.18717
3307.54 0.623275
3308.05 0.497720
3308.30 0.524713
3308.55 0.649603
3308.80 0.918500
3309.06 1.40146
3309.31 2.20754
3309.56 3.51156
3309.82 5.60366
3310.07 8.98595
3310.32 14.5723
3310.58 24.1306
3310.83 41.3433
3310.96 55.1636
3311.08 74.5659
3311.21 102.867
3311.33 144.396
3311.46 207.352
3311.59 301.136
3311.79 538.847
3312.00 743.879
3312.21 654.514
3312.41 450.513
3312.61 309.597
3312.81 223.062
3313.00 169.031
3313.20 133.732
3313.59 92.1920
3313.98 69.6628
3314.38 55.8992
3314.77 46.8247
3315.55 35.7538
3316.34 29.3742
3317.12 25.2733
3317.91 22.4318
3318.69 20.3548
3320.26 17.5193
3321.83 15.6778
3322.62 14.9834
3323.40 14.4092
3323.80 14.1779
3324.19 14.0344
3324.38 14.0611
3324.58 14.3408
3324.68 14.7994
3324.78 16.0587
3324.82 17.6237
3324.85 19.0536
3324.87 21.2522
3324.90 25.2357
3324.92 32.6357
3324.94 39.7352
3324.95 50.0421
3324.96 66.6452
3324.97 95.1830
3324.99 145.333
3325.00 177.309
3325.01 145.392
3325.03 95.2461
3325.04 70.3496
3325.05 54.7287
3325.06 43.4755
3325.07 36.6118
3325.09 27.9466
3325.11 23.2686
3325.13 20.4890
3325.15 18.7117
3325.20 16.6573
3325.28 14.9006
3325.36 14.1747
3325.53 13.5586
3325.70 13.2779
3326.04 12.9681
3326.37 12.7610
3327.04 12.4343
3327.71 12.1562
3329.05 11.6763
3330.40 11.2650
3333.08 10.5824
3335.76 10.0264
3341.13 9.14031
3346.50 8.42353
3357.24 7.20368
3362.60 6.62717
3365.29 6.34176
3366.63 6.21969
3367.30 6.24496
3367.47 6.32564
3367.64 6.57485
3367.72 6.91253
3367.81 7.78046
3367.85 8.82418
3367.89 11.1780
3367.91 13.6232
3367.93 18.2010
3367.94 22.3075
3367.95 27.9073
3367.96 36.3742
3367.97 49.3433
3367.99 75.2034
3368.00 92.6177
3368.01 75.2996
3368.03 49.3089
3368.04 32.6640
3368.06 23.8511
3368.07 18.5860
3368.08 15.2776
3368.11 11.4887
3368.13 9.65515
3368.19 7.92431
3368.24 7.18086
3368.35 6.56718
3368.45 6.32290
3368.66 6.11882
3368.87 6.02857
3369.72 5.86508
3371.41 5.65252
3374.80 5.24553
3381.56 4.36919
3388.33 3.36337
3395.10 2.19034
3398.48 1.54543
3401.87 0.895972
3405.25 0.339360
3406.10 0.240710
3406.94 0.171355
3407.79 0.141790
3408.64 0.166154
3409.48 0.263681
3410.33 0.460827
3411.17 0.794463
3412.02 1.31673
3412.87 2.10264
3413.71 3.26222
3414.56 4.96052
3415.40 7.45161
3416.25 11.1384
3417.10 16.6826
3417.94 25.2144
3418.79 38.7556
3419.63 61.1082
3420.48 99.7873
3421.33 170.080
3422.17 300.726
3423.09 541.643
3424.00 750.881
3424.92 662.356
3425.83 457.499
3426.41 356.302
3426.99 282.366
3428.15 189.736
3429.31 138.147
3430.46 106.967
3431.62 86.6618
3432.78 72.6688
3435.10 54.9691
3437.42 44.4600
3439.73 37.6013
3444.37 29.2961
3449.00 24.4983
3453.63 21.3845
3458.27 19.1971
3462.90 17.5694
3472.17 15.2826
3481.44 13.7121
3490.71 12.5173
3495.34 12.0028
3497.66 11.7634
3498.82 11.6661
3499.39 11.6948
3499.54 11.7674
3499.68 11.9865
3499.76 12.2822
3499.83 13.0197
3499.87 13.8858
3499.90 15.7782
3499.92 17.6752
3499.94 21.0835
3499.96 27.8688
3499.96 33.7896
3499.97 42.7477
3499.99 62.0664
3500.00 73.9641
3500.01 62.1349
3500.03 42.8344
3500.04 33.0912
3500.05 26.9112
3500.07 20.1786
3500.09 16.8485
3500.11 15.1595
3500.15 13.4793
3500.19 12.7435
3500.27 12.1032
3500.35 11.8471
3500.52 11.6364
3500.68 11.5472
3501.33 11.4070
3502.63 11.2557
3505.24 10.9892
3510.45 10.4596
3515.67 9.89593
3520.88 9.24356
3526.09 8.39236
3528.70 7.81808
3531.30 7.05640
3532.61 6.56316
3533.91 5.95692
3535.21 5.18926
3536.52 4.18758
3537.17 3.56885
3537.82 2.85952
3538.47 2.06725
3539.12 1.28003
3539.45 0.981827
3539.77 0.891654
3539.94 1.00081
3540.10 1.28727
3540.26 1.84725
3540.42 2.82845
3540.59 4.50126
3540.75 7.31232
3540.91 12.0866
3541.08 20.4253
3541.24 35.6671
3541.32 48.0302
3541.40 65.3740
3541.48 90.8418
3541.57 128.069
3541.65 183.842
3541.73 267.156
3541.86 485.367
3542.00 674.459
3542.14 596.577
3542.27 414.996
3542.41 281.166
3542.55 201.422
3542.69 152.363
3542.83 121.002
3542.97 99.5552
3543.11 84.4260
3543.39 64.6735
3543.67 52.6579
3543.95 44.7097
3544.50 35.0148
3545.06 29.3910
3545.62 25.7617
3546.18 23.2391
3546.74 21.3920
3547.85 18.8643
3548.97 17.2210
3550.08 16.0635
3551.20 15.2030
3553.43 14.0001
3555.66 13.1905
3560.12 12.1457
3564.58 11.4760
3569.04 10.9928
3571.27 10.7957
3573.51 10.6246
3574.62 10.5532
3575.74 10.5080
3576.29 10.5175
3576.85 10.6147
3577.13 10.7804
3577.41 11.2663
3577.55 11.9274
3577.62 12.5645
3577.69 13.6550
3577.76 15.8290
3577.79 17.8050
3577.83 20.9311
3577.86 26.6806
3577.88 31.5926
3577.90 38.4923
3577.92 49.9605
3577.93 67.9919
3577.95 99.5340
3577.97 160.247
3577.98 247.958
3578.00 310.355
3578.02 248.106
3578.03 160.427
3578.05 116.151
3578.06 86.3897
3578.07 66.7776
3578.08 53.5183
3578.11 37.6164
3578.13 28.9731
3578.15 23.8176
3578.18 20.5156
3578.23 16.7009
3578.27 14.6722
3578.32 13.4685
3578.42 12.1812
3578.51 11.5296
3578.61 11.1603
3578.80 10.7693
3579.18 10.4613
3579.56 10.3349
3580.33 10.2129
3581.09 10.1406
3584.15 9.94217
3587.21 9.77847
3590.27 9.62871
3596.39 9.35638
3602.50 9.10983
3614.74 8.66627
3620.86 8.46114
3623.92 8.36381
3625.45 8.32641
3626.21 8.35005
3626.59 8.51893
3626.69 8.69124
3626.78 9.13581
3626.83 9.68875
3626.88 10.9887
3626.90 12.4084
3626.93 15.2378
3626.95 21.9125
3626.96 28.8448
3626.97 39.7268
3626.99 58.4503
3627.00 71.2076
3627.01 58.5233
3627.03 39.8184
3627.04 28.9308
3627.05 21.9874
3627.07 15.4668
3627.10 12.5312
3627.12 11.1091
3627.17 9.75794
3627.21 9.17749
3627.31 8.70118
3627.40 8.51526
3627.77 8.30892
3628.52 8.23151
3630.02 8.16944
3633.01 8.07071
3639.00 7.88134
3644.99 7.69433
3647.98 7.60587
3649.48 7.58332
3650.22 7.65673
3650.41 7.74771
3650.60 8.00393
3650.69 8.34497
3650.79 9.20999
3650.83 10.2699
3650.88 12.7157
3650.90 15.4065
3650.93 20.4142
3650.94 25.0161
3650.95 31.5383
3650.96 43.0295
3650.97 61.7965
3650.99 93.3621
3651.00 116.136
3651.01 93.4339
3651.03 61.8845
3651.04 38.6043
3651.06 27.1320
3651.07 20.7816
3651.09 17.0049
3651.12 13.0029
3651.15 11.0652
3651.21 9.31736
3651.27 8.60250
3651.39 8.02179
3651.51 7.79733
3651.75 7.62254
3651.99 7.55370
3652.96 7.46103
3654.89 7.38232
3658.76 7.25143
3666.49 6.98762
3681.96 6.39143
3689.69 6.02057
3693.55 5.79705
3697.42 5.52763
3701.29 5.17433
3703.22 4.93963
3705.15 4.63350
3706.12 4.43747
3707.08 4.19749
3708.05 3.89232
3709.02 3.48754
3709.50 3.22965
3709.98 2.92221
3710.47 2.55358
3710.95 2.12231
3711.43 1.69106
3711.68 1.57812
3711.92 1.74698
3712.04 2.08847
3712.16 2.79399
3712.28 4.19345
3712.40 6.97744
3712.46 9.40039
3712.52 12.9470
3712.58 18.4760
3712.64 27.1293
3712.70 41.8214
3712.76 67.3759
3712.79 87.4436
3712.82 115.309
3712.85 154.363
3712.88 209.291
3712.94 369.127
3713.00 506.877
3713.06 446.792
3713.12 303.877
3713.16 226.024
3713.20 172.405
3713.24 134.857
3713.29 109.250
3713.37 76.7861
3713.46 58.1588
3713.54 46.4764
3713.63 38.6324
3713.80 29.0267
3713.97 23.4389
3714.14 19.8653
3714.31 17.4092
3714.47 15.6381
3714.81 13.2438
3715.15 11.7241
3715.49 10.6751
3715.83 9.90832
3716.51 8.86038
3717.19 8.17640
3717.87 7.68965
3718.55 7.32304
3719.90 6.79666
3721.26 6.42751
3722.62 6.15437
3723.30 6.08504
3723.64 6.22570
3723.72 6.40040
3723.81 6.86819
3723.85 7.45381
3723.89 8.77203
3723.91 10.1615
3723.93 12.8089
3723.95 18.5976
3723.96 24.4883
3723.97 33.1423
3723.99 49.3926
3724.00 60.3335
3724.01 49.4223
3724.03 33.1764
3724.04 20.9417
3724.06 14.7216
3724.08 11.5774
3724.09 9.90167
3724.13 8.13194
3724.16 7.30616
3724.23 6.57878
3724.29 6.28242
3724.56 5.92892
3725.09 5.76218
3726.15 5.59096
3728.27 5.31637
3732.51 4.82845
3736.76 4.34885
3741.00 3.83160
3745.24 3.23803
3749.49 2.52543
3753.73 1.64874
3755.85 1.15152
3756.91 0.916165
3757.44 0.878059
3757.71 1.13513
3757.78 1.41838
3757.84 2.12783
3757.87 2.95428
3757.91 4.73117
3757.92 6.54707
3757.94 9.54819
3757.96 15.7172
3757.97 20.6576
3757.97 28.6562
3757.99 45.5581
3758.00 56.7276
3758.01 45.5907
3758.03 28.6927
3758.04 19.9677
3758.05 14.2977
3758.07 8.21427
3758.09 5.35171
3758.11 3.82071
3758.15 2.33965
3758.19 1.68686
3758.27 1.11135
3758.34 0.875076
3758.66 0.571521
3759.30 0.384336
3759.93 0.277464
3760.57 0.222875
3761.21 0.239909
3761.84 0.366482
3762.48 0.665397
3762.80 0.909828
3763.11 1.24022
3763.43 1.68373
3763.75 2.27313
3764.39 4.08938
3765.02 7.31254
3765.34 9.80838
3765.66 13.2268
3765.98 17.9843
3766.29 24.7380
3766.61 34.5596
3766.93 49.2626
3767.25 72.0327
3767.57 108.648
3767.88 169.648
3768.20 272.184
3768.60 482.914
3769.00 669.149
3769.40 590.970
3769.80 404.247
3770.19 272.430
3770.59 192.768
3770.98 144.011
3771.37 112.712
3771.76 91.4614
3772.16 76.4201
3772.94 57.0019
3773.73 45.2722
3774.51 37.5832
3776.08 28.2735
3777.66 22.9409
3779.23 19.5228
3780.80 17.1557
3782.37 15.4222
3785.51 13.0443
3788.65 11.4770
3794.93 9.48110
3801.22 8.18895
3807.50 7.20891
3820.07 5.59726
3832.63 3.98833
3838.92 3.06215
3845.20 2.00053
3848.34 1.42054
3851.48 0.836002
3854.62 0.328487
3856.19 0.167731
3856.98 0.133495
3857.37 0.132635
3857.76 0.145009
3858.55 0.218826
3859.34 0.377386
3860.12 0.652717
3860.91 1.08882
3861.69 1.75132
3862.48 2.73312
3863.26 4.17687
3864.05 6.30145
3864.83 9.45949
3865.62 14.2160
3866.40 21.5669
3867.19 33.2572
3867.98 52.6576
3868.76 86.3608
3869.55 148.033
3870.33 263.946
3871.17 475.631
3872.00 662.611
3872.84 587.232
3873.67 405.747
3874.37 291.687
3875.08 216.888
3875.78 167.874
3876.48 134.692
3877.89 94.3604
3879.29 71.7382
3880.70 57.6743
3882.11 48.2597
3884.92 36.6590
3887.73 29.8975
3890.54 25.5185
3893.35 22.4636
3896.16 20.2131
3901.78 17.1097
3907.41 15.0486
3913.03 13.5494
3918.65 12.3773
3929.90 10.5248
3935.52 9.68276
3941.14 8.78879
3946.77 7.70459
3949.58 7.00658
3952.39 6.10945
3953.79 5.54321
3955.20 4.86108
3956.61 4.02042
3958.01 2.96844
3958.71 2.34993
3959.42 1.68002
3960.12 1.01142
3960.47 0.725027
3960.82 0.529763
3961.17 0.521444
3961.35 0.640893
3961.52 0.888273
3961.70 1.32216
3961.88 2.02470
3962.05 3.12223
3962.23 4.79995
3962.40 7.39165
3962.58 11.4153
3962.76 17.7826
3962.93 28.0774
3963.11 45.5793
3963.28 76.4321
3963.46 134.374
3963.63 244.860
3963.82 446.583
3964.00 625.085
3964.18 555.990
3964.37 387.574
3964.50 296.148
3964.63 231.680
3964.75 186.259
3964.88 153.702
3965.14 111.623
3965.39 86.7783
3965.65 70.7404
3965.91 59.7993
3966.42 46.0275
3966.93 37.8558
3967.44 32.5348
3968.47 26.0795
3969.49 22.3476
3970.52 19.9276
3971.54 18.2329
3972.57 16.9789
3974.62 15.2405
3976.67 14.0851
3980.77 12.6186
3984.87 11.6997
3988.97 11.0494
3997.17 10.1469
4005.37 9.50920
4013.57 9.00370
4021.77 8.57224
4025.87 8.37513
4027.92 8.28453
4028.95 8.25922
4029.46 8.32045
4029.72 8.61110
4029.78 8.88527
4029.85 9.55755
4029.88 10.3276
4029.91 11.9594
4029.94 16.2753
4029.96 21.4102
4029.97 31.5983
4029.99 46.2481
4030.00 55.1189
4030.01 45.1861
4030.03 31.6622
4030.04 22.8854
4030.05 17.8647
4030.08 13.2137
4030.10 11.1525
4030.13 10.1562
4030.18 9.21466
4030.23 8.81614
4030.43 8.34780
4030.84 8.19449
4031.65 8.12068
4033.27 8.03792
4036.51 7.89146
4043.00 7.60759
4049.49 7.32567
4052.73 7.18799
4054.35 7.14022
4055.17 7.20218
4055.37 7.29249
4055.57 7.55384
4055.67 7.91042
4055.77 8.83889
4055.82 10.0093
4055.87 12.7326
4055.90 15.8881
4055.93 22.0959
4055.94 28.1080
4055.95 37.1872
4055.96 54.3256
4055.98 82.5482
4055.99 129.961
4056.00 158.435
4056.01 126.165
4056.03 82.6553
4056.04 56.2251
4056.05 40.3745
4056.06 30.7214
4056.07 25.0367
4056.09 17.8666
4056.11 14.3356
4056.15 10.9167
4056.20 9.42816
4056.28 8.19708
4056.37 7.71580
4056.54 7.33638
4056.71 7.19024
4057.39 7.01843
4058.76 6.91745
4061.50 6.77696
4066.97 6.49674
4072.45 6.18572
4077.92 5.81858
4083.40 5.34450
4086.13 5.03208
4088.87 4.62610
4091.61 4.04900
4092.98 3.64512
4094.34 3.10847
4095.03 2.76595
4095.71 2.35613
4096.40 1.86199
4097.08 1.27692
4097.76 0.670218
4098.11 0.478721
4098.28 0.481309
4098.45 0.618546
4098.62 0.994716
4098.79 1.80661
4098.88 2.49104
4098.96 3.44929
4099.05 4.82799
4099.13 6.78314
4099.22 9.66432
4099.30 13.8968
4099.39 20.4400
4099.47 30.6691
4099.56 47.7851
4099.65 77.2745
4099.73 132.403
4099.82 236.514
4099.90 420.817
4099.99 585.703
4100.08 518.586
4100.16 354.867
4100.25 234.562
4100.34 164.461
4100.43 122.271
4100.52 95.4417
4100.61 77.4230
4100.70 64.7391
4100.88 48.4343
4101.06 38.6036
4101.23 32.2143
4101.59 24.5057
4101.95 20.0956
4102.30 17.2891
4102.66 15.3499
4103.02 13.9418
4103.73 12.0306
4104.44 10.7968
4105.16 9.93262
4105.87 9.29186
4107.29 8.39460
4108.72 7.78700
4111.57 6.98485
4114.42 6.44428
4117.27 6.02544
4120.12 5.67239
4121.55 5.52495
4122.26 5.51441
4122.62 5.73257
4122.71 5.96747
4122.80 6.58082
4122.84 7.34006
4122.88 9.04108
4122.91 10.9379
4122.93 14.4488
4122.95 22.1848
4122.96 29.6777
4122.97 42.3413
4122.99 65.0618
4123.00 79.3266
4123.01 65.1066
4123.03 42.3958
4123.04 30.6058
4123.05 23.3352
4123.07 15.1871
4123.09 11.4232
4123.11 9.50655
4123.15 7.59226
4123.19 6.73597
4123.27 6.00609
4123.36 5.71518
4123.52 5.47679
4123.69 5.37651
4124.35 5.22112
4125.66 5.05627
4128.30 4.76629
4133.57 4.17776
4138.85 3.52406
4144.12 2.74895
4149.40 1.78415
4152.03 1.21616
4154.67 0.623359
4155.99 0.360527
4156.65 0.257919
4157.31 0.190752
4157.97 0.179695
4158.63 0.257302
4159.29 0.475937
4159.62 0.663747
4159.94 0.922886
4160.27 1.27601
4160.60 1.75083
4160.93 2.38596
4161.26 3.23183
4161.92 5.89548
4162.25 7.97923
4162.58 10.8413
4162.91 14.8620
4163.24 20.5922
4163.57 29.0202
4163.90 41.7253
4164.23 61.7171
4164.56 94.3095
4164.89 150.007
4165.22 246.366
4165.61 436.316
4166.00 606.175
4166.39 536.842
4166.78 366.429
4167.08 267.707
4167.38 201.012
4167.68 155.975
4167.98 125.016
4168.57 86.7034
4169.17 64.9835
4169.77 51.4120
4170.36 42.3249
4171.56 31.1606
4172.75 24.6830
4173.94 20.5098
4176.33 15.4738
4178.72 12.5266
4181.10 10.5545
4185.88 7.95101
4190.65 6.12360
4195.42 4.57438
4200.20 3.08055
4202.59 2.32825
4203.78 1.98105
4204.38 1.92793
4204.52 2.01599
4204.67 2.32879
4204.75 2.76804
4204.82 3.87138
4204.86 5.20956
4204.90 8.06088
4204.92 10.9954
4204.93 15.9388
4204.95 26.2232
4204.96 34.6596
4204.97 48.1820
4204.99 76.4275
4205.00 94.9408
4205.01 76.4807
4205.03 48.2420
4205.04 28.7339
4205.06 18.9055
4205.07 13.3758
4205.09 10.0487
4205.12 6.40444
4205.15 4.69415
4205.21 3.12352
4205.27 2.46470
4205.39 1.90249
4205.51 1.66539
4205.76 1.43768
4206.00 1.30679
4206.97 0.959548
4208.92 0.445818
4209.89 0.276454
4210.86 0.210112
4211.35 0.234048
4211.83 0.310350
4212.32 0.453800
4212.80 0.683774
4213.29 1.02592
4213.78 1.51452
4214.26 2.19597
4214.75 3.13389
4215.23 4.41679
4215.72 6.16989
4216.21 8.57364
4216.69 11.8935
4217.18 16.5289
4217.66 23.0967
4218.15 32.5752
4218.64 46.5613
4219.12 67.7308
4219.61 100.646
4220.09 152.984
4220.58 236.380
4221.29 431.015
4222.00 603.993
4222.71 538.737
4223.42 376.030
4224.07 265.553
4224.72 195.319
4225.37 150.335
4226.02 120.448
4227.32 84.6309
4228.62 64.7652
4229.91 52.4679
4231.21 44.2482
4233.81 34.0920
4236.41 28.1431
4239.00 24.2639
4241.60 21.5394
4244.20 19.5190
4249.39 16.7084
4254.59 14.8208
4259.78 13.4363
4262.38 12.8655
4263.68 12.6106
4264.32 12.5218
4264.65 12.6022
4264.81 13.0455
4264.89 14.3406
4264.93 17.0775
4264.95 20.7774
4264.97 29.7408
4264.99 40.4580
4265.00 47.2034
4265.01 40.4911
4265.03 29.7793
4265.04 21.9932
4265.06 18.0670
4265.09 14.9166
4265.16 13.2312
4265.30 12.5633
4265.57 12.3107
4266.11 12.1534
4267.20 11.9421
4269.37 11.5629
4273.72 10.8603
4282.42 9.48761
4286.76 8.67216
4288.94 8.16231
4291.11 7.51503
4293.29 6.60666
4294.37 5.97434
4295.46 5.13623
4296.00 4.60209
4296.55 3.96436
4297.09 3.19583
4297.63 2.29037
4298.18 1.35011
4298.45 1.04415
4298.72 1.21166
4298.86 1.72351
4298.99 2.82961
4299.13 5.03659
4299.20 6.84491
4299.26 9.35231
4299.33 12.9705
4299.40 18.2029
4299.47 25.9166
4299.53 37.5643
4299.60 55.6598
4299.67 84.6621
4299.74 132.454
4299.81 210.210
4299.90 386.225
4299.99 542.145
4300.08 483.493
4300.18 338.465
4300.25 251.834
4300.32 193.393
4300.39 153.543
4300.46 125.703
4300.60 90.7441
4300.74 70.4934
4300.89 57.5786
4301.03 48.8807
4301.31 38.0133
4301.60 31.5916
4301.88 27.4268
4302.17 24.5181
4302.45 22.3800
4303.02 19.4537
4303.59 17.5531
4304.16 16.2195
4304.73 15.2322
4305.86 13.8571
4307.00 12.9391
4309.28 11.7645
4311.55 11.0194
4313.83 10.4838
4318.38 9.72122
4322.93 9.15989
4327.48 8.69483
4336.57 7.88853
4345.67 7.11587
4354.77 6.26922
4363.87 5.22040
4368.42 4.55585
4370.70 4.17417
4371.84 3.98465
4372.40 3.95403
4372.69 4.18285
4372.76 4.43200
4372.83 5.06616
4372.87 5.82415
4372.90 7.41915
4372.94 11.9442
4372.96 17.6597
4372.97 29.0731
4372.99 44.0934
4373.00 54.4083
4373.01 44.1449
4373.03 29.1337
4373.04 21.3724
4373.05 16.4379
4373.07 10.7910
4373.09 8.12782
4373.11 6.75413
4373.15 5.36593
4373.19 4.73676
4373.27 4.19498
4373.36 3.96817
4373.68 3.67473
4374.34 3.47179
4375.65 3.15923
4378.28 2.49407
4380.90 1.73450
4383.53 0.909750
4384.84 0.523067
4385.50 0.361331
4386.15 0.240895
4386.81 0.187556
4387.14 0.197919
4387.46 0.241874
4388.12 0.469029
4388.45 0.678650
4388.78 0.976699
4389.10 1.39024
4389.43 1.95093
4389.76 2.70581
4390.09 3.71762
4390.74 6.89528
4391.07 9.35926
4391.40 12.7224
4391.73 17.3696
4392.06 23.8920
4392.38 33.2208
4392.71 46.8647
4393.04 67.3307
4393.37 98.8500
4393.70 148.468
4394.02 226.757
4394.51 412.428
4395.00 578.984
4395.49 516.671
4395.98 359.491
4396.45 247.363
4396.93 178.578
4397.41 135.748
4397.88 107.904
4398.36 88.8091
4398.84 75.1943
4399.79 57.3762
4400.74 46.4844
4401.69 39.2576
4403.60 30.4082
4405.51 25.2657
4407.41 21.9359
4409.32 19.6126
4411.22 17.9019
4415.03 15.5456
4418.85 13.9916
4426.47 12.0334
4434.09 10.8073
4441.71 9.92789
4445.53 9.56453
4449.34 9.23802
4453.15 8.95756
4454.10 8.91071
4455.06 8.91360
4455.53 8.98170
4456.01 9.23454
4456.25 9.60521
4456.37 9.97314
4456.48 10.6297
4456.60 11.9646
4456.66 13.2282
4456.72 15.3339
4456.78 19.3905
4456.81 22.9399
4456.84 28.3037
4456.87 37.6411
4456.90 55.0965
4456.92 69.8821
4456.93 92.0761
4456.95 126.360
4456.96 176.406
4456.98 276.229
4457.00 344.167
4457.02 276.451
4457.04 176.679
4457.06 121.116
4457.07 87.0758
4457.09 65.5522
4457.10 51.4567
4457.14 35.0865
4457.17 26.4585
4457.20 21.2910
4457.23 18.1451
4457.30 14.5491
4457.36 12.6325
4457.43 11.5230
4457.55 10.3313
4457.68 9.73282
4457.81 9.39072
4458.07 9.03033
4458.58 8.73801
4459.10 8.60883
4460.13 8.46789
4461.16 8.37118
4465.27 8.06335
4473.51 7.50326
4481.74 6.93925
4485.85 6.64511
4487.91 6.49958
4488.94 6.45368
4489.46 6.53844
4489.59 6.65024
4489.71 6.95693
4489.78 7.35532
4489.84 8.30818
4489.87 9.38000
4489.91 11.5980
4489.94 17.2150
4489.95 23.5770
4489.97 36.5340
4489.99 54.1081
4490.00 66.8638
4490.02 54.1769
4490.03 36.6179
4490.04 25.9836
4490.05 19.9708
4490.08 13.7393
4490.10 10.8131
4490.13 9.35391
4490.18 7.93785
4490.22 7.32570
4490.32 6.80094
4490.42 6.59190
4490.81 6.34625
4491.59 6.22453
4493.14 6.08142
4496.26 5.81053
4502.48 5.21241
4508.71 4.49313
4514.94 3.58581
4518.05 3.03164
4521.17 2.39175
4524.28 1.65825
4527.39 0.863509
4528.95 0.492464
4529.73 0.337738
4530.51 0.223515
4531.29 0.174543
4532.06 0.230229
4532.84 0.453485
4533.23 0.658131
4533.62 0.948360
4534.01 1.35009
4534.40 1.89424
4534.79 2.62605
4535.18 3.60605
4535.96 6.68560
4536.34 9.06930
4536.73 12.3213
4537.12 16.8269
4537.51 23.1348
4537.90 32.1552
4538.29 45.3470
4538.68 65.1354
4539.07 95.6177
4539.46 143.625
4539.85 219.432
4540.42 398.825
4541.00 560.464
4541.58 500.832
4542.15 348.444
4542.61 257.451
4543.06 195.706
4543.51 153.891
4543.96 124.977
4544.86 88.9509
4545.76 68.3009
4546.66 55.2785
4547.56 46.4889
4549.36 35.5565
4551.16 29.1423
4552.96 24.9723
4554.76 22.0593
4556.56 19.9133
4560.17 16.9595
4563.77 15.0094
4565.57 14.2568
4567.37 13.6091
4569.17 13.0627
4570.07 12.9091
4570.30 12.9557
4570.52 13.1940
4570.64 13.5623
4570.75 14.5601
4570.80 15.8462
4570.86 18.8753
4570.89 22.2275
4570.92 29.0179
4570.93 35.2792
4570.94 45.5320
4570.96 63.3351
4570.97 95.1605
4570.99 144.888
4571.00 178.120
4571.01 144.980
4571.03 95.2685
4571.04 72.7708
4571.05 58.6924
4571.06 40.5346
4571.08 30.9661
4571.10 25.7206
4571.13 20.0419
4571.16 17.3333
4571.23 14.9352
4571.29 13.9334
4571.43 13.1101
4571.56 12.7778
4571.82 12.4829
4572.09 12.3326
4573.15 11.9860
4575.26 11.4713
4577.38 11.0086
4579.50 10.5701
4583.74 9.71014
4585.85 9.26864
4586.91 9.09000
4587.18 9.09452
4587.44 9.21779
4587.58 9.43762
4587.71 10.0674
4587.77 10.8848
4587.84 12.8889
4587.87 15.1733
4587.91 19.9739
4587.92 24.7606
4587.94 32.4602
4587.96 47.6345
4587.97 76.0536
4587.99 117.580
4588.00 143.581
4588.01 117.733
4588.03 76.2456
4588.04 54.6425
4588.05 40.2884
4588.06 31.3674
4588.08 26.0039
4588.10 19.4132
4588.12 15.9289
4588.17 12.5914
4588.21 11.1084
4588.31 9.85508
4588.40 9.34372
4588.58 8.91665
4588.77 8.72512
4589.50 8.37045
4590.97 7.85430
4592.45 7.25807
4593.92 6.48209
4594.65 5.98504
4595.39 5.37831
4596.13 4.61741
4596.86 3.63862
4597.23 3.04432
4597.60 2.37431
4597.97 1.65029
4598.33 0.981076
4598.52 0.774349
4598.70 0.806752
4598.89 1.36214
4598.98 2.01393
4599.07 3.09496
4599.16 4.84701
4599.25 7.67804
4599.35 12.3063
4599.44 20.0606
4599.53 33.5430
4599.62 58.1624
4599.67 77.9094
4599.71 105.671
4599.76 144.987
4599.81 200.339
4599.90 371.025
4599.99 523.353
4600.08 468.350
4600.18 329.182
4600.27 222.489
4600.37 159.677
4600.47 121.176
4600.57 96.7350
4600.66 79.9965
4600.76 68.2303
4600.95 52.8888
4601.15 43.4761
4601.34 37.2599
4601.73 29.6055
4602.12 25.1361
4602.51 22.2427
4602.90 20.2200
4603.29 18.7287
4604.07 16.6757
4604.85 15.3299
4605.63 14.3737
4606.40 13.6574
4607.96 12.6446
4609.52 11.9524
4612.63 11.0399
4615.74 10.4381
4618.86 9.99174
4625.09 9.33487
4637.54 8.42321
4649.99 7.70705
4662.45 7.02997
4674.90 6.26686
4681.13 5.77181
4684.25 5.45683
4687.36 5.05617
4690.47 4.49508
4692.03 4.10399
4693.59 3.58127
4695.14 2.83309
4695.92 2.32279
4696.70 1.68370
4697.48 0.910367
4697.87 0.526291
4698.26 0.293245
4698.35 0.298817
4698.45 0.352014
4698.65 0.686137
4698.84 1.58542
4698.94 2.41904
4699.03 3.68507
4699.13 5.64304
4699.23 8.65391
4699.33 13.4378
4699.42 21.3082
4699.52 35.0614
4699.62 60.0592
4699.67 80.5539
4699.72 109.114
4699.76 151.085
4699.81 210.056
4699.90 376.423
4699.99 527.337
4700.08 471.140
4700.17 325.465
4700.23 248.672
4700.29 194.443
4700.35 155.342
4700.41 127.694
4700.53 91.6647
4700.64 70.3237
4700.76 56.6435
4700.88 47.3110
4701.12 35.6829
4701.36 28.8244
4701.60 24.3890
4702.07 19.0837
4702.55 16.0568
4703.02 14.1423
4703.26 13.4507
4703.50 12.9434
4703.62 12.8135
4703.73 12.9380
4703.79 13.2957
4703.85 14.3075
4703.88 15.5297
4703.91 17.9927
4703.94 24.3734
4703.96 31.4921
4703.97 43.8914
4703.99 63.5602
4704.00 75.9542
4704.01 63.5765
4704.03 43.8743
4704.04 33.4557
4704.05 26.6072
4704.08 19.7798
4704.10 16.5168
4704.12 14.8675
4704.17 13.2222
4704.22 12.4599
4704.31 11.7448
4704.40 11.3851
4704.78 10.6528
4705.53 9.81539
4706.28 9.22358
4707.03 8.76613
4708.52 8.09315
4710.02 7.61194
4713.02 6.94347
4716.01 6.47335
4722.01 5.78283
4728.00 5.22636
4739.99 4.19820
4745.98 3.66384
4748.97 3.38765
4750.47 3.26402
4751.22 3.27371
4751.60 3.54498
4751.69 3.82947
4751.78 4.55612
4751.83 5.44234
4751.88 7.46115
4751.90 9.64314
4751.92 13.6113
4751.95 22.0838
4751.96 30.4537
4751.97 42.8568
4751.99 66.4723
4752.00 82.6691
4752.02 66.5680
4752.03 42.9757
4752.04 29.7051
4752.05 21.6444
4752.08 13.2148
4752.10 9.22944
4752.13 7.23565
4752.18 5.29673
4752.23 4.44526
4752.32 3.73348
4752.42 3.44930
4752.81 3.11601
4753.59 2.95525
4755.15 2.77218
4758.27 2.43260
4764.51 1.71874
4770.75 0.968003
4776.99 0.290018
4778.55 0.168300
4780.11 0.0868806
4781.67 0.0647231
4783.23 0.129434
4784.01 0.206428
4784.79 0.321830
4785.57 0.484023
4786.35 0.703395
4787.91 1.36881
4789.47 2.46775
4791.03 4.24427
4792.59 7.11119
4794.15 11.7978
4795.71 19.6601
4797.27 33.3720
4798.83 58.5491
4799.61 78.8621
4800.39 107.576
4801.17 148.508
4801.95 206.553
4803.48 379.791
4805.00 536.880
4806.53 481.297
4808.05 336.679
4809.17 254.660
4810.28 197.290
4811.40 157.463
4812.51 129.304
4814.74 93.4698
4815.86 81.7029
4816.42 76.8391
4816.70 74.6858
4816.84 73.8914
4816.91 74.1014
4816.94 75.2783
4816.96 76.9408
4816.97 80.6852
4817.00 88.7190
4817.03 80.3336
4817.05 76.0338
4817.06 74.1204
4817.10 72.5297
4817.18 71.3324
4817.33 70.0310
4817.63 67.9274
4818.24 64.1740
4819.46 57.8208
4821.90 48.3560
4826.77 36.8060
4831.64 30.1406
4836.51 25.8514
4841.38 22.8751
4846.25 20.6944
4856.00 17.7112
4865.74 15.7569
4875.48 14.3642
4880.35 13.8033
4885.22 13.3090
4887.66 13.0838
4890.09 12.8749
4892.53 12.7074
4893.14 12.6967
4893.75 12.7576
4894.05 12.8844
4894.36 13.2737
4894.51 13.8090
4894.66 15.2275
4894.74 17.0048
4894.77 18.6182
4894.81 21.2641
4894.85 26.0270
4894.87 29.9634
4894.89 35.8245
4894.91 45.0187
4894.93 60.3695
4894.95 87.7883
4894.96 140.530
4894.98 216.159
4895.00 268.524
4895.02 216.373
4895.04 140.794
4895.05 94.1325
4895.07 67.5218
4895.09 50.6665
4895.10 40.7592
4895.13 29.3513
4895.17 23.7294
4895.20 20.4090
4895.23 18.3558
4895.30 16.0849
4895.36 14.8900
4895.43 14.2030
4895.56 13.4685
4895.82 12.8881
4896.08 12.6615
4896.60 12.4677
4897.13 12.3724
4899.22 12.1619
4903.40 11.8527
4907.58 11.5731
4911.77 11.3098
4920.13 10.8168
4928.50 10.3494
4936.86 9.88245
4945.23 9.37950
4949.41 9.09461
4953.59 8.76793
4955.69 8.58134
4957.78 8.37565
4959.87 8.16954
4960.39 8.14224
4960.91 8.18500
4961.18 8.30298
4961.44 8.68280
4961.57 9.20898
4961.70 10.5639
4961.76 12.2371
4961.83 16.0054
4961.86 20.0454
4961.89 27.4858
4961.91 34.3386
4961.93 44.2659
4961.94 59.9064
4961.96 86.5459
4961.98 134.044
4962.00 165.592
4962.02 134.228
4962.04 86.7798
4962.06 62.6510
4962.07 47.7207
4962.08 37.1629
4962.10 30.5019
4962.13 22.1647
4962.16 17.7472
4962.21 13.2304
4962.27 11.2186
4962.39 9.47954
4962.50 8.77090
4962.73 8.19382
4962.96 7.95235
4963.42 7.72011
4963.88 7.58066
4965.72 7.13740
4967.56 6.62559
4969.40 5.93763
4970.32 5.48760
4971.24 4.93326
4972.16 4.23326
4973.07 3.33472
4973.53 2.79310
4973.99 2.19115
4974.45 1.56082
4974.91 1.03155
4975.14 0.922052
4975.37 1.08015
4975.60 1.80014
4975.72 2.55204
4975.83 3.73249
4975.95 5.59839
4976.06 8.53611
4976.18 13.2276
4976.29 20.9065
4976.41 33.9198
4976.52 56.9637
4976.64 99.7276
4976.75 179.986
4976.88 333.264
4977.00 471.703
4977.13 424.463
4977.25 299.487
4977.34 229.273
4977.43 179.485
4977.52 144.564
4977.61 119.626
4977.78 87.5997
4977.96 68.7291
4978.14 56.5145
4978.32 48.1445
4978.67 37.6247
4979.03 31.3606
4979.38 27.2752
4979.74 24.4072
4980.09 22.3024
4980.80 19.4198
4981.52 17.5485
4982.23 16.2381
4982.94 15.2694
4984.36 13.9313
4985.78 13.0468
4987.20 12.4147
4988.63 11.9371
4991.47 11.2546
4994.31 10.7803
5000.00 10.1377
5006.24 9.65845
5012.48 9.29071
5024.95 8.70581
5037.42 8.19963
5049.90 7.69987
5062.37 7.14813
5074.85 6.44475
5081.09 5.95449
5084.20 5.63439
5087.32 5.22260
5090.44 4.64320
5092.00 4.24004
5093.56 3.70304
5094.34 3.35814
5095.12 2.94007
5095.90 2.42461
5096.68 1.78573
5097.46 1.02827
5097.85 0.666246
5098.24 0.477331
5098.43 0.571250
5098.63 0.955672
5098.82 1.92009
5098.92 2.80179
5099.02 4.11007
5099.12 6.10518
5099.21 9.13000
5099.31 13.9240
5099.41 21.6115
5099.51 34.7543
5099.60 57.9664
5099.70 101.792
5099.75 138.051
5099.80 187.794
5099.88 314.394
5099.92 394.744
5099.94 437.015
5099.96 486.768
5099.99 557.106
5100.02 521.043
5100.04 492.188
5100.06 466.805
5100.10 410.035
5100.18 296.070
5100.24 234.153
5100.30 188.536
5100.41 129.400
5100.52 95.3344
5100.63 74.2760
5100.75 60.2840
5100.86 50.6481
5101.08 38.3712
5101.31 31.0166
5101.53 26.2343
5101.98 20.4498
5102.43 17.1202
5102.88 14.9828
5103.33 13.4941
5103.77 12.4030
5104.67 10.9020
5105.57 9.91576
5107.36 8.67613
5109.16 7.90162
5110.95 7.34789
5114.54 6.54789
5118.13 5.92760
5121.72 5.36999
5128.90 4.24095
5132.49 3.60597
5136.07 2.88839
5139.66 2.06750
5143.25 1.15329
5145.05 0.697071
5146.84 0.311092
5147.74 0.184583
5148.64 0.144130
5149.53 0.245114
5149.98 0.375590
5150.43 0.579884
5150.88 0.881007
5151.33 1.30810
5151.78 1.90098
5152.23 2.71190
5152.67 3.81967
5153.12 5.32480
5153.57 7.38547
5154.02 10.2129
5154.47 14.1496
5154.92 19.6947
5155.37 27.6384
5155.81 39.2186
5156.26 56.5677
5156.71 83.0582
5157.16 124.466
5157.61 188.923
5158.30 348.812
5159.00 495.074
5159.70 445.882
5160.39 313.301
5160.82 247.691
5161.25 198.868
5162.12 136.563
5162.98 101.209
5163.84 79.5385
5164.70 65.2661
5165.56 55.3370
5167.29 42.6683
5169.01 35.0616
5170.73 30.0602
5174.18 23.9536
5177.63 20.3978
5181.07 18.0823
5182.80 17.2052
5184.52 16.4654
5186.24 15.8724
5186.67 15.7793
5187.11 15.7889
5187.32 15.9259
5187.54 16.4124
5187.64 17.1019
5187.75 18.8821
5187.81 21.0593
5187.86 26.0318
5187.89 31.2714
5187.91 41.2538
5187.93 50.2672
5187.94 63.0627
5187.95 82.9736
5187.97 115.335
5187.98 174.526
5188.00 215.230
5188.02 174.571
5188.03 115.373
5188.05 86.9449
5188.06 66.9021
5188.07 53.6369
5188.08 45.2719
5188.10 34.1524
5188.13 28.3113
5188.17 22.3871
5188.22 19.7343
5188.31 17.4186
5188.41 16.4696
5188.59 15.6911
5188.78 15.3671
5189.15 15.0581
5189.52 14.8813
5191.02 14.4190
5192.51 14.0520
5194.00 13.7257
5195.49 13.4302
5196.98 13.1649
5198.47 12.9603
5198.84 12.9504
5199.21 13.0324
5199.40 13.1956
5199.59 13.6840
5199.68 14.3389
5199.77 16.0125
5199.82 18.0462
5199.87 22.5109
5199.89 27.3571
5199.91 36.0728
5199.93 43.7934
5199.94 54.3448
5199.95 72.0411
5199.96 97.2419
5199.98 149.628
5199.99 182.007
5200.01 149.891
5200.02 97.5822
5200.03 74.2412
5200.04 58.3446
5200.06 39.7898
5200.08 30.2915
5200.10 24.9361
5200.14 19.4393
5200.18 16.9698
5200.26 14.8040
5200.34 13.9196
5200.51 13.2091
5200.67 12.9266
5200.99 12.6833
5201.31 12.5648
5202.61 12.3125
5205.19 11.9625
5207.78 11.6605
5210.36 11.3877
5215.53 10.9076
5220.71 10.4921
5231.05 9.78549
5241.39 9.16451
5251.73 8.54369
5256.90 8.19595
5262.08 7.78354
5267.25 7.23542
5269.83 6.86128
5272.42 6.36054
5273.71 6.03323
5275.00 5.62645
5276.30 5.10310
5277.59 4.40199
5278.24 3.95376
5278.88 3.41919
5279.53 2.77933
5280.18 2.03837
5280.82 1.31157
5281.15 1.12702
5281.47 1.40057
5281.63 1.93743
5281.79 3.00652
5281.95 5.05916
5282.03 6.70135
5282.11 8.94995
5282.20 12.1386
5282.28 16.6755
5282.36 23.2453
5282.44 32.8187
5282.52 47.4770
5282.60 70.2781
5282.68 106.521
5282.76 163.362
5282.88 300.521
5283.00 426.685
5283.12 385.301
5283.24 271.322
5283.37 181.466
5283.50 128.877
5283.63 97.4397
5283.76 77.6087
5283.89 64.1499
5284.02 54.7089
5284.29 42.4269
5284.55 34.9482
5284.81 30.0227
5285.33 23.9936
5285.85 20.4843
5286.38 18.2149
5286.90 16.6281
5287.42 15.4623
5288.47 13.8606
5289.51 12.8118
5290.56 12.0695
5291.60 11.5140
5293.69 10.7319
5295.78 10.2019
5296.83 9.99734
5297.87 9.83113
5298.92 9.76565
5299.18 9.82672
5299.44 10.0617
5299.57 10.4058
5299.70 11.3276
5299.76 12.5120
5299.83 15.3249
5299.86 18.5351
5299.89 24.9244
5299.91 31.3253
5299.93 41.4401
5299.94 59.3051
5299.96 92.8067
5299.98 144.041
5299.99 176.220
5300.01 144.202
5300.02 93.0090
5300.03 64.2202
5300.05 47.0959
5300.06 36.4806
5300.07 29.6322
5300.10 21.5889
5300.13 17.6070
5300.18 13.7853
5300.23 12.1458
5300.34 10.7549
5300.44 10.2071
5300.65 9.76646
5300.86 9.58707
5301.71 9.33081
5303.39 9.10805
5305.07 8.93870
5306.76 8.79003
5310.13 8.53003
5313.50 8.30249
5316.87 8.09544
5320.23 7.90161
5323.60 7.71782
5325.29 7.63859
5326.13 7.64298
5326.55 7.80832
5326.66 7.98519
5326.76 8.44701
5326.81 9.02395
5326.87 10.3440
5326.89 11.8357
5326.92 14.6846
5326.95 21.2412
5326.96 27.8863
5326.97 39.0639
5326.99 58.6757
5327.00 70.6115
5327.02 57.3703
5327.03 39.1692
5327.04 27.3393
5327.06 20.5720
5327.09 14.1530
5327.11 11.4586
5327.14 10.1464
5327.20 8.90382
5327.25 8.36848
5327.47 7.75065
5327.91 7.54753
5328.79 7.45041
5330.56 7.34106
5334.08 7.14215
5341.14 6.72534
5348.19 6.24638
5355.24 5.65111
5362.29 4.83688
5365.82 4.28364
5369.35 3.56548
5372.87 2.58723
5374.64 1.95958
5376.40 1.22935
5378.16 0.481346
5379.05 0.238408
5379.49 0.227829
5379.93 0.365444
5380.37 0.762170
5380.59 1.11654
5380.81 1.62175
5381.03 2.33892
5381.25 3.34240
5381.47 4.75334
5381.69 6.74974
5381.91 9.62194
5382.13 13.7834
5382.35 20.0007
5382.57 29.4569
5382.79 44.4568
5383.01 68.9254
5383.23 110.438
5383.45 181.869
5383.73 330.061
5384.00 466.411
5384.27 419.609
5384.55 291.827
5384.79 206.952
5385.03 152.214
5385.27 116.927
5385.51 93.3389
5385.99 65.0136
5386.47 49.2989
5386.96 39.5545
5387.44 33.0463
5388.40 24.9764
5389.36 20.1995
5390.33 17.0259
5392.25 12.9185
5394.18 10.0798
5396.11 7.54671
5397.07 6.18097
5398.03 4.63606
5398.52 3.77992
5399.00 2.91190
5399.24 2.53595
5399.48 2.36864
5399.60 2.55677
5399.72 3.42211
5399.78 4.65397
5399.84 7.69547
5399.87 11.0883
5399.90 17.9414
5399.91 24.2185
5399.93 34.4108
5399.94 51.8931
5399.96 83.1998
5399.98 133.874
5399.99 165.419
5400.01 134.009
5400.02 83.3493
5400.03 55.1799
5400.05 38.2294
5400.06 27.7071
5400.07 20.9121
5400.10 12.9235
5400.13 8.96575
5400.18 5.17251
5400.23 3.54368
5400.34 2.29429
5400.44 2.00320
5400.65 2.70513
5400.76 3.68718
5400.87 5.24219
5400.97 7.65795
5401.08 11.3065
5401.18 16.9565
5401.29 25.6711
5401.39 39.6844
5401.50 62.3792
5401.60 100.763
5401.71 164.621
5401.86 312.105
5402.00 446.504
5402.15 404.804
5402.29 289.410
5402.44 204.026
5402.58 151.039
5402.72 117.380
5402.87 95.3085
5403.01 79.9098
5403.15 68.8624
5403.44 54.1965
5403.73 45.0360
5404.01 38.8847
5404.58 31.1904
5405.16 26.6139
5405.73 23.6000
5406.88 19.8657
5408.02 17.6286
5409.17 16.1280
5411.46 14.2115
5413.76 13.0130
5416.05 12.1756
5420.63 11.0506
5425.22 10.3026
5429.80 9.75071
5434.39 9.31447
5436.68 9.12744
5437.83 9.04709
5438.40 9.03661
5438.69 9.13395
5438.83 9.50637
5438.90 10.5286
5438.94 12.5291
5438.96 15.1287
5438.97 20.6888
5438.99 27.8193
5439.00 32.4358
5439.01 27.8403
5439.03 20.7138
5439.04 15.3597
5439.06 12.7451
5439.09 10.6910
5439.16 9.56791
5439.29 9.12039
5439.56 8.96194
5440.09 8.88479
5441.14 8.80027
5443.26 8.65587
5447.50 8.39242
5451.73 8.15152
5453.85 8.04726
5454.91 8.04044
5455.44 8.20497
5455.57 8.38709
5455.70 8.87208
5455.77 9.48117
5455.84 10.9385
5455.87 12.5624
5455.90 15.8838
5455.92 19.0994
5455.94 24.1121
5455.95 33.5502
5455.97 50.3249
5455.98 75.4338
5456.00 92.7746
5456.02 75.5623
5456.03 50.4867
5456.04 38.7228
5456.05 30.2885
5456.07 21.0920
5456.10 16.2779
5456.12 13.7367
5456.16 11.1338
5456.20 9.96338
5456.29 8.93080
5456.37 8.51621
5456.54 8.18234
5456.72 8.05057
5457.40 7.88796
5458.77 7.78130
5461.50 7.62763
5466.97 7.33240
5472.44 7.01944
5477.91 6.65992
5483.38 6.19746
5486.11 5.88890
5488.85 5.48120
5490.22 5.21630
5491.58 4.88785
5492.95 4.46441
5494.32 3.89183
5495.00 3.52119
5495.69 3.07115
5496.37 2.51817
5497.05 1.84261
5497.74 1.07687
5498.08 0.751590
5498.42 0.676101
5498.59 0.884716
5498.76 1.45329
5498.93 2.71317
5499.02 3.80595
5499.10 5.37529
5499.19 7.70194
5499.27 11.1192
5499.36 16.3661
5499.45 24.4494
5499.53 37.6436
5499.62 59.5188
5499.70 97.5637
5499.79 164.853
5499.89 301.566
5499.99 428.378
5500.04 428.523
5500.09 386.248
5500.19 269.876
5500.28 195.382
5500.37 146.723
5500.45 114.592
5500.54 92.7085
5500.71 65.9373
5500.88 50.8090
5501.05 41.3654
5501.22 35.0203
5501.56 27.1731
5501.90 22.5910
5502.24 19.6236
5502.58 17.5595
5502.92 16.0467
5503.60 13.9831
5504.28 12.6488
5504.96 11.7149
5505.64 11.0239
5507.00 10.0661
5508.36 9.42994
5509.72 8.97152
5511.08 8.62237
5513.80 8.11636
5515.16 7.92421
5516.52 7.76019
5519.24 7.51346
5519.92 7.48756
5520.60 7.52998
5520.94 7.64060
5521.28 7.99577
5521.45 8.49142
5521.62 9.81680
5521.71 11.4909
5521.75 13.0426
5521.79 15.5431
5521.84 20.2014
5521.86 24.0048
5521.88 29.6951
5521.90 39.2317
5521.92 54.7963
5521.94 83.1216
5521.96 137.700
5521.98 215.646
5522.00 268.451
5522.02 215.927
5522.04 138.051
5522.06 89.1883
5522.08 60.3075
5522.09 43.7289
5522.11 33.6350
5522.13 27.1270
5522.15 22.7198
5522.19 17.3417
5522.23 14.3274
5522.27 12.4767
5522.34 10.4209
5522.49 8.75226
5522.65 8.10140
5522.95 7.59137
5523.25 7.38958
5523.86 7.21206
5524.47 7.12114
5526.90 6.91251
5529.33 6.75591
5531.76 6.61500
5536.62 6.35696
5541.47 6.11609
5551.19 5.65050
5560.91 5.16886
5570.63 4.62635
5580.35 3.94048
5585.21 3.47505
5587.64 3.17843
5590.07 2.80640
5592.50 2.30358
5593.71 1.97041
5594.93 1.55312
5596.14 1.02627
5597.36 0.464273
5597.96 0.429195
5598.27 0.714562
5598.57 1.57110
5598.72 2.44935
5598.88 3.90026
5599.03 6.35480
5599.18 10.6420
5599.25 14.0139
5599.33 18.7079
5599.41 25.3954
5599.48 35.1846
5599.56 49.9663
5599.63 73.0534
5599.71 110.260
5599.79 170.010
5599.87 280.666
5599.92 352.207
5599.94 391.453
5599.96 435.810
5599.99 499.991
5600.02 465.824
5600.04 439.679
5600.06 415.811
5600.11 363.564
5600.20 258.987
5600.26 199.607
5600.32 156.385
5600.45 103.086
5600.58 73.7408
5600.70 56.1774
5600.83 44.7909
5600.96 37.0800
5601.21 27.4410
5601.47 21.7806
5601.72 18.1485
5602.23 13.8150
5602.74 11.3530
5603.25 9.78404
5603.76 8.69607
5604.26 7.89965
5605.28 6.80349
5606.30 6.07717
5608.33 5.14739
5610.37 4.54585
5612.40 4.09828
5616.47 3.41497
5624.61 2.33797
5632.74 1.33522
5640.88 0.398612
5642.92 0.218882
5644.95 0.0969269
5645.97 0.0691008
5646.98 0.0723613
5648.00 0.116079
5649.02 0.212632
5650.04 0.378732
5651.05 0.636325
5652.07 1.01590
5653.09 1.55948
5654.10 2.32605
5655.12 3.39999
5656.14 4.90425
5657.15 7.02212
5658.17 10.0337
5659.19 14.3792
5660.21 20.7723
5661.22 30.4094
5662.24 45.3647
5663.26 69.3321
5664.27 108.895
5665.29 174.790
5666.65 319.128
5668.00 453.244
5669.36 409.460
5670.71 285.896
5671.63 219.803
5672.54 172.201
5673.45 138.354
5674.37 113.940
5676.20 82.3004
5678.02 63.4379
5679.85 51.2634
5681.68 42.8973
5685.34 32.3206
5688.99 25.9990
5692.65 21.8187
5696.30 18.8488
5697.22 18.2396
5698.13 17.6852
5699.05 17.2637
5699.27 17.2538
5699.50 17.4529
5699.62 17.8229
5699.73 18.8723
5699.79 20.2040
5699.85 23.3527
5699.87 26.8662
5699.90 33.5850
5699.92 40.1093
5699.93 49.9078
5699.95 66.1981
5699.96 94.0271
5699.98 141.990
5699.99 171.623
5700.01 142.137
5700.02 94.2023
5700.04 60.7719
5700.06 43.8243
5700.08 34.3324
5700.09 29.1613
5700.13 23.6548
5700.17 21.0564
5700.24 18.7674
5700.32 17.8152
5700.46 17.0044
5700.61 16.6483
5700.90 16.2859
5701.20 16.0600
5702.37 15.4142
5703.55 14.8683
5704.73 14.3649
5709.43 12.6272
5718.84 9.94600
5728.25 7.75277
5737.66 5.65921
5747.07 3.40536
5751.78 2.17930
5756.48 0.964146
5758.83 0.452714
5760.01 0.261909
5761.19 0.145324
5762.36 0.140601
5762.95 0.196923
5763.54 0.304508
5764.13 0.475289
5764.71 0.724210
5765.30 1.07010
5765.89 1.53686
5767.07 2.96553
5768.24 5.37736
5769.42 9.41192
5770.60 16.2209
5771.77 27.9917
5772.95 49.0007
5774.12 87.9268
5775.30 161.072
5776.65 308.206
5778.00 443.990
5779.35 403.699
5780.70 289.132
5781.90 211.174
5783.11 159.995
5784.31 126.384
5785.52 103.538
5787.92 75.4695
5790.33 59.4662
5792.74 49.3542
5795.15 42.4790
5797.55 37.5474
5798.15 36.5391
5798.76 35.6307
5799.06 35.2429
5799.36 34.9884
5799.51 35.0226
5799.66 35.4700
5799.73 36.1994
5799.81 38.1348
5799.85 40.4673
5799.88 45.3643
5799.90 50.2975
5799.92 59.0060
5799.94 75.8320
5799.95 89.1747
5799.96 109.445
5799.98 155.565
5799.99 185.328
5800.01 155.693
5800.02 109.575
5800.03 89.2713
5800.04 75.8902
5800.06 58.9811
5800.08 50.1956
5800.10 45.3965
5800.13 40.2589
5800.17 37.8109
5800.24 35.6139
5800.32 34.6542
5800.47 33.7774
5800.61 33.3280
5800.91 32.7625
5801.21 32.3328
5802.39 30.9290
5803.57 29.7223
5804.76 28.6443
5809.50 25.2382
5814.23 22.8045
5815.42 22.3011
5816.60 21.8350
5817.79 21.4241
5818.38 21.3331
5818.67 21.6595
5818.75 22.0285
5818.82 22.9675
5818.86 24.0605
5818.90 26.4007
5818.93 32.6765
5818.95 40.5596
5818.97 56.7691
5818.99 78.4049
5819.00 92.7557
5819.02 78.5022
5819.03 56.8853
5819.05 40.6496
5819.07 33.0280
5819.10 26.5010
5819.14 24.0633
5819.18 22.9361
5819.25 21.9147
5819.32 21.4795
5819.62 20.9299
5820.20 20.6113
5821.37 20.2126
5823.71 19.5338
5828.40 18.3823
5837.77 16.6151
5847.13 15.2910
5856.50 14.2225
5865.87 13.2859
5875.24 12.3576
5879.92 11.8313
5884.60 11.1813
5886.95 10.7629
5889.29 10.2275
5890.46 9.89062
5891.63 9.48529
5892.80 8.99667
5893.39 8.78016
5893.68 8.94553
5893.82 9.92829
5893.86 10.7989
5893.90 12.6344
5893.93 17.7835
5893.95 23.9395
5893.97 37.2526
5893.99 54.1199
5894.00 66.2341
5894.02 54.1979
5894.03 37.3361
5894.04 27.8469
5894.05 22.2179
5894.07 16.0967
5894.12 11.5258
5894.16 9.97306
5894.21 9.26419
5894.39 8.33934
5894.75 7.81589
5895.47 7.08061
5896.19 6.21057
5896.91 5.07406
5897.27 4.36441
5897.63 3.53907
5897.99 2.59612
5898.35 1.59937
5898.71 0.866795
5898.89 0.964725
5899.07 1.98674
5899.16 3.21073
5899.25 5.31115
5899.34 8.87074
5899.43 14.9484
5899.52 25.5605
5899.61 44.7267
5899.65 59.8270
5899.70 80.6574
5899.74 109.466
5899.79 147.956
5899.89 283.638
5899.99 409.656
5900.09 374.189
5900.19 269.677
5900.32 180.288
5900.44 129.156
5900.56 99.0016
5900.68 80.0921
5900.80 67.2579
5900.92 58.1793
5901.16 46.4144
5901.40 39.1832
5901.64 34.3780
5902.13 28.4239
5902.61 24.9056
5903.09 22.6022
5903.57 20.9747
5904.06 19.7687
5905.02 18.0926
5905.99 16.9835
5906.95 16.1908
5907.92 15.5930
5909.85 14.7428
5911.78 14.1586
5915.64 13.3831
5919.50 12.8678
5923.36 12.4826
5931.08 11.9083
5938.80 11.4650
5946.52 11.0844
5954.24 10.7339
5958.10 10.5740
5960.03 10.5470
5960.52 10.5880
5961.00 10.7423
5961.24 10.9718
5961.48 11.6095
5961.60 12.4528
5961.72 14.5892
5961.78 17.2206
5961.84 23.1497
5961.87 29.4011
5961.90 41.3428
5961.92 51.6970
5961.93 67.6200
5961.95 93.0480
5961.96 136.552
5961.98 212.910
5962.00 262.754
5962.02 213.160
5962.04 136.860
5962.06 87.2131
5962.07 60.6180
5962.09 44.5396
5962.11 35.2963
5962.15 24.9754
5962.18 19.8997
5962.26 15.3150
5962.33 13.3986
5962.48 11.8199
5962.63 11.2109
5962.92 10.7360
5963.22 10.5520
5963.81 10.3978
5964.40 10.3238
5966.76 10.1620
5971.47 9.89924
5976.19 9.60623
5980.91 9.24114
5985.63 8.72830
5987.99 8.36336
5990.35 7.86013
5991.53 7.52342
5992.71 7.09736
5993.89 6.53738
5995.07 5.76582
5995.66 5.25846
5996.25 4.63436
5996.84 3.85410
5997.43 2.87365
5998.02 1.68518
5998.31 1.08946
5998.61 0.701493
5998.76 0.744047
5998.90 1.14659
5999.05 2.26191
5999.12 3.29140
5999.20 4.80529
5999.27 7.08826
5999.35 10.5128
5999.42 15.7158
5999.49 23.6377
5999.57 36.3409
5999.64 56.7041
5999.71 91.1018
5999.79 147.839
5999.89 279.586
5999.99 402.689
6000.09 366.971
6000.19 262.039
6000.28 196.402
6000.36 151.551
6000.44 121.117
6000.52 100.140
6000.68 73.5887
6000.85 58.1564
6001.01 48.2743
6001.17 41.5771
6001.50 33.1494
6001.83 28.1256
6002.15 24.8406
6002.48 22.5320
6002.81 20.8264
6003.46 18.4795
6004.11 16.9476
6004.76 15.8700
6005.42 15.0717
6006.72 13.9627
6008.03 13.2277
6009.33 12.7009
6010.64 12.3030
6013.25 11.7345
6015.86 11.3406
6021.08 10.8104
6026.30 10.4492
6031.53 10.1708
6036.75 9.93978
6039.36 9.84414
6040.67 9.83458
6041.32 9.96845
6041.48 10.1186
6041.64 10.5288
6041.73 11.0629
6041.81 12.3776
6041.85 13.9380
6041.89 17.3796
6041.91 20.9838
6041.93 27.2366
6041.95 39.7394
6041.96 50.7129
6041.97 68.1809
6041.99 102.568
6042.00 126.821
6042.02 102.616
6042.03 68.2344
6042.05 43.6541
6042.06 30.6456
6042.08 23.6453
6042.10 19.7573
6042.13 15.5025
6042.16 13.4554
6042.23 11.6360
6042.29 10.8781
6042.43 10.2661
6042.56 10.0313
6043.09 9.77322
6044.15 9.66987
6046.26 9.57570
6050.50 9.42071
6054.73 9.27927
6056.85 9.24825
6057.38 9.27651
6057.91 9.39127
6058.17 9.56514
6058.43 10.0539
6058.57 10.7090
6058.70 12.3941
6058.77 14.4567
6058.83 19.2492
6058.86 24.4169
6058.90 34.5638
6058.91 43.9604
6058.93 57.9528
6058.95 82.6678
6058.96 123.508
6058.98 193.257
6059.00 238.191
6059.02 193.577
6059.04 123.919
6059.06 77.6547
6059.08 52.2453
6059.10 38.2081
6059.12 29.8856
6059.16 21.1012
6059.20 16.8661
6059.28 13.0974
6059.36 11.5397
6059.51 10.2722
6059.67 9.78116
6059.99 9.39933
6060.31 9.25145
6061.58 9.06524
6064.13 8.92876
6069.22 8.70337
6074.32 8.44991
6079.41 8.13178
6084.50 7.68226
6087.05 7.36164
6089.59 6.91894
6090.87 6.62260
6092.14 6.24806
6093.41 5.75628
6094.69 5.07922
6095.32 4.63490
6095.96 4.09048
6096.60 3.41137
6097.23 2.56374
6097.87 1.55375
6098.19 1.06785
6098.50 0.796429
6098.66 0.892951
6098.82 1.33751
6098.98 2.45662
6099.06 3.46837
6099.14 4.94322
6099.22 7.15110
6099.30 10.4001
6099.38 15.3781
6099.46 22.9692
6099.54 35.1633
6099.62 54.8368
6099.70 88.3156
6099.78 144.204
6099.88 270.356
6099.99 387.107
6100.10 352.413
6100.20 251.112
6100.30 178.267
6100.41 132.072
6100.51 102.665
6100.61 83.3064
6100.81 59.9633
6101.01 46.9670
6101.21 38.8674
6101.41 33.4630
6101.81 26.7631
6102.22 22.8204
6102.62 20.2582
6103.02 18.4608
6103.42 17.1398
6104.23 15.3252
6105.03 14.1412
6105.84 13.3077
6106.64 12.6885
6108.25 11.8273
6109.86 11.2532
6111.47 10.8396
6113.08 10.5249
6116.30 10.0707
6117.91 9.89918
6119.52 9.75296
6122.74 9.52915
6124.35 9.51691
6124.76 9.58698
6125.16 9.82530
6125.36 10.1655
6125.56 11.0916
6125.66 12.2920
6125.76 15.2436
6125.81 18.7714
6125.86 26.3383
6125.89 33.8962
6125.91 47.4296
6125.94 74.2544
6125.95 98.7156
6125.96 133.534
6125.98 207.123
6126.00 258.057
6126.02 207.368
6126.04 133.830
6126.06 84.5786
6126.08 58.1181
6126.10 42.3252
6126.12 33.2868
6126.15 23.2805
6126.19 18.3905
6126.27 13.9948
6126.35 12.1635
6126.50 10.6650
6126.66 10.0817
6126.97 9.62604
6127.28 9.44828
6127.90 9.29595
6128.52 9.22086
6131.00 9.05877
6133.49 8.95016
6134.73 8.94274
6135.35 9.10549
6135.51 9.28792
6135.66 9.78795
6135.74 10.4396
6135.82 12.0377
6135.85 13.9237
6135.89 18.0390
6135.91 22.2952
6135.93 29.5325
6135.95 43.5838
6135.96 56.3058
6135.97 73.0211
6135.99 111.556
6136.00 137.615
6136.02 111.951
6136.03 73.5284
6136.04 52.4363
6136.05 39.3068
6136.08 25.5273
6136.10 18.9930
6136.13 15.7184
6136.18 12.5301
6136.23 11.1298
6136.32 9.96267
6136.42 9.50200
6136.62 9.13587
6136.81 8.99312
6137.59 8.82240
6139.15 8.72276
6142.27 8.59511
6148.52 8.37029
6154.76 8.15231
6161.00 7.92726
6167.24 7.68084
6173.49 7.39121
6176.61 7.21822
6179.73 7.01505
6182.85 6.76826
6184.41 6.63302
6185.19 6.61209
6185.58 6.80254
6185.77 7.56858
6185.82 8.24714
6185.87 9.79994
6185.90 11.4830
6185.92 14.5622
6185.95 21.1878
6185.96 27.4471
6185.97 37.8548
6185.99 57.1091
6186.00 69.4443
6186.02 57.2047
6186.03 37.9743
6186.04 26.9169
6186.06 20.4883
6186.08 13.7938
6186.11 10.8695
6186.14 9.37353
6186.19 7.97790
6186.25 7.37863
6186.46 6.65912
6186.89 6.39656
6187.75 6.21684
6189.47 5.90882
6191.19 5.52367
6192.91 4.99513
6193.77 4.64519
6194.63 4.20986
6195.49 3.65249
6196.34 2.92120
6196.77 2.46826
6197.20 1.94822
6198.06 0.797325
6198.49 0.515686
6198.71 0.794062
6198.92 1.86410
6199.03 3.01807
6199.14 4.91298
6199.25 8.10452
6199.35 13.4948
6199.46 23.1168
6199.57 40.8293
6199.62 55.3644
6199.67 75.6096
6199.73 105.146
6199.78 146.449
6199.89 272.725
6199.99 390.222
6200.04 391.669
6200.10 354.498
6200.20 250.728
6200.28 188.363
6200.36 145.229
6200.44 115.684
6200.52 95.2038
6200.68 69.1657
6200.84 54.0064
6201.00 44.3087
6201.16 37.7528
6201.47 29.5361
6201.79 24.6662
6202.11 21.4991
6202.43 19.2779
6202.75 17.6495
6203.38 15.4194
6204.02 13.9713
6204.66 12.9568
6205.30 12.2064
6206.57 11.1685
6207.84 10.4812
6209.12 9.98879
6210.39 9.61593
6212.94 9.07969
6215.49 8.70313
6220.58 8.18154
6225.68 7.80625
6230.77 7.49688
6235.87 7.22174
6238.42 7.11252
6239.69 7.15545
6240.01 7.25200
6240.33 7.54771
6240.49 7.95507
6240.65 9.03795
6240.73 10.4120
6240.80 13.6767
6240.84 17.3903
6240.88 25.1182
6240.90 32.4575
6240.92 44.8616
6240.94 67.3735
6240.96 108.794
6240.98 170.800
6241.00 211.078
6241.02 171.130
6241.04 109.218
6241.06 64.8139
6241.08 42.8500
6241.10 30.5408
6241.12 23.7407
6241.17 16.4979
6241.21 13.0701
6241.29 10.0605
6241.38 8.82793
6241.55 7.82694
6241.72 7.44142
6242.07 7.13644
6242.41 7.01267
6243.78 6.83114
6246.52 6.65037
6252.00 6.31992
6254.75 6.14370
6257.49 5.95535
6260.23 5.75349
6261.60 5.65799
6262.29 5.65870
6262.63 5.84324
6262.80 6.53221
6262.89 8.46424
6262.93 12.3928
6262.95 17.5489
6262.97 29.9313
6262.99 44.2157
6263.00 54.5052
6263.02 44.3002
6263.03 30.0345
6263.04 20.5188
6263.06 15.1776
6263.09 10.2952
6263.15 7.35947
6263.27 6.09096
6263.50 5.64669
6263.98 5.48070
6264.92 5.35904
6266.81 5.16281
6268.71 4.95558
6270.60 4.72751
6274.38 4.18502
6278.17 3.47528
6280.06 3.02862
6281.95 2.49964
6283.85 1.87095
6285.74 1.14205
6287.63 0.414734
6288.58 0.206642
6289.05 0.226747
6289.52 0.409537
6290.00 0.870897
6290.23 1.26684
6290.47 1.82051
6290.71 2.59310
6290.94 3.65772
6291.18 5.13900
6291.41 7.19380
6291.65 10.0962
6291.89 14.2160
6292.12 20.2179
6292.36 29.0741
6292.60 42.5855
6292.83 63.5702
6293.07 97.1970
6293.31 150.827
6293.65 278.983
6294.00 399.876
6294.35 363.793
6294.69 256.283
6295.06 173.972
6295.42 124.547
6295.78 94.4534
6296.14 75.1191
6296.50 62.0087
6296.86 52.6963
6297.58 40.5814
6298.30 33.1969
6299.03 28.2986
6300.47 22.2879
6301.91 18.7831
6303.36 16.5025
6304.80 14.9030
6306.25 13.7184
6309.13 12.0741
6312.02 10.9754
6317.80 9.56010
6323.57 8.63721
6329.35 7.93891
6340.90 6.80681
6352.45 5.69677
6358.23 5.04737
6364.00 4.25543
6369.78 3.21008
6372.67 2.53665
6375.55 1.72780
6378.44 0.804885
6379.88 0.382115
6380.61 0.233997
6381.33 0.182688
6382.05 0.311592
6382.41 0.488228
6382.77 0.778237
6383.13 1.22611
6383.49 1.89644
6383.86 2.88496
6384.22 4.33685
6384.58 6.47815
6384.94 9.67157
6385.30 14.5192
6385.66 22.0588
6386.02 34.1505
6386.38 54.2474
6386.74 88.8304
6387.10 148.930
6387.55 275.544
6388.00 394.900
6388.45 359.430
6388.90 253.253
6389.23 191.634
6389.56 148.508
6389.89 118.503
6390.22 97.3463
6390.87 70.4164
6391.53 54.6661
6392.19 44.5909
6392.85 37.7249
6394.17 29.0951
6395.48 23.9786
6396.80 20.6263
6399.43 16.5251
6402.07 14.1085
6404.70 12.5039
6406.02 11.8838
6407.34 11.3515
6408.65 10.9101
6409.31 10.8129
6409.64 11.1431
6409.73 11.5294
6409.81 12.5261
6409.85 13.7190
6409.89 16.3703
6409.91 19.1602
6409.93 24.0196
6409.95 34.5083
6409.96 43.5015
6409.97 57.0786
6409.99 85.9854
6410.00 103.745
6410.01 86.1235
6410.03 57.2499
6410.04 44.7785
6410.05 35.3914
6410.07 25.1661
6410.09 19.9683
6410.11 17.0499
6410.14 14.0606
6410.18 12.7205
6410.26 11.5387
6410.34 11.0523
6410.64 10.4548
6411.25 10.1398
6412.48 9.78180
6414.93 9.20585
6419.83 8.27210
6429.63 6.81578
6439.43 5.53424
6449.23 4.19046
6459.03 2.61417
6463.93 1.70870
6468.83 0.777561
6471.28 0.370179
6472.51 0.211830
6473.73 0.107571
6474.96 0.0866473
6476.18 0.193640
6476.79 0.315536
6477.41 0.497831
6478.02 0.756306
6478.63 1.10947
6479.24 1.58343
6479.86 2.20899
6481.08 4.10188
6482.31 7.32641
6483.53 12.8763
6484.76 22.6859
6485.98 40.7320
6486.59 55.2228
6487.21 75.5053
6487.82 104.142
6488.43 144.173
6489.72 273.442
6491.00 395.099
6492.29 361.182
6493.57 258.080
6494.91 178.319
6496.25 129.784
6497.58 99.8585
6498.92 80.4318
6500.26 67.1209
6501.60 57.5929
6504.27 45.0613
6506.95 37.3254
6509.62 32.1378
6512.30 28.4444
6512.97 27.6852
6513.63 26.9846
6514.30 26.3746
6514.64 26.2572
6514.80 26.7564
6514.89 28.4840
6514.93 32.1137
6514.95 37.0826
6514.97 48.2169
6514.99 61.9893
6515.00 70.7657
6515.01 62.0386
6515.03 48.2606
6515.05 37.8059
6515.07 32.7363
6515.10 28.8045
6515.18 26.6567
6515.33 25.7227
6515.62 25.2148
6516.21 24.6543
6517.40 23.7326
6519.77 22.1731
6524.52 19.7890
6534.00 16.7011
6543.49 14.7492
6548.23 14.0032
6550.60 13.6710
6551.79 13.5212
6552.38 13.4814
6552.68 13.5813
6552.82 14.0114
6552.90 15.1926
6552.94 17.4810
6552.95 20.5431
6552.97 27.3352
6552.99 35.4710
6553.00 41.4261
6553.01 35.5212
6553.03 27.3946
6553.05 19.7306
6553.07 16.7537
6553.12 14.7298
6553.21 13.7907
6553.39 13.4375
6553.76 13.2924
6554.49 13.1735
6555.95 12.9878
6558.87 12.6448
6564.71 12.0079
6576.40 10.7832
6582.24 10.0762
6585.16 9.64103
6588.09 9.09235
6591.01 8.32096
6592.47 7.77701
6593.93 7.03929
6594.66 6.55531
6595.39 5.95741
6596.12 5.19815
6596.85 4.20810
6597.22 3.59726
6597.58 2.90048
6598.31 1.35860
6598.68 0.945411
6598.77 1.01991
6598.86 1.24087
6599.04 2.45882
6599.13 3.77205
6599.22 5.89883
6599.31 9.36731
6599.41 15.0940
6599.50 24.9109
6599.59 41.9026
6599.68 72.5530
6599.77 128.473
6599.88 246.132
6599.99 357.654
6600.10 328.345
6600.21 236.479
6600.34 158.282
6600.47 113.626
6600.60 86.9843
6600.72 70.2678
6600.85 58.9325
6600.98 50.9706
6601.24 40.5680
6601.50 34.2047
6601.75 29.9606
6602.27 24.7170
6602.78 21.6200
6603.29 19.5886
6603.81 18.1560
6604.32 17.0932
6605.35 15.6134
6606.38 14.6305
6607.40 13.9242
6608.43 13.3892
6610.49 12.6213
6612.54 12.0856
6616.65 11.3574
6620.76 10.8556
6624.87 10.4660
6633.09 9.85289
6641.31 9.34417
6649.53 8.87656
6657.75 8.41627
6661.86 8.18578
6663.91 8.09409
6664.94 8.15403
6665.20 8.26183
6665.45 8.58379
6665.58 9.02315
6665.71 10.1639
6665.77 11.5685
6665.84 14.8526
6665.87 18.4175
6665.90 25.4750
6665.92 31.8289
6665.93 41.9816
6665.95 59.0448
6665.97 90.0648
6665.98 139.928
6666.00 172.503
6666.02 140.174
6666.03 90.3759
6666.05 59.3324
6666.07 42.2315
6666.08 32.0438
6666.10 25.6603
6666.13 18.5579
6666.16 14.9614
6666.23 11.6351
6666.29 10.2024
6666.42 9.02346
6666.55 8.55845
6666.80 8.19042
6667.06 8.04424
6668.09 7.84656
6670.14 7.67752
6674.24 7.38345
6678.34 7.06340
6682.45 6.69021
6686.55 6.21864
6688.60 5.91521
6690.65 5.52856
6692.70 4.98902
6693.73 4.61512
6694.75 4.11828
6695.27 3.79898
6695.78 3.41133
6696.29 2.93162
6696.80 2.33244
6697.32 1.60415
6697.83 0.982390
6698.09 1.23521
6698.22 1.91637
6698.34 3.53013
6698.41 5.00490
6698.47 7.26138
6698.54 10.7749
6698.60 16.3893
6698.66 25.6745
6698.73 41.6888
6698.79 70.5508
6698.86 124.657
6698.93 229.665
6699.00 329.204
6699.04 331.260
6699.07 300.282
6699.14 211.479
6699.20 159.434
6699.25 123.598
6699.31 98.3841
6699.36 80.9538
6699.47 58.6596
6699.57 45.6664
6699.68 37.3991
6699.79 31.7739
6700.00 24.7365
6700.21 20.5852
6700.43 17.8797
6700.64 15.9891
6700.86 14.6041
6701.28 12.6985
6701.71 11.4569
6702.14 10.5821
6702.57 9.93133
6703.42 9.01582
6704.28 8.39442
6705.99 7.57321
6707.70 7.02138
6709.41 6.59635
6712.83 5.91786
6719.68 4.75615
6726.52 3.52641
6729.94 2.82866
6733.36 2.06245
6736.79 1.24580
6740.21 0.481627
6741.92 0.220295
6742.77 0.161793
6743.20 0.160247
6743.63 0.182327
6744.48 0.318630
6745.34 0.624756
6746.20 1.18380
6747.05 2.12164
6747.91 3.64264
6748.76 6.07317
6749.62 9.97787
6750.47 16.3281
6751.33 26.9352
6752.18 45.1774
6753.04 77.5977
6753.89 135.812
6754.95 259.578
6756.00 376.550
6757.05 345.312
6758.11 247.941
6758.86 192.552
6759.60 152.698
6760.35 124.400
6761.10 103.981
6762.60 77.4300
6764.09 61.5002
6765.59 51.1304
6767.08 43.9523
6770.07 34.8017
6773.07 29.2880
6776.06 25.6367
6782.04 21.1248
6788.02 18.4487
6794.00 16.6710
6799.99 15.3968
6802.98 14.8924
6804.47 14.7030
6805.22 14.7676
6805.41 14.9164
6805.60 15.3642
6805.69 15.9699
6805.78 17.5011
6805.83 19.3531
6805.88 23.3922
6805.90 27.7432
6805.92 35.4989
6805.95 51.5351
6805.96 66.8534
6805.97 88.9014
6805.98 133.174
6806.00 163.507
6806.02 133.415
6806.03 89.2008
6806.04 70.4252
6806.05 56.1704
6806.07 39.9487
6806.09 31.3260
6806.11 26.3407
6806.15 21.1916
6806.18 18.7541
6806.26 16.6099
6806.34 15.7204
6806.49 14.9995
6806.64 14.7113
6807.25 14.3505
6808.47 14.1127
6810.90 13.7882
6813.33 13.5039
6815.76 13.2430
6825.50 12.3629
6835.23 11.6608
6840.09 11.3582
6842.53 11.2352
6843.74 11.2556
6844.35 11.5668
6844.50 11.8921
6844.66 12.7474
6844.73 13.8049
6844.81 16.2850
6844.85 18.9849
6844.88 24.3459
6844.90 29.1860
6844.92 36.9394
6844.94 50.0078
6844.96 73.1500
6844.98 111.156
6845.00 135.620
6845.02 111.370
6845.04 73.4261
6845.05 57.2092
6845.07 45.3388
6845.09 31.8134
6845.12 24.5125
6845.14 20.5299
6845.19 16.3807
6845.24 14.4467
6845.35 12.7662
6845.45 12.0769
6845.65 11.5246
6845.86 11.3076
6846.67 11.0491
6848.30 10.9007
6851.57 10.7084
6858.09 10.3652
6871.14 9.71717
6884.19 9.06535
6897.23 8.34550
6910.28 7.45600
6916.81 6.88770
6923.33 6.17183
6929.85 5.20368
6933.12 4.56184
6936.38 3.75068
6939.64 2.68554
6941.27 2.02426
6942.90 1.27588
6944.53 0.536052
6945.35 0.306955
6945.76 0.302612
6946.16 0.440926
6946.57 0.823245
6946.98 1.63176
6947.18 2.29398
6947.39 3.21411
6947.59 4.49281
6947.79 6.26848
6948.00 8.78232
6948.20 12.3754
6948.41 17.6046
6948.61 25.3866
6948.81 37.2770
6949.02 55.9729
6949.22 86.1297
6949.43 134.799
6949.71 247.761
6950.00 355.601
6950.14 358.280
6950.29 324.575
6950.58 227.645
6950.88 151.893
6951.19 107.031
6951.49 80.0500
6951.80 62.8693
6952.10 51.2886
6952.41 43.0918
6953.01 32.4568
6953.62 25.9380
6954.23 21.5770
6955.45 16.0776
6956.67 12.6734
6957.89 10.2506
6960.33 6.68284
6962.77 3.71189
6963.99 2.30714
6965.20 1.06556
6965.81 0.630630
6966.42 0.495170
6966.73 0.625036
6967.03 0.964876
6967.34 1.60882
6967.64 2.69437
6967.95 4.44669
6968.25 7.20769
6968.56 11.5353
6968.86 18.3294
6969.17 29.2116
6969.47 46.9034
6969.78 76.0958
6970.08 123.873
6970.54 244.445
6971.00 358.459
6971.46 330.855
6971.92 241.471
6972.40 170.940
6972.88 127.261
6973.36 99.8867
6973.84 81.8805
6974.32 69.3695
6974.81 60.3108
6975.77 48.2530
6976.73 40.6833
6977.69 35.5461
6979.61 29.0597
6981.53 25.1489
6983.46 22.5375
6987.30 19.2543
6991.15 17.2573
6994.99 15.8999
7002.68 14.1399
7010.37 13.0139
7018.06 12.2024
7033.44 11.0339
7048.83 10.1204
7064.21 9.22159
7071.90 8.69266
7079.59 8.01155
7083.43 7.55395
7087.28 6.93959
7089.20 6.53034
7091.12 6.00601
7092.09 5.68006
7093.05 5.29729
7094.01 4.86681
7094.49 4.76489
7094.73 5.23570
7094.79 5.75055
7094.85 7.01089
7094.91 11.2103
7094.94 17.8480
7094.95 24.7779
7094.97 36.9826
7094.98 56.5659
7095.00 69.8882
7095.02 56.6707
7095.03 37.0986
7095.05 23.1479
7095.07 15.9901
7095.11 9.67371
7095.14 7.25268
7095.18 6.09047
7095.33 4.56969
7095.62 3.87617
7096.22 3.19543
7096.81 2.50855
7097.40 1.71761
7097.99 0.875805
7098.29 0.557628
7098.58 0.563811
7098.73 0.863272
7098.88 1.57289
7099.03 3.03583
7099.17 5.94948
7099.25 8.37080
7099.32 11.8460
7099.40 16.9092
7099.47 24.4270
7099.54 35.8415
7099.62 53.5882
7099.69 81.7293
7099.77 125.675
7099.88 236.385
7099.99 341.466
7100.05 344.314
7100.10 312.932
7100.22 222.836
7100.34 150.978
7100.46 108.237
7100.58 82.3945
7100.70 65.8531
7100.82 54.6533
7100.94 46.6987
7101.18 36.3680
7101.42 30.0168
7101.67 25.7851
7102.15 20.5592
7102.63 17.4625
7103.12 15.4173
7104.08 12.8390
7105.05 11.2178
7106.02 10.0364
7107.95 8.20639
7108.92 7.36131
7109.88 6.47341
7110.85 5.47632
7111.82 4.29252
7112.78 2.84032
7113.75 1.25295
7113.99 0.980629
7114.23 0.919767
7114.48 1.31296
7114.60 1.82727
7114.72 2.68825
7114.84 4.09497
7114.96 6.34264
7115.08 9.93392
7115.20 15.6781
7115.32 25.2164
7115.44 41.3806
7115.56 69.4995
7115.68 118.149
7115.84 228.431
7116.00 333.184
7116.16 307.157
7116.32 222.396
7116.44 171.021
7116.56 135.012
7116.68 109.816
7116.79 91.8359
7117.03 68.7048
7117.27 54.9408
7117.51 46.0271
7117.75 39.8688
7118.22 32.0209
7118.70 27.2890
7119.17 24.1485
7120.13 20.2569
7121.08 17.9397
7122.03 16.3994
7122.98 15.2942
7123.94 14.4574
7125.84 13.2593
7127.74 12.4271
7131.55 11.2994
7135.36 10.5179
7139.17 9.89484
7146.79 8.81475
7150.60 8.26684
7154.41 7.65932
7158.22 6.93784
7162.03 6.01652
7163.93 5.43709
7165.83 4.74225
7167.74 3.89177
7169.64 2.84185
7171.55 1.59169
7172.50 0.971384
7172.98 0.718899
7173.45 0.563338
7173.93 0.594019
7174.41 0.977332
7174.64 1.39253
7174.88 2.03779
7175.12 3.00876
7175.36 4.44728
7175.60 6.56807
7175.83 9.70396
7176.07 14.3837
7176.31 21.4692
7176.55 32.3984
7176.79 49.6040
7177.02 77.1426
7177.26 121.154
7177.63 233.685
7178.00 340.943
7178.37 314.318
7178.74 227.235
7178.99 179.853
7179.23 144.922
7179.73 100.936
7180.22 76.2459
7180.72 61.1448
7181.21 51.2014
7181.70 44.2607
7182.69 35.3430
7183.68 29.9384
7184.67 26.3483
7186.64 21.9108
7188.62 19.2890
7190.60 17.5602
7192.57 16.3327
7194.55 15.4135
7198.50 14.1209
7202.45 13.2455
7206.40 12.6044
7210.36 12.1079
7218.26 11.3717
7226.16 10.8317
7234.07 10.4010
7238.02 10.2148
7240.00 10.1396
7240.98 10.1558
7241.48 10.3639
7241.60 10.5835
7241.72 11.1628
7241.79 11.8958
7241.85 13.6168
7241.88 15.5617
7241.91 19.5613
7241.94 29.5512
7241.96 40.1595
7241.97 59.7426
7241.99 89.3638
7242.00 109.732
7242.02 89.5176
7242.03 59.9328
7242.05 36.8677
7242.07 26.0482
7242.09 20.4770
7242.11 17.3229
7242.14 14.1251
7242.18 12.6364
7242.26 11.3444
7242.33 10.8153
7242.64 10.2285
7243.25 10.0393
7244.46 9.94323
7246.90 9.82998
7251.77 9.63120
7261.50 9.25618
7271.24 8.88454
7276.10 8.69240
7278.54 8.59569
7279.76 8.55777
7280.36 8.58345
7280.67 8.75825
7280.82 9.36036
7280.90 10.9653
7280.93 14.0446
7280.95 17.9821
7280.97 27.1137
7280.99 38.3604
7281.00 45.8147
7281.01 38.4340
7281.03 27.2057
7281.05 17.4921
7281.07 13.4549
7281.12 10.5755
7281.20 9.19449
7281.38 8.68509
7281.73 8.51623
7282.42 8.44247
7283.82 8.36862
7286.60 8.23631
7292.18 7.95102
7297.75 7.61331
7303.33 7.18416
7308.90 6.58049
7311.69 6.15592
7314.48 5.58143
7315.87 5.20545
7317.27 4.74036
7318.66 4.14876
7320.05 3.37433
7320.75 2.89428
7321.45 2.34046
7322.15 1.71617
7322.84 1.07372
7323.54 0.664296
7323.89 0.822973
7324.06 1.12399
7324.24 1.68384
7324.41 2.65906
7324.59 4.29164
7324.76 7.02762
7324.93 11.6771
7325.11 19.8039
7325.28 34.5920
7325.37 46.3597
7325.46 62.7600
7325.54 85.7414
7325.63 117.755
7325.82 223.365
7326.00 324.471
7326.09 327.819
7326.19 298.529
7326.37 213.833
7326.59 141.853
7326.80 100.630
7327.02 76.3852
7327.23 61.1971
7327.45 50.9748
7327.67 43.7991
7328.10 34.4833
7328.53 28.8044
7328.96 25.0429
7329.82 20.4094
7330.68 17.6890
7331.55 15.9123
7332.41 14.6600
7333.27 13.7313
7335.00 12.4400
7336.72 11.5793
7338.45 10.9582
7340.17 10.4837
7343.62 9.79208
7347.07 9.29495
7350.52 8.90659
7352.25 8.74964
7353.11 8.72355
7353.54 8.88997
7353.76 9.58494
7353.81 10.2162
7353.86 11.7088
7353.89 13.3466
7353.92 16.6293
7353.95 24.4608
7353.96 32.3222
7353.97 47.0029
7353.99 70.1905
7354.00 85.5440
7354.01 70.3004
7354.03 47.1385
7354.04 34.0797
7354.05 26.5608
7354.07 18.5508
7354.12 12.7255
7354.16 10.8029
7354.21 9.96494
7354.39 8.95297
7354.74 8.62091
7355.46 8.47565
7356.89 8.33401
7359.74 8.10136
7365.46 7.67133
7371.18 7.24333
7376.89 6.77726
7382.61 6.21240
7385.47 5.85503
7388.32 5.40261
7391.18 4.77475
7392.61 4.34173
7394.04 3.76927
7394.76 3.40422
7395.47 2.96549
7396.18 2.42930
7396.90 1.77554
7397.61 1.02500
7397.97 0.687855
7398.33 0.550263
7398.42 0.590732
7398.51 0.683325
7398.68 1.10906
7398.86 2.10148
7399.04 4.21358
7399.13 6.06717
7399.22 8.77966
7399.31 12.8526
7399.40 19.1067
7399.49 29.1212
7399.58 45.3073
7399.67 72.5031
7399.76 118.670
7399.87 221.716
7399.99 320.444
7400.05 323.542
7400.11 293.791
7400.23 208.233
7400.30 162.270
7400.38 129.091
7400.53 87.6971
7400.69 64.7627
7400.84 50.9036
7401.00 41.8281
7401.15 35.6006
7401.46 27.6904
7401.77 22.9488
7402.08 19.8456
7402.69 16.0519
7403.31 13.8411
7403.93 12.3973
7405.16 10.6205
7406.39 9.55461
7407.63 8.83151
7410.09 7.87815
7412.56 7.23988
7415.03 6.75280
7417.50 6.36626
7418.73 6.28920
7419.04 6.35810
7419.35 6.62865
7419.50 7.02544
7419.66 8.09994
7419.73 9.45603
7419.81 12.7102
7419.85 16.4089
7419.89 23.7942
7419.91 31.1009
7419.93 42.7118
7419.94 63.1690
7419.96 101.250
7419.98 159.705
7420.00 196.848
7420.02 160.012
7420.04 101.637
7420.05 74.7796
7420.06 56.8888
7420.09 35.5168
7420.11 24.8843
7420.14 19.0037
7420.19 13.1631
7420.24 10.4924
7420.34 8.20170
7420.44 7.26922
7420.64 6.52001
7420.84 6.21944
7421.24 5.95793
7421.64 5.82660
7423.24 5.52890
7426.44 5.07190
7429.64 4.62803
7432.84 4.17208
7439.23 3.18298
7445.63 2.05316
7452.03 0.831102
7455.23 0.315964
7456.83 0.160949
7458.43 0.149761
7459.23 0.229710
7460.03 0.392380
7460.83 0.665575
7461.63 1.08733
7462.43 1.71031
7463.23 2.60851
7464.03 3.88739
7464.83 5.69731
7465.63 8.26860
7466.43 11.9400
7467.23 17.2357
7468.03 24.9782
7468.83 36.4798
7469.63 53.8433
7470.43 80.3586
7471.23 120.614
7472.62 232.852
7474.00 340.600
7475.39 314.482
7476.77 227.141
7478.10 163.099
7479.42 122.141
7480.75 95.8731
7482.07 78.3299
7484.72 57.1354
7487.37 45.2238
7490.02 37.7580
7492.67 32.7055
7495.32 29.0896
7496.64 27.6779
7497.30 27.1743
7497.63 27.4039
7497.72 27.8267
7497.80 28.9739
7497.84 30.3644
7497.88 33.2973
7497.92 41.0945
7497.95 50.6913
7497.97 69.3024
7497.98 95.6232
7498.00 112.441
7498.02 95.7642
7498.03 69.4613
7498.05 55.8337
7498.06 46.8169
7498.09 37.4120
7498.12 33.1026
7498.15 30.8295
7498.20 28.6429
7498.26 27.6658
7498.37 26.7823
7498.48 26.3746
7498.92 25.6680
7499.81 24.8743
7500.70 24.2073
7501.59 23.5997
7505.15 21.5691
7512.27 18.7432
7519.38 16.8532
7526.50 15.4840
7533.61 14.4304
7540.73 13.5797
7544.28 13.2087
7547.84 12.8678
7551.40 12.5698
7553.18 12.5195
7553.62 12.5890
7554.07 12.8499
7554.29 13.2341
7554.51 14.2837
7554.62 15.6321
7554.73 18.9574
7554.79 22.8458
7554.84 31.0305
7554.87 39.2101
7554.90 53.6575
7554.93 81.6531
7554.94 105.419
7554.96 138.456
7554.98 215.270
7555.00 265.495
7555.02 215.727
7555.04 139.038
7555.06 94.6909
7555.08 67.6987
7555.10 51.4229
7555.12 41.5621
7555.16 30.0360
7555.20 24.1035
7555.28 18.5456
7555.36 16.1257
7555.51 14.1119
7555.67 13.3200
7555.98 12.6908
7556.30 12.4407
7556.92 12.2209
7557.55 12.1086
7560.05 11.8466
7565.05 11.4442
7575.06 10.6970
7585.07 9.94021
7595.07 9.09334
7605.08 8.02063
7610.08 7.31471
7615.09 6.40047
7617.59 5.82201
7620.09 5.12478
7622.59 4.26505
7625.09 3.18552
7627.60 1.84256
7628.85 1.11133
7630.10 0.487875
7630.72 0.336599
7631.04 0.348470
7631.35 0.451843
7631.66 0.686293
7631.97 1.10835
7632.29 1.80190
7632.60 2.88921
7632.91 4.57197
7633.23 7.15626
7633.54 11.1448
7633.85 17.3558
7634.16 27.2787
7634.48 43.3916
7634.79 70.2665
7635.10 114.848
7635.55 222.788
7636.00 326.888
7636.45 302.499
7636.90 219.147
7637.19 174.697
7637.49 141.588
7638.07 99.4187
7638.66 75.4214
7639.24 60.6106
7639.83 50.7968
7640.41 43.9143
7641.58 35.0261
7642.75 29.6046
7643.92 25.9880
7646.26 21.4831
7648.60 18.7860
7650.94 16.9787
7655.62 14.6602
7660.30 13.1695
7664.99 12.0611
7674.35 10.3025
7683.71 8.58902
7688.39 7.57284
7693.07 6.31604
7697.75 4.64254
7700.09 3.57130
7702.43 2.31254
7704.77 0.964564
7705.94 0.433352
7706.53 0.301747
7706.82 0.297102
7707.11 0.350229
7707.70 0.707130
7707.99 1.06651
7708.28 1.59715
7708.57 2.36015
7708.87 3.42899
7709.16 4.92108
7709.45 6.98097
7709.74 9.84536
7710.04 13.8167
7710.33 19.3990
7710.62 27.2614
7710.91 38.5234
7711.21 54.6872
7711.50 78.1417
7711.79 111.657
7712.40 221.222
7713.00 326.335
7713.61 302.836
7714.21 221.734
7714.71 168.005
7715.22 131.192
7715.72 106.154
7716.23 88.6579
7717.24 66.5837
7718.25 53.6533
7719.26 45.3426
7720.27 39.6199
7722.29 32.3336
7724.31 27.9319
7726.33 25.0002
7728.35 22.9107
7730.37 21.3464
7734.41 19.1528
7738.45 17.6803
7742.49 16.6139
7746.53 15.7987
7754.61 14.6132
7762.69 13.7669
7778.84 12.5504
7795.00 11.5698
7803.08 11.0675
7811.16 10.4882
7819.24 9.72387
7823.28 9.19969
7827.32 8.49321
7829.34 8.02874
7831.36 7.44904
7833.38 6.69990
7835.40 5.69102
7836.41 5.04369
7837.42 4.26656
7838.43 3.32932
7839.44 2.21863
7840.45 1.04084
7840.95 0.603146
7841.21 0.519182
7841.33 0.538110
7841.46 0.614065
7841.71 1.01406
7841.96 1.93385
7842.22 3.77780
7842.34 5.25245
7842.47 7.28097
7842.59 10.1016
7842.72 13.9801
7842.85 19.3886
7842.97 27.0012
7843.10 37.8251
7843.22 53.3551
7843.35 75.7315
7843.48 107.716
7843.74 212.604
7844.00 314.056
7844.26 291.871
7844.52 213.511
7844.83 145.277
7845.14 105.701
7845.45 82.0511
7845.76 66.9699
7846.07 56.7249
7846.37 49.4548
7846.99 39.9269
7847.61 34.0394
7848.22 30.0923
7849.46 25.1691
7850.69 22.2410
7851.92 20.3095
7853.15 18.9393
7854.39 17.9177
7856.85 16.4913
7859.32 15.5384
7861.78 14.8519
7864.25 14.3300
7869.18 13.5787
7874.11 13.0522
7876.57 12.8406
7879.04 12.6543
7881.50 12.4954
7882.73 12.4586
7883.35 12.5818
7883.66 13.1368
7883.73 13.6543
7883.81 14.9093
7883.85 16.3536
7883.89 19.2835
7883.93 27.0151
7883.95 35.6745
7883.97 52.6501
7883.98 77.2851
7884.00 93.1441
7884.02 77.4446
7884.03 52.8526
7884.05 35.8574
7884.07 26.8421
7884.11 19.1644
7884.15 16.2282
7884.19 14.8316
7884.27 13.5995
7884.35 13.0877
7884.67 12.5098
7885.31 12.3121
7886.59 12.1965
7889.15 12.0495
7894.27 11.8015
7899.38 11.5803
7904.50 11.3757
7914.73 10.9919
7919.85 10.8066
7922.41 10.7317
7923.69 10.7714
7924.33 11.0888
7924.49 11.4179
7924.65 12.2961
7924.73 13.4069
7924.81 16.1046
7924.85 19.1686
7924.89 25.5979
7924.91 31.7620
7924.93 42.2930
7924.95 61.7201
7924.96 99.0663
7924.98 150.936
7925.00 188.128
7925.02 151.238
7925.04 99.4353
7925.05 70.8757
7925.06 53.7632
7925.09 34.5684
7925.12 25.5573
7925.14 20.8819
7925.20 16.2184
7925.25 14.1232
7925.36 12.3408
7925.46 11.6347
7925.67 11.0759
7925.89 10.8616
7926.74 10.6156
7928.44 10.4896
7931.84 10.3317
7938.64 10.0122
7945.44 9.63009
7952.25 9.12949
7959.05 8.39600
7962.45 7.86332
7965.85 7.12651
7967.55 6.63701
7969.26 6.02562
7970.96 5.24089
7972.66 4.20456
7973.51 3.55746
7974.36 2.80732
7975.21 1.95242
7976.06 1.05239
7976.48 0.653587
7976.91 0.396496
7977.12 0.375698
7977.33 0.478754
7977.55 0.772222
7977.76 1.35502
7977.97 2.39614
7978.18 4.15281
7978.40 7.09765
7978.61 12.0003
7978.82 20.3732
7979.03 34.8905
7979.25 60.9736
7979.46 107.639
7979.73 211.646
7980.00 311.953
7980.27 289.888
7980.54 211.808
7980.85 145.447
7981.16 106.183
7981.47 82.4682
7981.77 67.2480
7982.08 56.8963
7982.39 49.5056
7983.01 39.8039
7983.62 33.8123
7984.24 29.7884
7985.47 24.7783
7986.70 21.8040
7987.93 19.8454
7989.16 18.4608
7990.40 17.4313
7992.86 15.9998
7995.32 15.0504
7997.79 14.3712
8000.25 13.8592
8005.18 13.1315
8010.10 12.6318
8012.57 12.4345
8015.03 12.2644
8017.49 12.1321
8018.73 12.1516
8019.34 12.4621
8019.50 12.7864
8019.65 13.6379
8019.73 14.6886
8019.80 17.1453
8019.84 19.8547
8019.88 25.0615
8019.92 37.0012
8019.94 49.0632
8019.96 69.8646
8019.98 105.217
8020.00 127.997
8020.02 105.465
8020.04 70.1854
8020.06 49.3655
8020.08 37.2680
8020.12 25.0678
8020.16 19.8223
8020.20 17.1639
8020.28 14.7041
8020.35 13.6439
8020.51 12.7699
8020.67 12.4251
8021.29 12.0348
8022.53 11.8733
8025.02 11.7303
8030.00 11.5190
8034.97 11.3575
8037.46 11.3667
8038.08 11.4434
8038.70 11.6957
8039.01 12.0547
8039.33 13.0387
8039.48 14.3239
8039.64 17.5420
8039.71 21.3891
8039.79 29.8217
8039.83 38.5554
8039.87 54.7083
8039.89 68.6643
8039.91 88.3581
8039.93 118.094
8039.95 165.402
8039.97 256.647
8040.00 320.157
8040.03 257.219
8040.05 166.116
8040.08 111.426
8040.10 79.6903
8040.12 59.5095
8040.15 47.2164
8040.19 32.9810
8040.24 25.6852
8040.34 18.8774
8040.43 15.9478
8040.62 13.5059
8040.80 12.5431
8041.18 11.7916
8041.55 11.5049
8042.30 11.2758
8043.05 11.1778
8046.04 11.0131
8052.03 10.8243
8064.01 10.5006
8075.99 10.1778
8081.97 10.0070
8084.97 9.93169
8086.47 9.96109
8087.21 10.2469
8087.40 10.5494
8087.59 11.3666
8087.68 12.4205
8087.78 14.9884
8087.82 17.9839
8087.87 24.4344
8087.89 30.9715
8087.92 42.0041
8087.94 62.9852
8087.95 81.4108
8087.96 105.897
8087.98 163.580
8088.00 202.826
8088.02 164.114
8088.04 106.589
8088.06 64.9108
8088.08 43.8671
8088.10 32.5334
8088.13 25.9226
8088.17 18.9392
8088.22 15.7082
8088.30 12.8256
8088.39 11.6348
8088.57 10.6814
8088.75 10.3124
8089.11 10.0238
8089.46 9.90888
8090.88 9.75279
8093.73 9.61562
8099.42 9.36061
8105.12 9.04985
8110.81 8.63276
8113.66 8.35712
8116.51 8.00955
8119.35 7.55187
8122.20 6.91414
8123.62 6.48775
8125.05 5.95292
8126.47 5.26146
8127.89 4.33945
8128.60 3.75768
8129.32 3.07437
8130.03 2.28126
8130.74 1.41309
8131.45 0.685036
8131.81 0.629932
8132.16 1.21664
8132.34 2.01389
8132.52 3.43405
8132.70 5.89326
8132.87 10.1443
8133.05 17.6110
8133.23 31.1046
8133.32 41.7108
8133.41 56.2990
8133.50 76.4062
8133.59 103.545
8133.79 202.434
8134.00 298.222
8134.21 277.396
8134.42 202.356
8134.61 147.886
8134.80 112.519
8134.99 89.3429
8135.19 73.7482
8135.57 54.6425
8135.96 43.7869
8136.34 36.9443
8136.73 32.2959
8137.50 26.4566
8138.27 22.9770
8139.04 20.6839
8139.81 19.0647
8140.58 17.8625
8142.12 16.1986
8143.66 15.1016
8145.20 14.3227
8146.73 13.7398
8149.81 12.9203
8152.89 12.3663
8155.97 11.9613
8159.05 11.6483
8165.21 11.1844
8171.37 10.8435
8183.69 10.3349
8196.01 9.92328
8208.32 9.53356
8214.48 9.33235
8220.64 9.12007
8226.80 8.89244
8229.88 8.77899
8231.42 8.75717
8232.19 8.89158
8232.58 9.48193
8232.67 10.0370
8232.77 11.4021
8232.82 12.9724
8232.86 16.3194
8232.91 25.2752
8232.94 36.0965
8232.96 59.0406
8232.98 88.6964
8233.00 109.645
8233.02 88.9337
8233.04 59.3407
8233.06 42.8499
8233.07 32.9158
8233.10 21.9833
8233.13 16.9165
8233.16 14.2978
8233.22 11.7127
8233.28 10.5575
8233.41 9.57750
8233.53 9.18771
8234.02 8.75195
8235.00 8.59100
8236.95 8.46789
8240.87 8.26413
8244.78 8.04727
8248.70 7.80672
8256.53 7.22509
8264.36 6.43892
8268.27 5.92594
8272.19 5.29412
8276.10 4.49653
8280.02 3.46551
8281.97 2.83633
8283.93 2.12288
8287.85 0.575138
8288.83 0.288124
8289.80 0.189454
8290.29 0.273081
8290.78 0.502643
8291.27 0.948751
8291.76 1.71957
8292.25 2.98808
8292.74 5.02327
8293.23 8.28191
8293.72 13.5445
8294.21 22.2182
8294.70 36.7981
8295.19 61.9138
8295.68 105.323
8296.34 206.251
8297.00 304.534
8297.66 283.350
8298.33 206.371
8299.11 138.989
8299.89 100.113
8300.68 77.0279
8301.46 62.4126
8302.25 52.5415
8303.03 45.5422
8304.60 36.3905
8306.17 30.7535
8307.74 26.9645
8310.88 22.2131
8314.02 19.3418
8317.15 17.3879
8320.29 15.9334
8323.43 14.7638
8329.71 12.7999
8332.84 11.8239
8335.98 10.7084
8339.12 9.25409
8340.69 8.27900
8342.26 7.01138
8343.04 6.21549
8343.83 5.27371
8344.61 4.15002
8345.40 2.83427
8346.18 1.44612
8346.57 0.922278
8346.96 0.885791
8347.16 1.28922
8347.36 2.23708
8347.55 4.12311
8347.65 5.62306
8347.75 7.66764
8347.85 10.4516
8347.95 14.2496
8348.04 19.4522
8348.14 26.6180
8348.24 36.5458
8348.34 50.3606
8348.44 69.5824
8348.53 96.0631
8348.77 194.963
8349.00 290.759
8349.23 272.340
8349.47 202.379
8349.62 164.371
8349.77 135.824
8350.07 98.5496
8350.38 76.8566
8350.68 63.2655
8350.98 54.0961
8351.28 47.5922
8351.89 39.0963
8352.50 33.8372
8353.10 30.2980
8354.31 25.8501
8355.52 23.1789
8356.73 21.3965
8357.94 20.1195
8359.16 19.1567
8361.58 17.7937
8364.00 16.8664
8366.42 16.1875
8368.84 15.6646
8373.69 14.9011
8378.53 14.3612
8388.22 13.6281
8397.90 13.1385
8407.59 12.7796
8412.44 12.6322
8417.28 12.5010
8422.12 12.3846
8424.54 12.3390
8425.76 12.3520
8426.36 12.4929
8426.66 13.0374
8426.81 14.7393
8426.85 16.1062
8426.89 18.9581
8426.93 26.2771
8426.95 34.6669
8426.97 50.2864
8426.98 73.4427
8427.00 88.6161
8427.02 73.6333
8427.03 50.5307
8427.05 35.5023
8427.07 27.1302
8427.11 19.5698
8427.18 15.0763
8427.32 13.1604
8427.61 12.5205
8428.18 12.3224
8429.32 12.2473
8431.60 12.1878
8436.16 12.0985
8445.28 11.9450
8463.52 11.6944
8500.00 11.3306
8500.00 19.4354
9000.00 19.1372
10000.0 18.3340
11000.0 17.8896
12000.0 17.5057
13000.0 17.1600
14000.0 16.8499
15000.0 16.5703
16000.0 16.3277
17000.0 16.0850
18000.0 15.8456
20000.0 15.3667
22000.0 15.0394
22500.0 14.9492
25000.0 14.4982
27500.0 14.1857
30000.0 13.8732
32500.0 13.6477
35000.0 13.4221
37500.0 13.0994
40000.0 12.7767
45000.0 12.3512
50000.0 12.0234
55000.0 11.7307
60000.0 11.4657
65000.0 11.2697
70000.0 10.9922
80000.0 10.5816
90000.0 10.2200
95000.0 10.0990
99999.9 9.89675
123245 9.31425
130000 9.26027
140000 9.07048
150000 8.89630
160000 8.74682
170000 8.62574
180000 8.51368
190000 8.40932
200000 8.31243
220000 8.21245
250000 8.01940
300000 7.41243
398701 7.29845
400000 7.29737
500000 6.92419
520000 6.90793
550000 6.85640
600000 6.80075
610000 6.79760
620000 6.78790
630000 6.78545
650000 6.76457
693000 6.74044
700000 6.73660
741862 6.70297
750000 6.72785
812996 6.69884
850000 6.69879
866756 6.66772
886784 6.65879
900000 6.67169
957908 6.61400
1.00000E+06 6.62845
1.01213E+06 6.61196
1.02040E+06 6.61096
1.03629E+06 6.61985
1.05100E+06 6.62985
1.10000E+06 6.69068
1.20000E+06 6.76294
1.30000E+06 6.80292
1.40000E+06 6.81209
1.50000E+06 6.83232
1.60000E+06 6.85195
1.70000E+06 6.91373
1.80000E+06 6.98280
2.00000E+06 7.12119
2.10000E+06 7.15399
2.20000E+06 7.18835
2.30000E+06 7.22559
2.50000E+06 7.24152
2.75000E+06 7.21592
3.00000E+06 7.12044
3.50000E+06 6.89265
4.00000E+06 6.56960
4.50000E+06 6.27685
5.00000E+06 5.99441
5.50000E+06 5.75228
6.00000E+06 5.54253
6.50000E+06 5.37776
7.00000E+06 5.26351
7.23302E+06 5.21602
7.43149E+06 5.20065
7.50000E+06 5.19535
8.00000E+06 5.14377
8.20000E+06 5.11256
8.40000E+06 5.08609
8.60000E+06 5.06580
9.00000E+06 5.03996
1.00000E+07 5.03461
1.05000E+07 5.06703
1.10000E+07 5.10574
1.15000E+07 5.14155
1.20000E+07 5.17726
1.25000E+07 5.21077
1.30000E+07 5.24336
1.30172E+07 5.24431
1.35000E+07 5.27193
1.40000E+07 5.30432
1.45000E+07 5.33941
1.50000E+07 5.36809
1.55000E+07 5.39528
1.60000E+07 5.42543
1.70000E+07 5.44380
1.80000E+07 5.44982
1.90000E+07 5.43068
2.00000E+07 5.39377
2.04684E+07 5.36040
2.07796E+07 5.33878
2.20000E+07 5.25402
2.40000E+07 5.08375
2.80000E+07 4.71579
3.20000E+07 4.39805
3.50000E+07 4.24925
3.80000E+07 4.08795
4.50000E+07 4.01068
5.00000E+07 4.09499
5.50000E+07 4.19915
6.00000E+07 4.30740
6.32659E+07 4.35443
6.57966E+07 4.39087
6.84284E+07 4.42877
7.00000E+07 4.45140
7.11656E+07 4.45774
7.40122E+07 4.47321
7.69727E+07 4.48930
8.00000E+07 4.50576
8.00516E+07 4.50537
8.32536E+07 4.48089
8.65838E+07 4.45544
9.00000E+07 4.42933
9.00471E+07 4.42851
9.36490E+07 4.36585
9.73950E+07 4.30069
1.00000E+08 4.25538
1.01291E+08 4.22585
1.05342E+08 4.13321
1.09556E+08 4.03683
1.13938E+08 3.93662
1.15000E+08 3.91233
1.18496E+08 3.83288
1.23236E+08 3.72516
1.28165E+08 3.61314
1.30000E+08 3.57144
1.33292E+08 3.49793
1.38623E+08 3.37888
1.44168E+08 3.25506
1.49935E+08 3.12628
1.50000E+08 3.12483