W-182(n,tot) ENDF/B-VII.1
Energy(eV) XS(b)
1.00000E-05 1044.65
1.25000E-05 935.298
1.50000E-05 854.579
2.00000E-05 741.275
2.75000E-05 633.466
3.50000E-05 562.515
4.25000E-05 511.294
5.00000E-05 472.082
6.25000E-05 423.179
7.50000E-05 387.081
0.000100000 336.411
0.000125000 301.832
0.000150000 276.306
0.000200000 240.478
0.000275000 206.387
0.000350000 183.952
0.000425000 167.756
0.000500000 155.357
0.000625000 139.894
0.000750000 128.480
0.00100000 112.459
0.00125000 101.527
0.00150000 93.4571
0.00200000 82.1306
0.00275000 71.3549
0.00350000 64.2641
0.00425000 59.1460
0.00500000 55.2283
0.00625000 50.3433
0.00750000 46.7382
0.0100000 41.6793
0.0125000 38.2285
0.0150000 35.6823
0.0200000 32.1104
0.0253000 29.5521
0.0314750 27.4320
0.0376500 25.8591
0.0500000 23.6421
0.0625000 22.1087
0.0750000 20.9785
0.100000 19.3953
0.125000 18.3178
0.150000 17.5243
0.200000 16.4142
0.275000 15.3635
0.350000 14.6768
0.500000 13.8117
0.750000 13.0257
1.00000 12.5981
1.50000 12.2669
2.00000 12.4992
2.53130 13.7911
2.79695 15.3649
3.06260 18.4664
3.19543 21.1809
3.32825 25.4105
3.46108 32.4496
3.59390 45.3233
3.66031 56.1293
3.72673 72.5064
3.79314 98.9803
3.85955 145.762
3.89276 183.857
3.90936 209.056
3.91766 223.716
3.92596 240.020
3.93427 258.226
3.94257 278.634
3.95087 301.616
3.95917 327.612
3.96747 357.177
3.97577 390.977
3.98407 429.863
3.99238 474.886
4.00898 589.141
4.02558 750.031
4.04219 986.201
4.05879 1351.40
4.06709 1612.81
4.07539 1954.87
4.08369 2412.62
4.09199 3040.38
4.10030 3924.84
4.10860 5204.41
4.11690 7094.45
4.12520 9880.00
4.13760 15846.0
4.15000 19854.6
4.16240 15912.3
4.17480 9964.11
4.18769 6035.28
4.20059 3882.24
4.21348 2661.60
4.22638 1924.11
4.23927 1450.88
4.25216 1131.44
4.27795 742.716
4.30374 525.335
4.32953 392.024
4.38110 244.073
4.43268 168.209
4.48425 124.196
4.53583 96.3917
4.58740 77.6969
4.69055 54.8635
4.79370 41.9430
4.89685 33.9019
5.00000 28.5430
5.15625 23.2655
5.31250 19.9023
5.62500 15.9737
5.93750 13.8104
6.25000 12.4609
6.87500 10.8689
7.50000 9.93786
8.75000 8.81202
10.0000 8.06802
12.5000 6.99102
13.7500 6.59646
15.0000 6.37551
16.2500 6.59529
16.8750 7.10835
17.5000 8.23357
18.1250 10.6572
18.2813 11.6321
18.4375 12.8362
18.5156 13.5439
18.5938 14.3350
18.6328 14.7656
18.6524 14.9904
18.6719 15.2218
18.6914 15.4600
18.7109 15.7053
18.7305 15.9579
18.7500 16.2182
18.7695 16.4864
18.7891 16.7628
18.8086 17.0476
18.8281 17.3412
18.8672 17.9563
18.9063 18.6108
18.9844 20.0511
19.0625 21.6909
19.1406 23.5659
19.2188 25.7187
19.3750 31.0850
19.5313 38.3976
19.6875 48.6408
19.8438 63.4886
20.0000 85.9672
20.1259 113.476
20.2518 155.620
20.3776 224.406
20.5035 346.876
20.5664 446.958
20.6294 594.631
20.6923 824.641
20.7553 1209.49
20.8182 1920.96
20.8497 2523.58
20.8811 3441.52
20.9126 4924.72
20.9441 7502.38
20.9755 12370.6
20.9913 16400.9
21.0070 22089.1
21.0335 35604.2
21.0600 44819.9
21.0865 36110.5
21.1130 22738.2
21.1412 13695.1
21.1694 8784.65
21.1976 6019.31
21.2258 4355.06
21.2541 3289.44
21.2823 2570.68
21.3387 1695.73
21.3951 1205.48
21.4515 903.878
21.5644 567.356
21.6772 393.314
21.7900 291.428
21.9029 226.471
22.0157 182.397
22.2414 127.878
22.4671 96.4862
22.6928 76.6262
22.9184 63.1849
23.3698 46.5253
23.8212 36.8526
24.2725 30.6578
24.7239 26.4047
25.6266 21.0130
26.5293 17.7744
27.4320 15.6259
28.3348 14.0968
30.1402 12.0545
31.9456 10.7344
33.7511 9.79294
35.5565 9.07423
39.1674 8.01749
42.7783 7.24519
50.0000 6.11419
56.2500 5.35932
62.5000 4.70704
75.0000 3.52225
81.2500 2.92562
87.5000 2.28792
93.7500 1.59095
96.8750 1.23539
100.000 0.932694
101.767 0.844510
102.650 0.850732
103.092 0.873525
103.313 0.891134
103.533 0.913498
103.754 0.941162
103.975 0.974696
104.085 0.993875
104.196 1.01478
104.417 1.06218
104.638 1.11776
104.858 1.18246
105.079 1.25740
105.300 1.34382
105.742 1.55713
106.183 1.83646
106.625 2.20078
107.067 2.67527
107.508 3.29477
107.950 4.10740
108.392 5.18154
108.833 6.61600
109.275 8.55910
109.717 11.2366
110.158 15.0106
110.600 20.4788
111.042 28.6952
111.483 41.6253
111.925 63.2974
112.366 102.918
112.587 135.950
112.808 185.398
113.029 263.684
113.250 397.214
113.471 650.198
113.581 869.159
113.691 1209.57
113.802 1774.57
113.912 2793.88
113.967 3625.03
114.023 4827.17
114.078 6600.67
114.133 9211.92
114.217 14911.4
114.300 18904.4
114.384 15339.0
114.468 9697.55
114.552 6047.46
114.635 3984.00
114.719 2782.56
114.802 2043.38
114.886 1561.26
114.969 1232.13
115.136 825.615
115.303 594.193
115.470 450.265
115.805 287.590
116.139 202.253
116.473 151.713
116.807 119.166
117.141 96.8804
117.809 68.9860
118.477 52.6856
119.146 42.2321
119.814 35.0677
121.150 26.0399
122.487 20.6856
123.823 17.1889
125.160 14.7438
127.832 11.5669
130.505 9.59464
133.178 8.24324
135.851 7.24948
141.197 5.85471
146.543 4.88256
157.234 3.49690
167.926 2.41895
178.617 1.45018
189.309 0.589500
191.981 0.427670
193.318 0.365295
194.654 0.320692
195.323 0.306815
195.991 0.299744
196.659 0.300567
197.327 0.310568
197.995 0.331275
198.664 0.364508
198.998 0.386486
199.332 0.412446
200.000 0.477718
200.798 0.582912
201.597 0.724198
202.395 0.910248
203.193 1.15226
204.790 1.86809
206.386 3.06121
207.983 5.09570
209.579 8.74627
210.378 11.6935
211.176 16.0075
211.575 19.0223
211.974 23.1277
212.174 26.0294
212.373 30.4880
212.473 34.3460
212.523 37.3260
212.573 41.8017
212.623 49.4428
212.648 55.7352
212.673 65.2874
212.698 81.2260
212.722 110.877
212.735 136.516
212.747 175.689
212.760 239.249
212.772 341.979
212.786 508.675
212.800 603.450
212.814 468.616
212.821 371.920
212.828 291.076
212.837 210.092
212.847 156.957
212.866 98.8423
212.885 71.0835
212.904 56.5450
212.923 48.1963
212.942 43.1644
212.979 37.9075
213.017 35.6579
213.055 34.7401
213.131 34.6097
213.283 36.6363
213.434 39.6181
214.041 56.0019
214.647 82.1185
215.253 127.564
215.557 164.027
215.860 216.970
216.163 297.745
216.466 429.179
216.769 662.377
216.921 851.905
217.073 1129.13
217.224 1553.24
217.376 2236.33
217.527 3395.24
217.679 5409.91
217.840 8741.21
218.000 11132.2
218.161 9073.47
218.322 5724.06
218.436 4056.28
218.550 2944.53
218.664 2203.53
218.778 1698.74
219.006 1087.26
219.234 751.456
219.461 549.332
219.689 418.965
220.145 266.915
220.601 185.070
221.056 135.992
221.968 82.3790
222.879 55.0882
223.791 39.2009
224.702 29.0603
225.614 22.1387
227.436 13.4479
229.259 8.31058
231.082 5.00532
232.905 2.85021
233.817 2.12728
234.728 1.64510
235.184 1.50341
235.412 1.46010
235.639 1.43653
235.867 1.43389
236.095 1.45358
236.323 1.49722
236.551 1.56656
236.779 1.66371
237.007 1.79098
237.235 1.95100
237.462 2.14666
237.918 2.65916
238.374 3.36136
238.829 4.29580
239.285 5.51791
240.197 9.14094
241.108 15.1659
242.019 25.3567
242.931 43.3192
243.387 57.4323
243.842 77.2191
244.298 105.781
244.754 148.523
245.210 215.562
245.665 327.369
246.121 529.927
246.349 696.532
246.577 941.513
246.805 1317.50
247.032 1921.94
247.260 2940.22
247.488 4685.07
247.744 7744.37
248.000 9946.69
248.256 8171.63
248.512 5266.21
248.770 3334.81
249.028 2232.45
249.286 1585.60
249.544 1183.78
249.802 919.581
250.060 737.474
250.576 509.759
251.093 377.986
251.609 294.625
252.641 198.328
253.673 146.263
254.705 114.547
255.737 93.5748
256.769 78.8527
258.834 59.8013
260.898 48.1761
262.962 40.4237
265.027 34.9176
269.155 27.6553
273.284 23.0975
277.413 19.9723
281.541 17.6916
289.799 14.5644
298.056 12.4816
306.313 10.9105
308.378 10.5415
310.442 10.1401
311.474 9.90074
311.990 9.75940
312.506 9.59363
313.023 9.39201
313.281 9.27628
313.539 9.16038
313.668 9.11392
313.797 9.09434
313.926 9.14177
314.055 9.36331
314.119 9.62389
314.184 10.0944
314.248 10.9712
314.313 12.7136
314.377 16.5762
314.410 20.3685
314.442 26.9056
314.474 39.3583
314.490 50.0247
314.506 66.3584
314.514 77.9700
314.522 92.9700
314.531 112.683
314.539 138.695
314.547 174.546
314.555 223.554
314.563 292.976
314.571 388.284
314.578 504.213
314.585 637.857
314.600 820.690
314.607 785.279
314.615 680.181
314.629 442.327
314.645 281.253
314.660 190.693
314.675 137.869
314.690 105.170
314.705 83.7361
314.720 68.9836
314.750 50.5711
314.780 39.9025
314.810 33.1842
314.870 25.4216
314.930 21.2169
314.990 18.6583
315.050 16.9641
315.110 15.7732
315.230 14.2278
315.350 13.2824
315.470 12.6487
315.590 12.1967
315.830 11.5943
316.070 11.2098
316.550 10.7390
317.031 10.4511
317.511 10.2482
318.471 9.96262
320.392 9.58269
322.313 9.29723
329.997 8.42036
337.680 7.68335
345.364 6.97785
353.048 6.22312
356.890 5.78648
360.731 5.26595
364.573 4.58815
366.494 4.14583
368.415 3.59211
369.375 3.26003
370.336 2.88686
371.296 2.48358
372.257 2.11484
372.737 2.01297
373.217 2.07533
373.457 2.22857
373.577 2.35476
373.697 2.52526
373.818 2.75208
373.938 3.05016
374.058 3.44027
374.178 3.94888
374.298 4.61371
374.418 5.48529
374.538 6.63520
374.658 8.16468
374.778 10.2271
374.898 13.0468
375.018 16.9840
375.138 22.6087
375.258 30.9112
375.378 43.6410
375.498 64.2342
375.618 99.8970
375.678 128.100
375.738 168.112
375.798 227.159
375.858 318.481
375.919 468.570
375.979 732.937
376.039 1239.68
376.069 1664.06
376.099 2268.71
376.149 3743.30
376.200 4823.83
376.251 3977.67
376.302 2561.62
376.352 1620.61
376.403 1083.79
376.454 768.886
376.505 573.325
376.556 444.724
376.607 356.359
376.708 246.089
376.810 182.400
376.911 142.267
377.115 96.0579
377.318 71.2119
377.521 56.1542
377.725 46.2455
377.928 39.3247
378.334 30.4215
378.741 25.0340
379.148 21.4688
379.554 18.9550
380.367 15.6679
381.180 13.6267
381.994 12.2382
382.807 11.2315
384.433 9.86032
386.059 8.95695
387.686 8.30345
389.312 7.79765
392.565 7.03520
395.817 6.44929
402.322 5.47952
408.828 4.51574
412.080 3.95484
415.333 3.28218
416.959 2.88386
418.585 2.43260
420.212 1.92719
421.838 1.40371
422.651 1.18422
423.464 1.07687
423.668 1.08451
423.871 1.11372
424.074 1.17033
424.277 1.26186
424.481 1.39812
424.684 1.59201
424.887 1.86070
425.091 2.22710
425.294 2.72316
425.497 3.39259
425.700 4.29741
425.904 5.52715
426.107 7.21420
426.310 9.55990
426.514 12.8806
426.717 17.6905
426.920 24.8800
427.123 36.0568
427.327 54.3709
427.530 86.5870
427.632 112.372
427.733 149.374
427.835 204.760
427.937 291.772
428.038 437.798
428.140 703.101
428.191 920.254
428.241 1234.80
428.292 1699.14
428.343 2383.41
428.422 3928.04
428.500 5066.90
428.579 4182.28
428.658 2689.89
428.712 1958.52
428.766 1458.26
428.820 1117.33
428.874 880.126
428.982 585.946
429.090 419.742
429.198 317.411
429.306 250.046
429.522 169.555
429.738 124.844
429.954 97.2787
430.170 78.9705
430.386 66.1218
430.818 49.5597
431.250 39.5566
431.682 32.9672
432.114 28.3475
432.977 22.3656
433.841 18.7025
434.705 16.2463
435.569 14.4897
437.297 12.1437
439.025 10.6389
440.752 9.57836
442.480 8.77821
445.936 7.61388
449.391 6.75764
456.302 5.40746
463.213 4.11530
466.669 3.37705
470.124 2.51502
471.852 2.02723
473.580 1.51093
475.307 1.01372
476.171 0.816069
476.603 0.747185
477.035 0.710343
477.467 0.719406
477.683 0.747069
477.899 0.794278
478.115 0.865019
478.331 0.964085
478.547 1.09737
478.763 1.27205
478.979 1.49729
479.195 1.78429
479.627 2.60385
480.059 3.89785
480.491 5.94748
480.923 9.25066
481.354 14.7400
481.786 24.3177
482.002 31.8051
482.218 42.2647
482.434 57.3179
482.650 79.7701
482.866 114.833
483.082 172.930
483.298 277.306
483.406 362.380
483.514 486.324
483.622 674.469
483.730 972.530
483.838 1464.58
483.946 2287.76
484.073 3791.22
484.200 4908.38
484.328 4065.30
484.455 2627.43
484.577 1705.76
484.698 1163.20
484.819 836.997
484.941 630.984
485.062 493.805
485.184 398.431
485.427 278.040
485.670 207.748
485.912 163.016
486.398 111.057
486.884 82.8331
487.370 65.5929
487.856 54.1744
488.341 46.1531
489.313 35.7682
490.284 29.4346
491.256 25.2152
492.228 22.2230
494.171 18.2848
496.114 15.8204
498.057 14.1347
500.000 12.9069
504.877 10.9055
509.755 9.68281
514.632 8.83458
519.509 8.19226
529.264 7.22715
539.018 6.44872
548.773 5.67916
553.650 5.23734
558.527 4.70095
560.966 4.37221
563.404 3.98037
565.843 3.49754
568.282 2.88281
569.501 2.51059
570.720 2.09112
571.940 1.63977
573.159 1.23876
573.769 1.14371
574.073 1.16122
574.378 1.25276
574.531 1.33776
574.683 1.45731
574.835 1.61994
574.988 1.83651
575.140 2.12101
575.293 2.49167
575.445 2.97248
575.597 3.59544
575.750 4.40440
575.902 5.45768
576.055 6.83870
576.207 8.66567
576.360 11.1109
576.512 14.4325
576.664 19.0288
576.817 25.5375
576.969 35.0325
577.122 49.3828
577.274 72.1333
577.426 110.521
577.579 181.019
577.655 239.662
577.731 326.795
577.807 462.122
577.884 683.236
577.960 1063.45
578.036 1733.03
578.118 2881.06
578.200 3743.76
578.282 3111.77
578.364 2017.43
578.439 1334.47
578.514 922.974
578.589 670.780
578.664 509.420
578.814 324.847
578.964 228.148
579.114 171.270
579.263 134.892
579.563 92.4510
579.863 69.2884
580.163 55.1029
580.463 45.6915
580.762 39.0732
581.362 30.4951
581.961 25.2607
582.561 21.7741
583.160 19.3026
584.359 16.0546
585.558 14.0284
586.758 12.6479
587.957 11.6473
590.355 10.2905
592.753 9.40709
595.151 8.77934
597.549 8.30469
602.345 7.61934
607.141 7.12965
616.734 6.41672
626.326 5.83075
631.123 5.52916
635.919 5.18385
640.715 4.73652
643.113 4.43647
645.511 4.04147
646.710 3.78826
647.909 3.48022
649.108 3.09720
650.307 2.61489
650.907 2.33221
651.506 2.03067
652.106 1.74635
652.705 1.60613
653.005 1.70641
653.155 1.84790
653.305 2.08756
653.455 2.47159
653.605 3.07205
653.680 3.48754
653.755 4.00505
653.830 4.65200
653.905 5.46397
653.980 6.49016
654.054 7.79273
654.129 9.46512
654.204 11.6296
654.279 14.4748
654.354 18.2635
654.429 23.4101
654.504 30.5624
654.579 40.8004
654.654 55.9333
654.729 79.3698
654.804 117.677
654.879 185.330
654.916 239.519
654.954 317.019
654.991 432.356
655.029 609.483
655.066 892.160
655.104 1344.64
655.152 2238.13
655.200 2911.62
655.248 2423.29
655.297 1573.36
655.327 1184.19
655.357 906.935
655.416 570.844
655.476 390.872
655.536 285.710
655.596 219.345
655.656 174.995
655.776 121.054
655.896 90.5594
656.016 71.5443
656.255 49.7780
656.495 38.0599
656.735 30.9212
656.974 26.1859
657.214 22.8512
657.693 18.5111
658.172 15.8427
658.652 14.0513
659.131 12.7718
660.090 11.0731
661.048 9.99946
662.007 9.25967
662.965 8.71799
664.883 7.97404
666.800 7.48185
668.717 7.12706
670.634 6.85510
674.469 6.45402
678.303 6.15446
680.220 6.02092
682.138 5.88288
683.096 5.80289
683.575 5.75604
684.055 5.70103
684.534 5.63322
684.774 5.59305
685.013 5.55016
685.253 5.51611
685.373 5.51802
685.493 5.56424
685.553 5.62675
685.613 5.74520
685.672 5.97326
685.732 6.43679
685.792 7.48038
685.822 8.51264
685.852 10.2971
685.882 13.7002
685.897 16.6224
685.912 21.0557
685.927 28.2383
685.942 40.5664
685.950 50.1032
685.957 63.2275
685.965 81.4605
685.972 106.238
685.979 137.438
685.986 173.549
686.000 223.679
686.007 214.658
686.014 186.693
686.028 123.257
686.037 93.4207
686.046 72.5803
686.064 47.3748
686.082 34.0239
686.100 26.2753
686.118 21.4129
686.136 18.1659
686.171 14.2261
686.207 12.0038
686.243 10.6173
686.315 9.02928
686.386 8.17290
686.458 7.64937
686.529 7.30095
686.601 7.05471
686.744 6.73146
686.887 6.53045
687.173 6.29410
687.460 6.15845
687.746 6.06892
688.319 5.95398
688.891 5.87915
689.464 5.82338
690.609 5.73954
692.900 5.61793
695.190 5.52087
704.353 5.21097
722.677 4.68423
731.839 4.39933
736.420 4.23188
741.001 4.02944
745.582 3.75864
747.873 3.57460
750.163 3.33065
751.309 3.17319
752.454 2.98008
753.599 2.73663
754.745 2.42154
755.317 2.22944
755.890 2.01303
756.462 1.78230
757.035 1.58603
757.321 1.55099
757.608 1.63483
757.751 1.76330
757.894 1.99190
758.037 2.37859
758.180 3.02096
758.252 3.48855
758.324 4.09561
758.395 4.88931
758.467 5.93523
758.538 7.33429
758.610 9.23216
758.681 11.8560
758.753 15.5635
758.825 20.9743
758.896 29.1612
758.968 42.1588
759.039 64.1073
759.111 104.635
759.147 138.512
759.182 189.101
759.218 268.216
759.254 398.749
759.290 626.300
759.326 1032.72
759.363 1715.39
759.400 2231.37
759.437 1857.29
759.475 1203.93
759.518 714.717
759.561 458.190
759.605 316.708
759.648 232.796
759.691 179.193
759.735 143.119
759.821 98.9050
759.908 73.8053
759.995 58.1073
760.168 40.1328
760.342 30.4747
760.515 24.6037
760.688 20.7224
760.862 17.9963
761.209 14.4639
761.555 12.3040
761.902 10.8610
762.249 9.83511
762.942 8.47997
763.636 7.62894
764.330 7.04550
765.023 6.62009
766.410 6.03808
767.797 5.65399
769.185 5.37650
770.572 5.16209
773.346 4.83648
776.120 4.56797
777.508 4.42713
778.201 4.34631
778.895 4.25109
779.588 4.13032
779.935 4.05494
780.282 3.96698
780.455 3.91950
780.629 3.87372
780.802 3.84044
780.975 3.85243
781.062 3.90341
781.149 4.02294
781.236 4.28310
781.322 4.85947
781.366 5.39624
781.409 6.25485
781.452 7.70593
781.496 10.3258
781.539 15.5939
781.550 17.7207
781.561 20.3496
781.572 23.6715
781.582 27.9352
781.593 33.5653
781.604 41.0139
781.615 51.1805
781.626 65.4247
781.637 86.1939
781.647 116.813
781.658 163.407
781.669 234.445
781.677 304.885
781.685 387.525
781.700 501.230
781.708 480.674
781.716 416.310
781.731 271.285
781.741 203.561
781.751 155.764
781.771 98.4110
781.791 68.0834
781.810 50.5092
781.830 39.4971
781.850 32.1538
781.889 23.2765
781.929 18.2659
781.969 15.1476
782.048 11.5911
782.127 9.67861
782.206 8.51567
782.285 7.74463
782.364 7.20115
782.523 6.49267
782.681 6.05578
782.839 5.76120
782.997 5.54970
783.314 5.26579
783.630 5.08317
783.947 4.95461
784.263 4.85816
784.897 4.72041
785.530 4.62381
786.796 4.48982
788.062 4.39439
789.328 4.31819
791.860 4.19539
796.925 4.00272
801.989 3.83983
822.247 3.26220
842.504 2.64400
847.569 2.46009
852.633 2.24385
855.166 2.10953
856.432 2.02891
857.698 1.93264
858.964 1.81022
859.597 1.73367
860.230 1.64349
860.547 1.59364
860.863 1.54344
861.180 1.50121
861.496 1.49369
861.654 1.52658
861.813 1.61727
861.971 1.82973
862.129 2.32344
862.208 2.79720
862.287 3.57349
862.327 4.14960
862.367 4.91749
862.406 5.96790
862.446 7.43414
862.485 9.55677
862.505 10.9813
862.525 12.7465
862.545 14.9629
862.564 17.7888
862.584 21.4556
862.604 26.2842
862.624 32.8644
862.644 42.0538
862.663 55.3397
862.683 75.2489
862.703 106.966
862.723 160.444
862.742 256.688
862.752 332.796
862.762 435.296
862.781 715.394
862.800 920.829
862.819 759.764
862.838 487.821
862.852 348.617
862.865 256.122
862.879 194.224
862.893 151.798
862.920 100.026
862.947 71.2583
862.974 53.7009
863.001 42.2934
863.056 28.7804
863.110 21.3390
863.165 16.7940
863.219 13.7875
863.274 11.6911
863.383 9.00347
863.491 7.39112
863.600 6.33513
863.709 5.59901
863.927 4.65052
864.145 4.07364
864.363 3.68894
864.580 3.41517
865.016 3.05138
865.451 2.81965
866.322 2.53602
867.194 2.36224
868.065 2.23899
869.807 2.06285
873.291 1.81729
876.776 1.61720
883.744 1.24467
890.713 0.868068
897.682 0.490231
901.166 0.321886
902.908 0.254471
904.651 0.209102
905.522 0.199305
906.393 0.201963
907.264 0.221429
908.135 0.263942
909.006 0.338691
909.442 0.392263
909.877 0.459639
910.748 0.648814
911.619 0.942581
912.490 1.40439
913.362 2.15293
914.233 3.43127
915.104 5.80194
915.539 7.79829
915.975 10.8172
916.410 15.6682
916.846 24.1355
917.064 30.9377
917.282 40.8268
917.499 55.9522
917.717 80.6649
917.935 124.910
918.044 161.234
918.153 214.884
918.261 298.293
918.370 435.689
918.479 676.662
918.588 1115.02
918.800 2333.53
918.906 1930.64
919.012 1219.37
919.119 748.501
919.225 484.859
919.331 333.374
919.438 241.259
919.544 181.819
919.651 141.602
919.864 92.4740
920.077 64.9100
920.289 47.9625
920.715 29.0978
921.141 19.3872
921.567 13.7329
921.993 10.1484
922.418 7.73112
923.270 4.76853
924.121 3.09273
924.973 2.06188
925.825 1.39788
926.676 0.965690
927.102 0.813263
927.528 0.695719
927.954 0.609349
928.379 0.551578
928.805 0.520738
929.231 0.515907
929.657 0.536807
930.082 0.583742
930.508 0.657550
930.934 0.759573
931.786 1.05658
932.637 1.49712
933.489 2.11500
934.340 2.95891
935.192 4.09858
936.043 5.63428
936.895 7.71334
937.746 10.5550
938.598 14.4977
939.450 20.0775
940.301 28.1856
941.153 40.3708
942.004 59.5014
942.856 91.3057
943.707 148.419
944.133 194.851
944.559 262.303
944.985 364.050
945.411 523.886
945.836 784.740
946.262 1215.95
946.781 2034.97
947.300 2669.75
947.820 2239.67
948.339 1459.49
948.754 1017.47
949.170 732.178
949.585 547.532
950.000 424.214
950.781 283.649
951.563 204.747
952.344 156.178
953.125 124.123
954.688 85.5607
956.250 63.9095
957.813 50.3932
959.375 41.2976
962.500 30.0147
965.625 23.3848
968.750 19.0445
975.000 13.6504
981.250 10.2575
987.500 7.62834
990.625 6.37592
993.750 5.05060
996.875 3.54961
998.438 2.70946
1000.00 1.84444
1000.84 1.42599
1001.68 1.14101
1002.10 1.10807
1002.31 1.13808
1002.52 1.21015
1002.73 1.33679
1002.94 1.53216
1003.15 1.81854
1003.36 2.22032
1003.57 2.77827
1003.78 3.54166
1003.99 4.58156
1004.19 5.99120
1004.40 7.93028
1004.61 10.6114
1004.82 14.3692
1005.03 19.7030
1005.24 27.5324
1005.45 39.3407
1005.66 57.8807
1005.87 88.3680
1006.08 142.609
1006.19 186.012
1006.29 247.318
1006.40 338.339
1006.50 476.782
1006.61 693.155
1006.71 1028.67
1006.86 1740.78
1007.00 2294.21
1007.15 1930.48
1007.29 1272.49
1007.46 770.449
1007.63 503.234
1007.80 354.456
1007.97 265.016
1008.14 207.419
1008.31 168.181
1008.65 119.627
1008.99 91.4832
1009.33 73.6473
1010.01 52.7584
1010.69 41.2159
1011.37 34.0397
1012.05 29.1872
1012.73 25.7053
1014.08 21.0585
1015.44 18.1067
1016.80 16.0588
1018.16 14.5467
1020.88 12.4384
1023.59 11.0094
1029.02 9.11223
1034.46 7.82101
1039.89 6.80891
1050.76 5.12086
1061.62 3.47939
1067.06 2.57537
1072.49 1.59078
1075.21 1.08911
1077.92 0.635131
1079.28 0.460704
1079.96 0.398431
1080.64 0.360030
1081.32 0.353152
1081.66 0.364610
1082.00 0.387945
1082.68 0.478000
1083.02 0.549387
1083.35 0.641729
1083.69 0.758961
1084.03 0.904850
1084.71 1.30176
1085.39 1.88247
1086.07 2.71857
1086.75 3.91555
1087.43 5.63274
1088.11 8.11807
1088.79 11.7712
1089.47 17.2736
1090.15 25.7996
1090.83 39.5966
1091.50 63.2373
1092.18 107.052
1092.52 143.628
1092.86 197.679
1093.20 281.322
1093.54 415.906
1093.88 643.439
1094.22 1032.31
1094.61 1740.80
1095.00 2292.26
1095.39 1937.93
1095.78 1279.76
1096.03 960.821
1096.29 735.046
1096.80 463.931
1097.30 319.678
1097.81 235.810
1098.32 182.829
1098.83 147.341
1099.84 103.899
1100.86 79.1272
1101.87 63.5055
1103.90 45.3601
1105.93 35.3765
1107.96 29.1607
1109.99 24.9500
1112.02 21.9186
1116.08 17.8364
1120.14 15.1878
1124.20 13.2872
1128.26 11.8088
1136.38 9.45169
1140.44 8.35301
1144.49 7.16198
1148.55 5.70562
1150.58 4.78691
1152.61 3.66647
1153.63 3.01297
1154.64 2.30290
1155.66 1.58436
1156.67 1.04541
1156.93 0.998241
1157.18 1.02093
1157.44 1.14501
1157.69 1.41567
1157.82 1.62748
1157.94 1.90511
1158.07 2.26342
1158.20 2.72115
1158.45 4.03656
1158.70 6.12577
1158.96 9.49274
1159.21 15.0160
1159.47 24.4071
1159.72 41.1743
1159.85 54.6419
1159.97 73.8379
1160.10 102.055
1160.23 144.692
1160.35 213.149
1160.48 328.223
1160.61 532.288
1160.73 899.855
1160.87 1539.36
1161.00 2042.08
1161.13 1730.41
1161.27 1149.50
1161.38 804.084
1161.49 584.309
1161.60 442.268
1161.71 347.261
1161.94 233.599
1162.16 171.141
1162.38 133.099
1162.60 108.095
1163.05 78.0093
1163.49 61.0189
1163.93 50.3210
1164.38 43.0560
1164.82 37.8411
1165.71 30.9076
1166.60 26.5529
1167.49 23.5767
1168.37 21.4188
1170.15 18.4995
1171.93 16.6141
1173.70 15.2888
1175.48 14.3007
1179.03 12.9106
1182.59 11.9637
1189.69 10.7187
1196.80 9.90185
1203.90 9.30090
1218.11 8.42827
1232.32 7.77212
1246.53 7.19306
1253.64 6.88956
1260.74 6.52525
1264.30 6.28289
1266.07 6.12868
1267.85 5.93415
1269.63 5.66631
1270.51 5.48281
1271.40 5.24014
1271.85 5.08448
1272.29 4.89487
1272.73 4.65802
1273.18 4.35521
1273.40 4.17278
1273.62 3.96944
1273.84 3.75591
1274.07 3.57962
1274.18 3.55239
1274.29 3.63564
1274.40 3.96614
1274.51 4.88669
1274.57 5.83530
1274.62 7.39653
1274.65 8.58114
1274.68 10.1670
1274.71 12.3252
1274.73 15.1962
1274.76 19.4060
1274.79 25.5763
1274.82 34.9692
1274.84 49.2899
1274.86 60.0270
1274.87 74.2193
1274.89 93.3515
1274.90 119.707
1274.91 156.850
1274.93 210.357
1274.94 288.637
1274.95 393.096
1274.98 663.313
1275.00 876.117
1275.02 741.002
1275.05 489.235
1275.07 312.350
1275.09 214.929
1275.12 156.843
1275.14 120.232
1275.16 95.0030
1275.19 78.2654
1275.23 57.0006
1275.28 44.2364
1275.33 36.2309
1275.42 26.7733
1275.51 21.4773
1275.60 18.1918
1275.70 15.9830
1275.79 14.4234
1275.97 12.3410
1276.16 11.0456
1276.35 10.1577
1276.53 9.51760
1276.90 8.64682
1277.27 8.07831
1278.01 7.36105
1278.76 6.89822
1279.50 6.54664
1280.98 5.96006
1281.72 5.66799
1282.46 5.34802
1283.21 4.97671
1283.95 4.52712
1284.32 4.26487
1284.69 3.98010
1285.06 3.69326
1285.43 3.48489
1285.62 3.48547
1285.80 3.66558
1285.99 4.23944
1286.08 4.81443
1286.17 5.72025
1286.27 7.19222
1286.31 8.26344
1286.36 9.61996
1286.41 11.4328
1286.45 13.7830
1286.50 16.9351
1286.54 21.2422
1286.59 27.4163
1286.64 36.1299
1286.68 49.0772
1286.73 69.1250
1286.78 102.701
1286.82 159.972
1286.84 204.551
1286.87 266.127
1286.89 351.964
1286.91 470.886
1286.96 799.884
1287.00 1051.89
1287.04 890.429
1287.09 588.024
1287.13 404.622
1287.16 289.640
1287.20 216.958
1287.24 169.181
1287.32 113.038
1287.39 82.7295
1287.47 64.4920
1287.54 52.6106
1287.70 38.4450
1287.85 30.5212
1288.00 25.5670
1288.15 22.2215
1288.30 19.8448
1288.61 16.6825
1288.91 14.7133
1289.21 13.3710
1289.52 12.4065
1290.13 11.1082
1290.73 10.2797
1291.34 9.70344
1291.95 9.27833
1293.16 8.68899
1294.38 8.29591
1295.59 8.01069
1296.80 7.79165
1299.23 7.46959
1301.66 7.23596
1306.52 6.89573
1311.38 6.62768
1313.81 6.49926
1316.24 6.36233
1318.66 6.19938
1319.88 6.09658
1321.09 5.96583
1321.70 5.88305
1322.31 5.78240
1322.92 5.65521
1323.52 5.48733
1323.83 5.38112
1324.13 5.25574
1324.43 5.10739
1324.74 4.94115
1324.89 4.86029
1325.04 4.79925
1325.19 4.79860
1325.34 4.96754
1325.42 5.20430
1325.50 5.65690
1325.57 6.52735
1325.65 8.27778
1325.72 12.1218
1325.74 13.7402
1325.76 15.8015
1325.78 18.4645
1325.80 21.9617
1325.82 26.6423
1325.84 33.0461
1325.86 42.0345
1325.88 55.0284
1325.89 74.4500
1325.91 104.527
1325.93 152.568
1325.95 224.752
1325.96 298.012
1325.98 378.246
1326.00 499.523
1326.01 482.120
1326.03 423.559
1326.05 281.164
1326.07 199.604
1326.09 146.542
1326.11 111.965
1326.13 88.7170
1326.17 60.8024
1326.21 45.4419
1326.25 36.0965
1326.29 29.9680
1326.37 22.6248
1326.45 18.5049
1326.53 15.9278
1326.61 14.1889
1326.69 12.9482
1326.85 11.3138
1327.01 10.2970
1327.17 9.60916
1327.33 9.11794
1327.65 8.45790
1327.97 8.03901
1328.29 7.74966
1328.61 7.53804
1329.25 7.24609
1329.89 7.05319
1330.53 6.91409
1331.17 6.80795
1332.45 6.65286
1333.72 6.54135
1336.28 6.38227
1338.84 6.26517
1341.40 6.16901
1346.51 6.00810
1356.74 5.73617
1366.97 5.47764
1377.20 5.19489
1382.32 5.02817
1387.43 4.82624
1392.55 4.55556
1395.11 4.37112
1397.67 4.12561
1398.94 3.96610
1400.22 3.76896
1401.50 3.51725
1402.78 3.18401
1403.42 2.97409
1404.06 2.72828
1404.70 2.44424
1405.34 2.14290
1405.66 2.01361
1405.98 1.94733
1406.30 2.04754
1406.46 2.23273
1406.62 2.58703
1406.78 3.23771
1406.86 3.73991
1406.94 4.41825
1407.02 5.34142
1407.10 6.61189
1407.18 8.38698
1407.26 10.8789
1407.34 14.5583
1407.42 20.1118
1407.50 28.8513
1407.58 43.3758
1407.66 69.3279
1407.70 90.2703
1407.74 120.442
1407.78 165.387
1407.82 234.768
1407.86 345.299
1407.90 517.212
1407.95 877.122
1408.00 1155.59
1408.05 974.860
1408.11 644.118
1408.15 442.250
1408.20 315.313
1408.24 234.986
1408.29 182.188
1408.38 120.226
1408.46 87.1526
1408.55 67.0434
1408.64 53.9962
1408.82 38.5863
1409.00 29.9662
1409.18 24.6363
1409.36 21.0345
1409.54 18.4876
1409.90 15.1331
1410.26 13.0541
1410.62 11.6517
1410.98 10.6470
1411.70 9.31002
1412.41 8.46385
1413.13 7.88074
1413.85 7.45408
1415.29 6.86907
1416.72 6.48321
1418.16 6.20604
1419.59 5.99457
1422.46 5.68524
1425.34 5.46119
1431.08 5.13362
1436.82 4.87840
1442.57 4.65097
1454.05 4.20217
1465.54 3.67587
1471.28 3.34547
1477.03 2.93554
1482.77 2.39739
1485.64 2.05559
1488.51 1.64694
1491.39 1.16104
1492.82 0.896568
1494.26 0.643782
1495.69 0.476933
1496.41 0.489193
1496.77 0.544298
1497.13 0.650311
1497.49 0.829022
1497.85 1.11322
1498.21 1.55366
1498.57 2.23151
1498.92 3.28194
1499.28 4.94131
1499.64 7.64897
1500.00 12.2706
1500.22 16.7694
1500.44 23.4966
1500.65 34.0174
1500.87 51.4670
1501.09 82.7837
1501.20 108.280
1501.31 145.423
1501.42 201.687
1501.53 290.706
1501.64 437.601
1501.74 684.380
1501.87 1141.67
1502.00 1508.01
1502.13 1274.05
1502.26 828.057
1502.35 599.186
1502.44 443.467
1502.53 338.158
1502.62 265.404
1502.80 175.862
1502.98 125.843
1503.16 94.9510
1503.33 74.7439
1503.69 50.4760
1504.05 36.9333
1504.41 28.5126
1505.13 18.8218
1505.85 13.4769
1506.57 10.0690
1508.00 5.79934
1509.44 3.03755
1510.16 2.06997
1510.51 1.75917
1510.69 1.67415
1510.87 1.65531
1511.05 1.72359
1511.23 1.90767
1511.41 2.25172
1511.59 2.81221
1511.77 3.68477
1511.95 4.99313
1512.13 6.95976
1512.31 9.89213
1512.49 14.3733
1512.67 21.3020
1512.85 32.5115
1513.03 51.3067
1513.21 85.3062
1513.30 112.751
1513.39 151.618
1513.48 209.576
1513.57 297.852
1513.66 435.775
1513.75 648.973
1513.87 1120.34
1514.00 1495.24
1514.13 1274.94
1514.26 853.059
1514.39 551.551
1514.52 378.918
1514.65 276.565
1514.78 212.229
1514.92 169.167
1515.05 139.369
1515.31 101.442
1515.58 78.8789
1515.84 64.3301
1516.37 46.9601
1516.90 37.1841
1517.43 31.0079
1517.96 26.7861
1518.49 23.7358
1519.54 19.6228
1520.60 16.9905
1521.66 15.1581
1522.72 13.8090
1524.83 11.9463
1526.95 10.7136
1531.18 9.16337
1535.41 8.20960
1539.64 7.54889
1548.10 6.65766
1556.56 6.03307
1565.02 5.48815
1569.25 5.18473
1571.36 5.00200
1573.48 4.77532
1575.59 4.46237
1576.65 4.24465
1577.71 3.95282
1578.24 3.76353
1578.76 3.53185
1579.29 3.24245
1579.82 2.87749
1580.09 2.66230
1580.35 2.43288
1580.62 2.21369
1580.88 2.09727
1581.01 2.16037
1581.14 2.42067
1581.28 3.09836
1581.34 3.73721
1581.41 4.72865
1581.47 6.29088
1581.54 8.81993
1581.57 10.6630
1581.61 13.0848
1581.64 16.3173
1581.67 20.7138
1581.71 26.8300
1581.74 35.5737
1581.77 48.4960
1581.80 68.3865
1581.84 100.564
1581.87 155.806
1581.90 256.932
1581.92 340.769
1581.94 449.287
1581.97 761.988
1582.00 1012.34
1582.03 860.265
1582.06 568.947
1582.10 369.691
1582.13 256.250
1582.16 187.687
1582.19 144.064
1582.22 114.065
1582.25 93.8084
1582.31 67.9586
1582.38 52.4428
1582.44 42.6196
1582.56 30.9894
1582.69 24.4790
1582.81 20.4321
1582.94 17.7087
1583.06 15.7806
1583.31 13.2156
1583.56 11.6217
1583.81 10.5352
1584.06 9.75530
1584.56 8.70708
1585.06 8.03738
1585.56 7.57207
1586.06 7.22909
1587.05 6.75447
1588.05 6.43795
1590.05 6.03212
1592.04 5.77256
1594.04 5.58409
1598.03 5.31182
1606.01 4.93812
1614.00 4.64381
1621.98 4.36641
1625.97 4.22071
1629.96 4.05966
1633.96 3.86539
1635.95 3.74364
1637.95 3.59069
1638.94 3.49518
1639.94 3.37996
1640.94 3.23573
1641.94 3.04698
1642.44 2.92837
1642.94 2.78814
1643.44 2.62269
1643.93 2.43561
1644.18 2.34348
1644.43 2.27183
1644.68 2.26353
1644.93 2.43857
1645.06 2.69237
1645.18 3.18474
1645.25 3.58744
1645.31 4.14443
1645.37 4.93578
1645.43 6.08133
1645.49 7.81523
1645.56 10.4423
1645.59 12.2884
1645.62 14.6544
1645.65 17.7332
1645.68 21.8118
1645.71 27.5375
1645.74 35.2697
1645.77 46.3158
1645.81 62.6511
1645.84 87.8080
1645.87 128.360
1645.90 196.712
1645.93 314.146
1645.97 531.943
1646.00 698.245
1646.02 675.154
1646.04 587.623
1646.07 388.519
1646.10 264.799
1646.13 189.754
1646.16 140.745
1646.19 109.637
1646.25 72.4691
1646.31 52.7579
1646.38 40.7181
1646.44 32.9221
1646.56 23.7532
1646.68 18.6211
1646.80 15.4620
1646.92 13.3246
1647.04 11.8192
1647.29 9.83634
1647.53 8.60930
1647.77 7.78241
1648.02 7.19030
1648.50 6.40229
1648.99 5.90295
1649.47 5.55802
1649.96 5.30476
1650.93 4.95523
1651.90 4.72207
1652.88 4.55235
1653.85 4.42102
1655.79 4.22462
1657.73 4.07822
1661.62 3.85706
1669.40 3.52462
1677.17 3.23534
1692.72 2.65287
1708.27 1.98237
1716.05 1.59300
1723.82 1.16114
1731.60 0.696689
1739.37 0.261819
1741.32 0.179774
1743.26 0.121950
1744.23 0.105866
1745.20 0.101017
1745.69 0.103596
1746.18 0.110003
1747.15 0.136005
1748.12 0.183074
1749.09 0.256207
1750.06 0.361723
1751.03 0.507654
1752.01 0.704291
1752.98 0.964939
1754.92 1.75288
1756.87 3.09244
1758.81 5.39276
1760.75 9.47173
1761.73 12.6695
1762.70 17.1188
1763.67 23.4723
1764.64 32.8130
1765.61 47.0722
1766.58 69.8771
1767.56 108.737
1768.53 180.298
1769.01 239.297
1769.50 325.122
1769.99 452.368
1770.47 640.618
1771.24 1086.09
1772.00 1449.90
1772.77 1237.07
1773.53 815.176
1774.13 574.400
1774.74 417.214
1775.34 314.474
1775.94 245.281
1777.15 162.096
1778.36 116.253
1779.56 88.2659
1780.77 69.8271
1783.18 47.3326
1785.59 33.8998
1786.80 28.7278
1788.01 23.9577
1789.21 19.0977
1789.82 16.4328
1790.42 13.4671
1791.02 10.1575
1791.32 8.50135
1791.62 7.25081
1791.78 7.09139
1791.85 7.25640
1791.93 7.67041
1792.00 8.45225
1792.08 9.73792
1792.15 11.7689
1792.23 14.9061
1792.27 17.0889
1792.30 19.8026
1792.34 23.1833
1792.38 27.2854
1792.45 39.2209
1792.53 58.2246
1792.61 90.4005
1792.68 145.696
1792.72 188.840
1792.76 245.831
1792.79 325.491
1792.83 430.067
1792.92 782.685
1793.00 1077.35
1793.09 943.813
1793.17 659.055
1793.23 499.544
1793.30 390.118
1793.36 312.951
1793.42 259.105
1793.55 189.716
1793.67 148.832
1793.80 122.588
1793.92 104.598
1794.17 81.9540
1794.42 68.3736
1794.67 59.4554
1795.17 48.4314
1795.67 41.8777
1796.17 37.4967
1797.16 31.9090
1798.16 28.3938
1799.16 25.9128
1801.16 22.5194
1803.15 20.2155
1805.15 18.5000
1809.14 16.0452
1813.14 14.3311
1817.13 13.0460
1825.11 11.2203
1833.10 9.96475
1841.09 9.03300
1857.06 7.70337
1873.03 6.74548
1889.00 5.95210
1896.99 5.56950
1904.97 5.15329
1908.97 4.90213
1910.96 4.75024
1912.96 4.56437
1914.96 4.31349
1915.95 4.14249
1916.95 3.91568
1917.45 3.76943
1917.95 3.59037
1918.45 3.36533
1918.95 3.07560
1919.20 2.89973
1919.45 2.70367
1919.70 2.49593
1919.95 2.32324
1920.07 2.29437
1920.20 2.37113
1920.32 2.68464
1920.38 3.01414
1920.44 3.55134
1920.51 4.44735
1920.57 5.92190
1920.63 8.52255
1920.66 10.5014
1920.69 13.2213
1920.73 17.1930
1920.76 22.7892
1920.79 31.1682
1920.82 44.2595
1920.85 65.8247
1920.88 103.724
1920.90 134.736
1920.91 175.338
1920.93 236.606
1920.94 320.605
1920.97 547.281
1921.00 726.785
1921.03 621.954
1921.06 411.556
1921.08 304.941
1921.10 232.625
1921.12 180.207
1921.13 145.296
1921.17 100.191
1921.21 74.8702
1921.25 58.5692
1921.29 47.9467
1921.37 34.7828
1921.44 27.2817
1921.52 22.5484
1921.60 19.3378
1921.67 17.0402
1921.83 13.9913
1921.98 12.1073
1922.14 10.8326
1922.29 9.91800
1922.60 8.69657
1922.91 7.92635
1923.22 7.39571
1923.52 7.00769
1924.14 6.47570
1924.76 6.12582
1925.99 5.68503
1927.22 5.40827
1928.46 5.21031
1930.92 4.92763
1935.86 4.54154
1940.79 4.23565
1950.66 3.67111
1960.53 3.06916
1970.40 2.35561
1975.33 1.93237
1980.26 1.45174
1985.20 0.917606
1987.67 0.647500
1990.13 0.409917
1991.37 0.324232
1992.60 0.282973
1993.22 0.287938
1993.53 0.299084
1993.83 0.317052
1994.45 0.377771
1995.07 0.479865
1995.68 0.637151
1996.30 0.868021
1996.92 1.19829
1997.53 1.66368
1998.15 2.31859
1998.77 3.24080
1999.38 4.54963
2000.00 6.42882
2000.66 9.39828
2001.31 13.9981
2001.97 21.4255
2002.62 34.1129
2003.28 57.5261
2003.60 76.9931
2003.93 105.653
2004.26 149.815
2004.59 220.487
2004.91 339.279
2005.24 541.373
2005.62 916.535
2006.00 1224.70
2006.38 1050.33
2006.76 695.799
2007.18 432.257
2007.60 286.304
2008.01 202.975
2008.43 152.106
2008.85 119.028
2009.27 96.3518
2010.10 68.0759
2010.94 51.6734
2011.78 41.2263
2013.45 28.9906
2015.12 22.2175
2016.79 17.9788
2018.46 15.0904
2020.14 12.9951
2023.48 10.1270
2026.82 8.20290
2033.51 5.56410
2040.20 3.48708
2043.54 2.47540
2046.89 1.46282
2048.56 0.992435
2050.23 0.620578
2051.07 0.515993
2051.48 0.498289
2051.90 0.512278
2052.32 0.566836
2052.74 0.673550
2053.16 0.847685
2053.57 1.10956
2053.99 1.48656
2054.41 2.01605
2054.83 2.74982
2055.25 3.76087
2055.66 5.15410
2056.08 7.08364
2056.50 9.78178
2056.92 13.6091
2057.34 19.1451
2057.75 27.3594
2058.17 39.9536
2058.59 60.0895
2059.01 94.0422
2059.43 155.209
2059.63 204.354
2059.84 274.007
2060.05 373.924
2060.26 515.790
2060.63 888.555
2061.00 1194.10
2061.38 1025.32
2061.75 684.970
2062.08 472.658
2062.41 339.333
2062.74 254.957
2063.07 199.527
2063.72 133.914
2064.38 98.3095
2065.04 76.6933
2065.70 62.5262
2067.01 45.4472
2068.32 35.7387
2069.64 29.5798
2070.95 25.3518
2072.27 22.2840
2074.90 18.1255
2077.53 15.4189
2080.15 13.4840
2082.78 11.9936
2088.04 9.68569
2090.67 8.65953
2093.30 7.58916
2095.93 6.32660
2097.24 5.54082
2098.56 4.57369
2099.22 3.99293
2099.87 3.33330
2100.53 2.59482
2101.19 1.83424
2101.52 1.51658
2101.85 1.35750
2102.01 1.40225
2102.17 1.59427
2102.34 2.01999
2102.50 2.82385
2102.59 3.44828
2102.67 4.26817
2102.75 5.35448
2102.83 6.79660
2102.91 8.72069
2103.00 11.3084
2103.08 14.8270
2103.16 19.6807
2103.24 26.5968
2103.32 36.4339
2103.41 50.9640
2103.49 73.1605
2103.57 108.464
2103.65 167.278
2103.73 269.879
2103.82 452.525
2103.91 788.983
2104.00 1066.63
2104.09 918.894
2104.19 621.506
2104.26 446.759
2104.33 331.467
2104.41 255.393
2104.48 204.243
2104.63 140.950
2104.78 105.694
2104.92 83.7313
2105.07 69.2138
2105.37 51.4219
2105.66 41.2079
2105.96 34.6901
2106.25 30.2131
2106.54 26.9766
2107.13 22.6060
2107.72 19.8147
2108.31 17.8807
2108.90 16.4627
2110.08 14.5084
2111.26 13.2171
2113.62 11.5811
2115.98 10.5527
2118.34 9.82018
2123.06 8.79228
2132.49 7.45387
2141.92 6.43703
2151.36 5.44347
2156.08 4.87942
2160.79 4.20658
2165.51 3.33032
2167.87 2.76359
2170.23 2.06896
2171.41 1.66487
2172.59 1.22943
2173.77 0.796051
2174.36 0.611201
2174.95 0.488921
2175.54 0.497056
2175.83 0.589148
2176.13 0.775796
2176.42 1.10085
2176.72 1.63165
2177.01 2.47465
2177.30 3.79830
2177.60 5.90708
2177.89 9.32800
2178.19 15.0734
2178.48 25.1879
2178.63 33.2359
2178.78 44.5011
2178.93 60.9469
2179.07 85.4439
2179.22 123.951
2179.37 186.417
2179.52 292.906
2179.66 478.051
2179.83 823.685
2180.00 1110.62
2180.17 956.283
2180.34 639.251
2180.52 411.252
2180.69 280.436
2180.87 203.517
2181.05 155.714
2181.22 123.877
2181.40 101.859
2181.75 73.8714
2182.11 57.3193
2182.46 46.6778
2183.16 34.0496
2183.87 26.9660
2184.58 22.5142
2185.28 19.4751
2185.99 17.2828
2187.40 14.3316
2188.82 12.4339
2191.64 10.1025
2194.47 8.67065
2197.29 7.64369
2202.95 6.08822
2205.77 5.38996
2208.60 4.67133
2211.42 3.88175
2214.25 2.96553
2215.66 2.44425
2217.08 1.88272
2218.49 1.31280
2219.90 0.862809
2220.26 0.809683
2220.61 0.804124
2220.96 0.867213
2221.32 1.03025
2221.67 1.34129
2222.02 1.87078
2222.20 2.25209
2222.38 2.73296
2222.73 4.11287
2223.08 6.33198
2223.44 9.93710
2223.79 15.9869
2224.14 26.6237
2224.32 34.9960
2224.49 46.6330
2224.67 63.4151
2224.85 88.0669
2225.02 125.986
2225.20 185.864
2225.38 284.912
2225.55 448.683
2225.78 780.928
2226.00 1055.46
2226.22 910.735
2226.45 613.726
2226.65 424.682
2226.84 305.754
2227.04 230.438
2227.24 181.016
2227.63 122.331
2228.03 90.4764
2228.43 71.0916
2228.82 58.3862
2229.61 43.0354
2230.40 34.3130
2231.19 28.7804
2231.98 24.9941
2232.77 22.2581
2234.36 18.5787
2235.94 16.2303
2237.52 14.6022
2239.10 13.4058
2242.27 11.7540
2245.43 10.6559
2248.59 9.86087
2251.75 9.24925
2258.08 8.34506
2264.41 7.67874
2277.06 6.66568
2289.72 5.78389
2296.04 5.31446
2302.37 4.77181
2308.70 4.07559
2311.86 3.62068
2315.02 3.04350
2316.60 2.68868
2318.19 2.27570
2319.77 1.79624
2321.35 1.26395
2322.14 1.00595
2322.93 0.806496
2323.33 0.760056
2323.72 0.782226
2324.12 0.918250
2324.51 1.24619
2324.71 1.52291
2324.91 1.90822
2325.11 2.43969
2325.30 3.16626
2325.50 4.17177
2325.70 5.56646
2325.90 7.52233
2326.09 10.2917
2326.29 14.3367
2326.49 20.3824
2326.69 29.7407
2326.89 44.7976
2327.08 70.7312
2327.28 118.303
2327.38 157.593
2327.48 214.509
2327.58 298.333
2327.68 420.109
2327.84 724.568
2328.00 976.331
2328.16 841.636
2328.33 562.718
2328.43 423.522
2328.54 325.099
2328.76 207.040
2328.97 144.451
2329.19 108.075
2329.41 84.9457
2329.62 69.4270
2330.05 50.2735
2330.48 39.2284
2330.91 32.2198
2331.78 23.9800
2332.64 19.3792
2333.50 16.4841
2334.36 14.5034
2335.23 13.0654
2336.95 11.1140
2338.67 9.84358
2340.40 8.93787
2342.12 8.24916
2345.57 7.23707
2349.02 6.48437
2355.92 5.27886
2362.82 4.09881
2366.27 3.41088
2369.72 2.58924
2371.44 2.10958
2373.16 1.57976
2374.89 1.01621
2376.61 0.507613
2377.48 0.363480
2377.91 0.358121
2378.34 0.427288
2378.77 0.608323
2379.20 0.959175
2379.42 1.22595
2379.63 1.57228
2380.06 2.60007
2380.49 4.30944
2380.93 7.16656
2381.36 12.0846
2381.79 20.9576
2382.00 28.0800
2382.22 38.1526
2382.43 52.9413
2382.65 75.1895
2382.87 110.364
2383.08 168.036
2383.30 267.947
2383.51 442.989
2383.76 769.577
2384.00 1041.59
2384.25 900.030
2384.49 605.397
2384.70 419.525
2384.92 302.082
2385.13 227.483
2385.35 178.238
2385.77 120.033
2386.20 88.3515
2386.63 69.1309
2387.06 56.5086
2387.91 41.3074
2388.77 32.6645
2389.62 27.1885
2390.48 23.4328
2391.33 20.7133
2393.05 17.0351
2394.76 14.6536
2396.47 12.9583
2398.18 11.6566
2401.60 9.63995
2403.31 8.73495
2405.02 7.77779
2406.74 6.62691
2407.59 5.89919
2408.45 4.99469
2408.87 4.44811
2409.30 3.82396
2409.73 3.12291
2410.16 2.40073
2410.37 2.09782
2410.59 1.94376
2410.80 2.16001
2410.91 2.55591
2411.01 3.30455
2411.12 4.63731
2411.23 6.97324
2411.28 8.76331
2411.33 11.1176
2411.39 14.3657
2411.44 18.7388
2411.50 24.9558
2411.55 33.6436
2411.60 46.5727
2411.66 65.6634
2411.71 95.9995
2411.76 144.257
2411.82 225.022
2411.87 361.820
2411.93 637.079
2412.00 868.294
2412.07 754.946
2412.13 514.179
2412.19 360.951
2412.25 264.769
2412.31 201.915
2412.36 160.763
2412.48 111.058
2412.59 83.6489
2412.71 66.8445
2412.82 55.7115
2413.05 42.1549
2413.28 34.3704
2413.51 29.3919
2413.74 25.9621
2413.97 23.4674
2414.43 20.0961
2414.89 17.9298
2415.35 16.4211
2415.81 15.3082
2416.73 13.7694
2417.65 12.7467
2418.57 12.0095
2419.49 11.4477
2421.33 10.6328
2423.17 10.0575
2426.85 9.26827
2430.53 8.72724
2434.21 8.31698
2441.57 7.70744
2456.28 6.87772
2471.00 6.25666
2485.71 5.69311
2500.43 5.07485
2507.79 4.68181
2511.47 4.43598
2515.15 4.12874
2518.82 3.70897
2520.66 3.42257
2522.50 3.04616
2523.42 2.80647
2524.34 2.51746
2525.26 2.16293
2526.18 1.72621
2526.64 1.47620
2527.10 1.21692
2527.56 0.986223
2528.02 0.905965
2528.25 1.02806
2528.48 1.40352
2528.60 1.75988
2528.71 2.29934
2528.83 3.11266
2528.94 4.34682
2529.06 6.24972
2529.17 9.26076
2529.29 14.2078
2529.40 22.7753
2529.46 29.5149
2529.52 38.7425
2529.58 52.1897
2529.63 71.7215
2529.69 102.226
2529.75 150.138
2529.80 229.415
2529.86 362.518
2529.93 623.811
2530.00 838.500
2530.07 722.925
2530.14 481.973
2530.19 364.937
2530.23 283.004
2530.32 181.836
2530.41 127.382
2530.50 95.6144
2530.58 75.1458
2530.67 61.3209
2530.85 44.3589
2531.03 34.5304
2531.21 28.3169
2531.56 21.0205
2531.91 16.9552
2532.27 14.4144
2532.62 12.6817
2532.98 11.4359
2533.69 9.76065
2534.40 8.69133
2535.11 7.94651
2535.81 7.39500
2537.23 6.62293
2538.65 6.09633
2541.49 5.38512
2544.32 4.88029
2547.16 4.45995
2552.83 3.67556
2555.67 3.25422
2558.51 2.78083
2561.34 2.22774
2564.18 1.56826
2565.60 1.19691
2567.02 0.813857
2568.43 0.470049
2569.14 0.354964
2569.85 0.329838
2570.03 0.346151
2570.21 0.374707
2570.56 0.478389
2570.92 0.664476
2571.27 0.966109
2571.63 1.43544
2571.98 2.14589
2572.34 3.22030
2572.69 4.84289
2573.04 7.34217
2573.40 11.2616
2573.75 17.6625
2574.11 28.5736
2574.46 48.5789
2574.64 64.8912
2574.82 88.5527
2574.99 124.226
2575.17 179.240
2575.35 267.076
2575.53 408.472
2575.76 707.687
2576.00 958.841
2576.24 830.306
2576.48 557.055
2576.71 366.241
2576.95 254.068
2577.19 186.353
2577.43 143.597
2577.66 114.870
2577.90 94.8220
2578.38 69.1611
2578.85 53.9032
2579.33 44.0097
2580.28 32.2133
2581.23 25.5734
2582.18 21.3800
2583.13 18.5136
2584.08 16.4394
2585.98 13.6339
2587.87 11.8147
2589.77 10.5160
2591.67 9.51639
2595.47 7.95862
2597.37 7.25376
2599.27 6.50390
2601.17 5.59423
2602.12 5.01443
2603.07 4.28713
2603.55 3.84317
2604.02 3.33048
2604.50 2.74365
2604.97 2.11253
2605.21 1.82496
2605.45 1.63520
2605.68 1.70502
2605.80 1.95030
2605.92 2.45402
2606.04 3.40451
2606.16 5.13145
2606.22 6.48211
2606.28 8.28696
2606.34 10.7582
2606.40 14.1877
2606.46 19.1290
2606.51 26.1658
2606.57 36.6096
2606.63 52.6395
2606.69 78.8163
2606.75 122.141
2606.81 198.326
2606.87 335.347
2606.94 590.174
2607.00 801.453
2607.07 695.452
2607.13 473.332
2607.18 356.884
2607.22 276.448
2607.27 218.818
2607.31 178.676
2607.40 126.719
2607.49 96.5460
2607.58 77.1057
2607.66 64.0669
2607.84 47.7707
2608.02 38.2432
2608.20 32.1615
2608.55 24.9237
2608.90 20.8198
2609.26 18.2147
2609.61 16.4178
2609.97 15.1059
2610.68 13.3171
2611.38 12.1545
2612.09 11.3323
2612.80 10.7180
2614.22 9.84981
2615.64 9.25696
2618.47 8.47506
2621.30 7.96106
2624.14 7.58317
2629.81 7.03867
2635.48 6.64307
2641.14 6.32755
2652.48 5.82508
2675.16 5.03496
2697.83 4.29599
2720.51 3.43657
2731.84 2.89693
2743.18 2.22837
2748.85 1.82730
2754.52 1.37304
2760.19 0.870692
2765.86 0.371935
2767.27 0.267288
2768.69 0.183069
2770.11 0.130811
2771.53 0.128050
2772.23 0.153172
2772.94 0.201736
2773.65 0.279699
2774.36 0.394208
2775.07 0.555022
2775.78 0.773828
2776.49 1.06708
2777.19 1.45472
2778.61 2.63646
2780.03 4.68112
2781.45 8.29928
2782.86 14.9969
2783.57 20.4646
2784.28 28.3355
2784.99 40.0434
2785.70 58.0591
2786.41 87.1325
2787.11 136.447
2787.82 225.101
2788.53 388.926
2789.27 674.282
2790.00 916.798
2790.74 797.492
2791.47 537.394
2792.09 376.966
2792.71 273.864
2793.33 207.410
2793.95 163.083
2795.19 110.183
2796.43 81.1505
2797.67 63.4467
2798.91 51.8026
2801.39 37.7445
2803.87 29.7575
2806.35 24.6992
2808.83 21.2397
2811.31 18.7399
2816.28 15.3804
2821.24 13.2276
2826.20 11.7206
2831.16 10.5920
2841.08 8.94768
2851.00 7.63869
2855.96 6.94289
2858.44 6.52955
2860.92 6.02101
2863.41 5.32659
2864.65 4.85138
2865.89 4.22719
2866.51 3.83299
2867.13 3.36428
2867.75 2.80536
2868.37 2.15725
2868.68 1.82179
2868.99 1.52637
2869.30 1.38079
2869.45 1.44327
2869.61 1.68581
2869.76 2.24315
2869.92 3.36854
2869.99 4.29296
2870.07 5.56913
2870.15 7.38945
2870.23 9.94831
2870.30 13.7023
2870.38 19.1876
2870.46 27.6560
2870.54 40.8645
2870.61 63.0078
2870.69 101.212
2870.77 173.058
2870.81 231.156
2870.85 309.244
2870.92 545.783
2871.00 744.464
2871.08 648.262
2871.16 441.861
2871.22 307.942
2871.29 224.321
2871.36 170.874
2871.43 135.384
2871.56 93.1198
2871.70 69.9012
2871.84 55.7048
2871.97 46.3200
2872.24 34.9207
2872.52 28.3755
2872.79 24.2187
2873.06 21.3611
2873.33 19.2872
2873.88 16.4894
2874.42 14.7037
2874.97 13.4656
2875.51 12.5567
2876.60 11.3075
2877.69 10.4858
2878.78 9.89794
2879.86 9.45312
2882.04 8.81280
2884.22 8.36285
2888.57 7.74148
2892.93 7.30216
2897.28 6.95129
2905.99 6.36733
2914.70 5.81560
2919.06 5.50988
2923.41 5.14742
2927.76 4.66576
2929.94 4.33850
2932.12 3.90450
2933.21 3.62456
2934.30 3.28214
2935.39 2.85277
2936.47 2.30353
2937.02 1.97273
2937.56 1.60656
2938.11 1.22648
2938.65 0.922853
2938.92 0.885898
2939.20 1.05025
2939.33 1.27236
2939.47 1.65064
2939.60 2.26655
2939.74 3.25287
2939.88 4.83458
2940.01 7.41167
2940.15 11.7384
2940.28 19.3460
2940.35 25.3126
2940.42 33.6490
2940.49 45.5930
2940.56 63.2187
2940.62 90.1310
2940.69 132.782
2940.76 202.741
2940.83 318.811
2940.91 556.467
2941.00 756.105
2941.09 657.912
2941.17 443.915
2941.23 335.594
2941.29 259.921
2941.40 167.607
2941.52 118.289
2941.63 89.3381
2941.75 70.9328
2941.86 58.4732
2942.09 43.0555
2942.32 34.1225
2942.55 28.4073
2943.01 21.6590
2943.47 17.8614
2943.93 15.4650
2944.39 13.8197
2944.85 12.6289
2945.77 11.0178
2946.69 9.98293
2947.61 9.26018
2948.53 8.72518
2950.37 7.98037
2952.21 7.48019
2955.88 6.83110
2959.56 6.40743
2963.23 6.09224
2970.59 5.61600
2985.29 4.87858
3000.00 4.14574
3011.81 3.40795
3017.72 2.92973
3023.62 2.32565
3026.57 1.95741
3029.53 1.53433
3032.48 1.05607
3035.43 0.558522
3036.91 0.348454
3037.65 0.275046
3038.39 0.240311
3039.12 0.266687
3039.86 0.389686
3040.23 0.504203
3040.60 0.667021
3040.97 0.891581
3041.34 1.19561
3041.71 1.60403
3042.08 2.14667
3042.45 2.86832
3042.81 3.83009
3043.55 6.85970
3043.92 9.23958
3044.29 12.5425
3044.66 17.2156
3045.03 23.9881
3045.40 34.1006
3045.77 49.7675
3046.14 75.1611
3046.50 118.586
3046.87 197.181
3047.24 344.147
3047.62 599.848
3048.00 819.808
3048.38 714.934
3048.76 482.347
3049.03 355.898
3049.31 268.937
3049.58 209.584
3049.85 168.199
3050.40 116.566
3050.95 87.0321
3051.50 68.5679
3052.05 56.2089
3053.14 41.0721
3054.24 32.3774
3055.33 26.8399
3056.43 23.0479
3057.53 20.3103
3059.72 16.6432
3061.91 14.3185
3064.10 12.7176
3066.29 11.5492
3070.67 9.95171
3075.06 8.90001
3079.44 8.14204
3083.82 7.55670
3092.59 6.66234
3101.36 5.89961
3105.74 5.47329
3107.93 5.21424
3110.12 4.89083
3112.31 4.44221
3113.41 4.13073
3114.51 3.71616
3115.05 3.45010
3115.60 3.12863
3116.15 2.73551
3116.70 2.25763
3117.25 1.72790
3117.52 1.52074
3117.79 1.53278
3117.93 1.75553
3118.07 2.30031
3118.20 3.48125
3118.27 4.51316
3118.34 6.01052
3118.41 8.28396
3118.48 11.7138
3118.55 17.2184
3118.62 26.1693
3118.68 42.0410
3118.72 54.3134
3118.75 71.4220
3118.79 95.8154
3118.82 131.372
3118.85 184.078
3118.89 262.153
3118.94 458.349
3119.00 626.895
3119.06 546.720
3119.11 370.060
3119.15 273.082
3119.19 206.653
3119.24 161.446
3119.28 129.984
3119.36 90.7850
3119.44 68.3742
3119.52 54.3580
3119.60 44.9689
3119.77 33.5055
3119.93 26.8584
3120.09 22.6412
3120.26 19.7301
3120.42 17.6372
3120.75 14.8243
3121.08 13.0412
3121.40 11.8165
3121.73 10.9256
3122.38 9.71846
3123.04 8.93813
3123.69 8.39074
3124.35 7.98387
3125.65 7.41467
3126.96 7.02972
3129.58 6.52687
3132.19 6.19720
3134.81 5.95255
3140.04 5.58887
3150.51 5.06568
3160.97 4.62853
3171.44 4.18646
3176.67 3.93813
3181.90 3.64783
3187.13 3.27510
3189.75 3.03079
3192.37 2.71596
3193.67 2.51725
3194.98 2.27750
3196.29 1.98048
3197.60 1.60335
3198.25 1.37708
3198.91 1.12532
3199.56 0.860714
3200.21 0.639028
3200.54 0.598991
3200.87 0.686651
3201.19 1.05734
3201.36 1.45262
3201.52 2.09313
3201.69 3.14416
3201.85 4.87611
3202.01 7.86282
3202.09 10.1463
3202.18 13.2198
3202.26 17.5483
3202.34 23.7347
3202.42 32.8516
3202.50 46.5871
3202.58 68.7718
3202.67 106.182
3202.75 172.861
3202.83 293.514
3202.92 508.199
3203.00 690.661
3203.04 678.674
3203.09 599.449
3203.17 401.950
3203.22 307.538
3203.28 240.248
3203.38 156.553
3203.49 110.222
3203.59 82.9111
3203.69 65.2498
3203.80 53.3690
3204.01 38.5701
3204.22 30.0142
3204.43 24.5624
3204.84 18.1585
3205.26 14.5984
3205.68 12.3664
3206.10 10.8487
3206.52 9.75466
3207.35 8.28797
3208.19 7.35093
3209.02 6.69898
3209.86 6.21692
3211.53 5.54433
3213.20 5.08770
3216.55 4.47848
3219.89 4.05701
3223.24 3.71796
3229.92 3.12522
3236.61 2.50886
3239.95 2.14688
3243.30 1.71535
3246.64 1.17670
3248.31 0.858264
3249.99 0.524521
3250.82 0.376662
3251.66 0.283435
3252.08 0.281155
3252.29 0.298632
3252.49 0.333048
3252.91 0.472654
3253.33 0.757134
3253.75 1.28826
3253.96 1.70047
3254.17 2.25751
3254.38 3.01425
3254.58 4.05162
3254.79 5.49230
3255.00 7.52810
3255.21 10.4702
3255.42 14.8462
3255.63 21.5982
3255.84 32.5193
3256.05 51.2940
3256.26 86.2045
3256.36 115.364
3256.47 157.620
3256.57 220.584
3256.67 314.628
3257.00 736.600
3257.08 724.562
3257.16 640.216
3257.33 426.912
3257.51 261.587
3257.70 171.993
3257.89 121.681
3258.08 91.2884
3258.26 71.6529
3258.45 58.2436
3258.82 41.5684
3259.20 31.9059
3259.57 25.7481
3260.32 18.5230
3261.07 14.5137
3261.82 12.0021
3262.56 10.2930
3263.31 9.05779
3264.81 7.38975
3266.30 6.30620
3269.29 4.94403
3272.29 4.06932
3275.28 3.40888
3281.26 2.33806
3287.25 1.33646
3290.24 0.830424
3293.23 0.371889
3294.72 0.217846
3295.47 0.185253
3295.85 0.186244
3296.03 0.192172
3296.22 0.202241
3296.97 0.293667
3297.72 0.498243
3298.09 0.661027
3298.46 0.877941
3298.84 1.16319
3299.21 1.53422
3299.96 2.64554
3300.71 4.53212
3301.46 7.81448
3302.20 13.7943
3302.58 18.6162
3302.95 25.5074
3303.33 35.6468
3303.70 51.1039
3304.07 75.6966
3304.45 116.823
3304.82 189.225
3305.19 319.826
3305.60 555.514
3306.00 760.593
3306.40 664.509
3306.81 446.787
3307.09 331.483
3307.37 251.336
3307.65 196.148
3307.93 157.415
3308.50 108.796
3309.06 80.8469
3309.63 63.3315
3310.19 51.5943
3311.32 37.2208
3312.45 28.9537
3313.57 23.6867
3315.83 17.4632
3318.08 13.9445
3320.34 11.6855
3322.59 10.0988
3324.85 8.90458
3329.36 7.14715
3333.87 5.72786
3336.13 4.97280
3337.26 4.53013
3338.38 3.99785
3339.51 3.30332
3340.07 2.85715
3340.64 2.31959
3341.20 1.69749
3341.48 1.40814
3341.77 1.27387
3341.91 1.37449
3342.05 1.73533
3342.19 2.62428
3342.26 3.44156
3342.33 4.65969
3342.40 6.54998
3342.47 9.46005
3342.54 14.2177
3342.61 22.1094
3342.68 36.4088
3342.72 47.6758
3342.75 63.6267
3342.79 86.7856
3342.82 121.281
3342.86 173.737
3342.89 253.669
3342.95 444.698
3343.00 610.241
3343.05 533.381
3343.11 361.216
3343.14 277.811
3343.18 218.875
3343.24 144.285
3343.31 103.227
3343.38 78.6556
3343.44 62.8315
3343.51 52.0218
3343.64 38.5277
3343.78 30.6440
3343.91 25.5723
3344.18 19.5413
3344.45 16.1361
3344.72 13.9716
3344.98 12.4812
3345.25 11.3975
3345.79 9.91544
3346.32 8.95017
3346.86 8.26376
3347.39 7.74752
3348.46 7.00805
3349.54 6.49037
3351.68 5.77757
3353.82 5.27539
3355.96 4.87775
3360.25 4.23768
3368.82 3.19853
3377.38 2.22235
3385.95 1.18993
3390.24 0.663080
3392.38 0.420363
3394.52 0.220753
3395.59 0.151103
3396.67 0.114181
3397.20 0.112329
3397.74 0.124616
3398.81 0.204061
3399.88 0.385015
3400.41 0.528359
3400.95 0.717369
3402.02 1.27983
3403.09 2.20068
3404.16 3.69917
3405.23 6.15980
3406.31 10.3145
3407.38 17.6497
3407.91 23.4235
3408.45 31.4900
3408.98 43.0925
3409.52 60.2241
3410.05 86.5159
3410.59 128.289
3411.13 197.372
3411.66 312.788
3412.33 546.092
3413.00 749.624
3413.67 656.595
3414.34 443.378
3414.96 302.001
3415.57 214.644
3416.19 160.099
3416.80 124.658
3418.03 83.2854
3419.26 61.0219
3420.50 47.5936
3421.73 38.7980
3424.19 28.1983
3426.65 22.1574
3429.11 18.2975
3434.04 13.6641
3438.96 10.9471
3443.88 9.10794
3453.73 6.58587
3463.58 4.61665
3468.50 3.63799
3473.42 2.57944
3478.35 1.39941
3480.81 0.793751
3482.04 0.518523
3483.27 0.299160
3483.89 0.227721
3484.50 0.197372
3484.81 0.202892
3485.12 0.225989
3485.73 0.339687
3486.35 0.577933
3486.96 0.999319
3487.58 1.69816
3488.20 2.82165
3488.81 4.62403
3489.43 7.53709
3490.04 12.3815
3490.66 20.7434
3491.27 36.1071
3491.58 48.6370
3491.89 66.6528
3492.20 93.4707
3492.50 134.311
3492.81 198.514
3493.12 299.275
3493.56 526.854
3494.00 725.449
3494.44 636.926
3494.88 432.722
3495.32 289.123
3495.75 202.925
3496.19 150.450
3496.62 116.838
3497.06 94.1594
3497.49 78.1481
3498.36 57.5111
3499.23 45.0898
3500.10 36.9401
3501.84 27.0549
3503.58 21.3245
3505.32 17.5703
3508.80 12.7887
3512.28 9.51132
3514.02 8.02676
3515.76 6.47189
3517.50 4.68091
3518.37 3.63623
3519.24 2.48611
3520.11 1.37641
3520.54 1.06039
3520.76 1.08628
3520.87 1.18110
3520.98 1.35123
3521.20 2.03025
3521.31 2.61521
3521.41 3.43165
3521.52 4.58113
3521.63 6.18208
3521.74 8.41728
3521.85 11.5265
3521.96 15.9845
3522.07 22.4313
3522.18 31.9533
3522.28 46.2285
3522.39 68.7191
3522.50 104.703
3522.61 165.239
3522.72 266.026
3522.86 481.977
3523.00 668.584
3523.14 589.893
3523.28 408.884
3523.44 266.489
3523.60 185.870
3523.76 138.461
3523.92 108.707
3524.07 88.8589
3524.23 74.9277
3524.55 57.0185
3524.87 46.1963
3525.18 39.0941
3525.81 30.4248
3526.45 25.3776
3527.08 22.0973
3527.71 19.7869
3528.34 18.0714
3529.61 15.6713
3530.87 14.0511
3533.40 11.9403
3535.93 10.5579
3538.46 9.52707
3543.52 7.95118
3548.58 6.59245
3551.11 5.88176
3553.64 5.07473
3556.17 4.06670
3557.44 3.43025
3558.70 2.65765
3559.33 2.20876
3559.97 1.72184
3560.60 1.22338
3561.23 0.823908
3561.55 0.762210
3561.86 0.936130
3562.02 1.18440
3562.18 1.61037
3562.34 2.30371
3562.50 3.40839
3562.65 5.16419
3562.81 7.98819
3562.97 12.6453
3563.13 20.6319
3563.29 35.1171
3563.36 46.7959
3563.44 63.4747
3563.52 87.9035
3563.60 124.617
3563.68 180.958
3563.76 267.567
3563.88 474.319
3564.00 652.838
3564.12 573.737
3564.24 392.711
3564.31 306.667
3564.39 243.863
3564.53 163.550
3564.68 118.392
3564.82 90.9610
3564.97 73.1007
3565.11 60.7961
3565.40 45.2927
3565.69 36.1430
3565.98 30.2095
3566.56 23.0968
3567.14 19.0257
3567.72 16.4102
3568.30 14.5896
3568.88 13.2483
3570.04 11.3842
3571.20 10.1326
3573.52 8.49061
3575.84 7.38123
3578.15 6.50771
3582.79 5.01185
3587.43 3.48562
3589.75 2.61778
3592.06 1.65896
3593.22 1.16612
3594.38 0.716636
3594.96 0.540306
3595.54 0.431417
3596.12 0.438008
3596.70 0.642954
3596.99 0.862374
3597.28 1.19473
3597.57 1.67878
3597.86 2.36874
3598.15 3.34177
3598.44 4.70976
3598.73 6.63869
3599.02 9.36969
3599.31 13.3152
3599.60 19.1054
3599.89 27.8120
3600.18 41.2553
3600.47 62.9605
3600.76 99.4752
3601.05 163.659
3601.34 278.178
3601.67 497.479
3602.00 688.785
3602.33 607.500
3602.66 417.982
3603.02 273.908
3603.38 190.680
3603.74 141.406
3604.09 110.391
3604.45 89.6886
3604.81 75.1661
3605.53 56.5372
3606.24 45.3554
3606.96 38.0257
3608.39 29.1511
3609.82 24.0434
3611.25 20.7552
3612.69 18.4691
3614.12 16.7899
3616.98 14.4817
3619.84 12.9634
3622.71 11.8796
3625.57 11.0601
3631.30 9.88506
3637.02 9.06375
3648.48 7.94129
3659.93 7.16110
3671.38 6.54894
3694.29 5.56010
3717.20 4.68683
3740.10 3.79440
3751.56 3.30272
3763.01 2.74876
3768.74 2.43092
3774.46 2.05793
3777.33 1.82862
3778.76 1.69257
3780.19 1.53212
3781.62 1.33118
3782.34 1.20742
3783.05 1.06366
3783.77 0.906357
3784.13 0.840550
3784.48 0.827174
3784.84 1.00330
3785.02 1.30088
3785.20 1.97314
3785.29 2.60290
3785.38 3.59441
3785.47 5.26250
3785.56 8.17794
3785.60 10.5231
3785.65 13.8679
3785.69 18.8044
3785.74 26.1922
3785.78 38.3642
3785.83 58.7055
3785.87 96.7520
3785.89 126.613
3785.91 169.693
3786.00 386.108
3786.02 376.485
3786.04 330.831
3786.09 219.108
3786.11 161.851
3786.14 123.091
3786.20 76.9941
3786.25 52.8348
3786.31 38.8923
3786.37 30.0387
3786.42 24.2509
3786.54 17.2085
3786.65 13.1862
3786.76 10.6870
3786.99 7.78504
3787.21 6.20023
3787.44 5.21881
3787.66 4.55715
3787.89 4.08287
3788.34 3.44949
3788.79 3.04464
3789.24 2.76120
3789.69 2.54937
3790.59 2.24743
3791.49 2.03489
3793.28 1.73515
3796.88 1.32870
3800.48 1.01177
3807.68 0.480854
3811.28 0.267180
3813.08 0.181925
3814.88 0.118045
3816.68 0.0834301
3817.58 0.0804774
3818.48 0.0894071
3820.28 0.152149
3821.18 0.211769
3822.08 0.295034
3822.98 0.406840
3823.88 0.552898
3825.68 0.977835
3827.48 1.65171
3829.27 2.70425
3831.07 4.35437
3832.87 6.98078
3834.67 11.2923
3836.47 18.6901
3838.27 32.2552
3839.17 43.3648
3840.07 59.4945
3840.97 83.7477
3841.87 121.509
3842.77 182.289
3843.67 281.211
3846.00 667.043
3846.58 659.475
3847.17 585.478
3848.33 390.996
3849.26 275.733
3850.19 199.982
3851.11 150.359
3852.04 116.873
3853.89 76.4153
3855.75 53.8913
3857.60 39.9007
3859.46 30.4398
3863.17 18.2345
3866.87 10.0747
3868.73 6.66029
3870.58 3.56923
3871.51 2.22951
3872.44 1.19978
3872.90 0.894718
3873.36 0.822715
3873.60 0.908771
3873.83 1.10240
3874.06 1.42975
3874.29 1.92171
3874.52 2.62541
3874.76 3.59497
3874.99 4.90359
3875.22 6.63953
3875.68 11.9943
3876.15 21.3356
3876.61 38.0061
3877.07 68.6457
3877.30 93.2143
3877.54 127.532
3877.77 175.613
3878.00 241.992
3878.50 459.259
3879.00 647.586
3879.50 577.792
3880.00 410.984
3880.37 315.812
3880.74 248.470
3881.11 201.166
3881.47 167.341
3882.21 123.455
3882.94 97.2138
3883.68 80.1108
3884.41 68.2580
3885.89 53.0462
3887.36 43.7895
3888.83 37.5848
3891.77 29.7806
3894.71 25.0314
3897.65 21.8016
3903.53 17.6055
3909.42 14.9146
3915.30 12.9705
3927.07 10.1514
3938.83 7.87789
3944.72 6.73184
3950.60 5.45616
3956.48 3.90861
3959.42 2.97142
3962.36 1.90346
3965.31 0.795395
3966.04 0.563292
3966.78 0.389767
3967.51 0.319626
3967.70 0.326346
3967.88 0.345808
3968.25 0.430665
3968.62 0.594098
3968.98 0.862466
3969.35 1.27230
3969.72 1.87275
3970.09 2.73956
3970.45 3.97660
3970.82 5.73965
3971.19 8.25687
3971.56 11.9097
3971.93 17.2856
3972.29 25.3755
3972.66 37.8603
3973.03 57.9265
3973.40 91.3257
3973.76 149.500
3974.13 251.898
3974.57 454.251
3975.00 632.671
3975.44 560.738
3975.87 387.745
3976.18 292.378
3976.49 225.540
3976.81 179.121
3977.12 146.250
3977.74 104.448
3978.37 80.0083
3978.99 64.3917
3979.61 53.7494
3980.86 40.4073
3982.11 32.4731
3983.36 27.2343
3985.85 20.6165
3988.34 16.2668
3989.59 14.3874
3990.84 12.4722
3992.09 10.2685
3992.71 8.92828
3993.33 7.31409
3993.96 5.30520
3994.27 4.15105
3994.58 3.01705
3994.74 2.57201
3994.89 2.38292
3995.05 2.77282
3995.13 3.38776
3995.21 4.48724
3995.28 6.34480
3995.36 9.41864
3995.44 14.5066
3995.52 23.0612
3995.60 37.8615
3995.67 64.4911
3995.71 85.4787
3995.75 114.484
3995.79 154.707
3995.83 208.370
3995.91 391.193
3996.00 553.913
3996.09 496.403
3996.17 352.544
3996.23 274.119
3996.29 217.802
3996.35 177.751
3996.41 148.785
3996.53 111.018
3996.65 88.4353
3996.77 73.5767
3996.89 63.3591
3997.13 50.2473
3997.37 42.3152
3997.61 37.0835
3998.09 30.6136
3998.57 26.7672
3999.04 24.2170
4000.00 21.0003
4000.96 19.0117
4001.92 17.6335
4003.84 15.7836
4005.76 14.5448
4007.68 13.6204
4011.51 12.2663
4015.35 11.2624
4023.03 9.72517
4030.70 8.41700
4038.38 7.04036
4042.22 6.21842
4046.05 5.20816
4047.97 4.59185
4049.89 3.86968
4051.81 3.01190
4053.73 1.99938
4055.65 0.913534
4056.13 0.680260
4056.61 0.502331
4057.09 0.425106
4057.33 0.446853
4057.57 0.526585
4057.81 0.684516
4058.05 0.947131
4058.29 1.35121
4058.53 1.94815
4058.77 2.81097
4059.01 4.04530
4059.25 5.80708
4059.49 8.31958
4059.73 11.9684
4059.97 17.3299
4060.21 25.3734
4060.45 37.7022
4060.69 57.3884
4060.93 89.8978
4061.17 145.503
4061.40 241.209
4061.70 438.732
4062.00 613.163
4062.30 544.908
4062.60 379.294
4062.89 261.363
4063.18 189.125
4063.47 144.043
4063.76 114.742
4064.05 94.5996
4064.35 80.2439
4064.93 61.4199
4065.51 49.8980
4066.09 42.2450
4067.26 32.8602
4068.43 27.4051
4069.59 23.8713
4070.76 21.4062
4071.92 19.5928
4074.26 17.0993
4076.59 15.4628
4078.92 14.2990
4081.25 13.4240
4085.91 12.1803
4090.58 11.3229
4099.90 10.1759
4109.23 9.40345
4118.56 8.81751
4137.21 7.92001
4155.86 7.18237
4174.51 6.45555
4183.84 6.03334
4188.50 5.78114
4193.17 5.47452
4197.83 5.06345
4200.16 4.78397
4202.49 4.41317
4203.66 4.17304
4204.83 3.87717
4205.99 3.50076
4207.16 3.00473
4207.74 2.69355
4208.32 2.32926
4208.91 1.90857
4209.49 1.45556
4210.07 1.12192
4210.36 1.18801
4210.51 1.37767
4210.66 1.75861
4210.80 2.46576
4210.95 3.73395
4211.09 6.01949
4211.17 7.80661
4211.24 10.2308
4211.31 13.6660
4211.38 18.5742
4211.46 25.7613
4211.53 36.4197
4211.60 53.2458
4211.68 80.5619
4211.75 126.590
4211.82 203.891
4211.91 362.174
4212.00 503.001
4212.09 445.190
4212.18 305.263
4212.29 192.698
4212.39 130.776
4212.50 95.4834
4212.60 73.8536
4212.71 59.6861
4212.81 49.8856
4213.02 37.5352
4213.23 30.1826
4213.44 25.4114
4213.86 19.7012
4214.28 16.4442
4214.70 14.3705
4215.12 12.9368
4215.54 11.8936
4216.38 10.4745
4217.21 9.55491
4218.05 8.90853
4218.89 8.42755
4220.57 7.75115
4222.25 7.29040
4225.60 6.67758
4228.96 6.26047
4232.31 5.93392
4239.02 5.39289
4245.73 4.87799
4249.09 4.59528
4252.44 4.26879
4255.80 3.85554
4257.48 3.58817
4259.15 3.24763
4259.99 3.03451
4260.83 2.77909
4261.67 2.46490
4262.51 2.06950
4263.35 1.57172
4263.77 1.29715
4264.19 1.06660
4264.61 1.10198
4264.82 1.45753
4265.03 2.44114
4265.13 3.42848
4265.24 5.04642
4265.34 7.77260
4265.39 9.79848
4265.45 12.5141
4265.50 16.3003
4265.55 21.4855
4265.60 29.0484
4265.66 39.9710
4265.71 56.9192
4265.76 83.1409
4265.81 125.685
4265.86 195.459
4265.93 341.727
4266.00 470.967
4266.03 466.097
4266.07 415.497
4266.14 282.744
4266.18 214.824
4266.23 166.292
4266.32 107.530
4266.41 76.0918
4266.50 57.7871
4266.59 45.9882
4266.67 38.0764
4266.85 28.2010
4267.03 22.4655
4267.21 18.7881
4267.57 14.4258
4267.93 11.9663
4268.29 10.4030
4268.64 9.32577
4269.00 8.53907
4269.72 7.46343
4270.43 6.75897
4271.15 6.25514
4271.87 5.87166
4273.30 5.31177
4274.73 4.90586
4277.60 4.30639
4280.46 3.82938
4283.33 3.39440
4289.05 2.51624
4291.92 2.03535
4294.78 1.51287
4297.65 0.956539
4300.51 0.430487
4301.95 0.247364
4302.66 0.205992
4303.38 0.221228
4304.10 0.321881
4304.81 0.551780
4305.53 0.980602
4305.89 1.30254
4306.24 1.72164
4306.96 2.96838
4307.68 5.05542
4308.39 8.61364
4309.11 14.8982
4309.82 26.6306
4310.18 36.2992
4310.54 50.3480
4310.90 71.3351
4311.26 103.614
4311.61 154.523
4311.97 235.240
4312.49 419.499
4313.00 584.373
4313.51 518.440
4314.03 355.791
4314.44 257.258
4314.86 191.862
4315.27 148.516
4315.68 118.948
4316.51 82.7641
4317.33 62.4198
4318.16 49.7691
4318.99 41.3245
4320.64 30.9464
4322.29 24.9358
4323.95 21.0659
4325.60 18.3834
4327.25 16.4197
4330.56 13.7382
4333.86 11.9838
4340.48 9.78075
4347.09 8.37545
4353.70 7.28827
4357.00 6.76570
4358.66 6.48393
4360.31 6.16578
4361.96 5.77102
4362.79 5.51738
4363.62 5.19429
4364.03 4.99091
4364.44 4.74652
4364.86 4.44376
4365.27 4.05815
4365.68 3.56319
4365.89 3.27980
4366.10 3.02066
4366.30 2.96588
4366.41 3.21056
4366.51 3.96831
4366.61 6.05398
4366.66 8.24576
4366.72 11.9818
4366.77 18.9737
4366.79 24.6766
4366.82 32.5106
4366.84 44.4498
4366.87 62.5244
4366.90 90.4630
4366.92 131.676
4366.96 234.760
4367.00 323.640
4367.02 320.653
4367.04 286.099
4367.08 198.412
4367.11 145.785
4367.14 111.282
4367.17 87.2476
4367.20 71.1808
4367.26 50.8836
4367.32 39.3120
4367.38 32.0680
4367.45 27.2015
4367.57 21.1990
4367.69 17.7127
4367.81 15.4679
4367.93 13.9145
4368.06 12.7812
4368.30 11.2454
4368.54 10.2560
4368.79 9.56560
4369.03 9.05735
4369.52 8.34940
4370.01 7.87635
4370.98 7.26812
4371.96 6.87570
4372.93 6.58813
4374.88 6.16505
4378.78 5.56241
4382.69 5.07062
4390.49 4.14575
4398.29 3.14133
4402.19 2.57119
4406.09 1.94158
4409.99 1.25673
4413.90 0.576612
4415.85 0.306966
4416.82 0.220525
4417.80 0.190397
4418.77 0.246217
4419.75 0.433661
4420.24 0.598081
4420.72 0.825072
4421.21 1.13184
4421.70 1.53812
4422.67 2.77268
4423.65 4.87507
4424.62 8.49172
4425.60 14.8965
4426.58 26.8251
4427.06 36.5911
4427.55 50.6358
4428.04 71.4187
4428.53 102.820
4429.01 151.440
4429.50 226.532
4430.25 409.037
4431.00 572.699
4431.75 509.391
4432.50 351.983
4432.96 275.463
4433.43 218.986
4434.35 147.623
4435.28 107.602
4436.20 83.2844
4437.13 67.4214
4438.06 56.4626
4439.91 42.5949
4441.76 34.3458
4443.61 28.9593
4447.31 22.4214
4451.02 18.6252
4454.72 16.1382
4458.42 14.3623
4462.13 13.0044
4469.53 10.9457
4473.24 10.0579
4476.94 9.15099
4480.64 8.09292
4482.49 7.42815
4484.34 6.58548
4485.27 6.05731
4486.20 5.42290
4487.12 4.64150
4488.05 3.66059
4488.51 3.07907
4488.97 2.44133
4489.44 1.78629
4489.90 1.26101
4490.13 1.17991
4490.36 1.40133
4490.59 2.25283
4490.71 3.11531
4490.83 4.45365
4490.94 6.55213
4491.06 9.83746
4491.17 15.0636
4491.29 23.5017
4491.40 37.8723
4491.52 63.0082
4491.64 109.933
4491.75 197.986
4491.88 363.839
4492.00 512.559
4492.13 458.883
4492.25 322.239
4492.37 224.367
4492.49 164.151
4492.61 126.349
4492.74 101.507
4492.86 84.3869
4492.98 72.0815
4493.22 55.8860
4493.46 45.8773
4493.70 39.2294
4494.19 31.0326
4494.67 26.2335
4495.16 23.1205
4495.64 20.9429
4496.13 19.3369
4497.09 17.1257
4498.06 15.6750
4499.03 14.6439
4500.00 13.8707
4500.00 22.2132
5000.00 21.4103
6000.00 20.2075
7000.00 19.2773
7200.00 19.1264
8000.00 18.5231
8500.00 18.2082
9000.00 17.8934
10000.0 17.3535
11000.0 16.8942
12000.0 16.4933
12500.0 16.3131
13000.0 16.1329
14000.0 15.8086
15000.0 15.5146
17000.0 15.0630
20000.0 14.4503
22000.0 14.1929
25000.0 13.8717
30000.0 13.1363
35000.0 12.6411
40000.0 12.2566
50000.0 11.4877
55000.0 11.2272
60000.0 10.8915
65000.0 10.6814
70000.0 10.4883
72000.0 10.4197
80000.0 10.1451
85000.0 9.99613
90000.0 9.84718
99999.9 9.58390
100665 9.56639
115000 9.31144
120000 9.16809
130000 8.95783
140000 8.65696
150000 8.37699
160000 8.14247
170000 8.07005
180000 8.00355
190000 7.94220
200000 7.88186
250000 7.46285
270000 7.37805
300000 7.23887
320000 7.18314
331256 7.14905
350000 7.09529
400000 7.00871
420000 6.96137
450000 6.90229
500000 6.82081
520000 6.78436
550000 6.73781
600000 6.68960
610000 6.68679
620000 6.67763
630000 6.66893
643500 6.67102
650000 6.67210
684273 6.67507
700000 6.67645
750000 6.68619
850000 6.70097
900000 6.71788
950000 6.72975
1.00000E+06 6.74276
1.05000E+06 6.76592
1.10000E+06 6.79005
1.14211E+06 6.80301
1.15000E+06 6.81490
1.15075E+06 6.81546
1.20000E+06 6.85245
1.22818E+06 6.84341
1.25000E+06 6.88538
1.26439E+06 6.87532
1.29631E+06 6.91733
1.30000E+06 6.92859
1.33851E+06 6.93818
1.70000E+06 7.16008
1.80000E+06 7.21011
1.90000E+06 7.24350
2.00000E+06 7.25820
2.10000E+06 7.24357
2.20000E+06 7.22575
2.30000E+06 7.19813
2.50000E+06 7.15040
2.75000E+06 7.10771
3.00000E+06 7.04600
3.50000E+06 6.78241
4.00000E+06 6.44695
4.50000E+06 6.14068
5.00000E+06 5.86480
5.50000E+06 5.64655
6.00000E+06 5.46214
6.50000E+06 5.32008
7.00000E+06 5.22472
7.50000E+06 5.16617
8.00000E+06 5.13544
8.10871E+06 5.12471
8.20000E+06 5.11572
8.40000E+06 5.10279
8.60000E+06 5.09455
8.80000E+06 5.09289
9.00000E+06 5.09607
9.30000E+06 5.10047
9.60000E+06 5.10264
1.00000E+07 5.10069
1.05000E+07 5.12148
1.10000E+07 5.15618
1.15000E+07 5.18365
1.20000E+07 5.21874
1.25000E+07 5.23992
1.30000E+07 5.26788
1.35000E+07 5.29699
1.40000E+07 5.33242
1.45000E+07 5.36277
1.48268E+07 5.37885
1.50000E+07 5.38737
1.55000E+07 5.40699
1.60000E+07 5.42261
1.70000E+07 5.43528
1.80000E+07 5.43495
1.90000E+07 5.40055
2.00000E+07 5.34946
2.20000E+07 5.20364
2.32854E+07 5.09571
2.35085E+07 5.07698
2.40000E+07 5.03573
2.60000E+07 4.86209
2.80000E+07 4.68124
3.20000E+07 4.35926
3.40000E+07 4.23948
4.00000E+07 4.03644
4.50000E+07 4.03504
5.00000E+07 4.10188
5.50000E+07 4.21814
5.84929E+07 4.29203
6.00000E+07 4.32390
6.08326E+07 4.34118
6.32659E+07 4.39166
6.57966E+07 4.44417
6.84284E+07 4.49877
7.00000E+07 4.53138
7.11656E+07 4.53942
7.40122E+07 4.55907
7.69727E+07 4.57950
8.00000E+07 4.60039
8.00516E+07 4.59990
8.32536E+07 4.56923
8.65838E+07 4.53733
9.00000E+07 4.50461
9.00471E+07 4.50375
9.36490E+07 4.43825
9.73950E+07 4.37013
1.00000E+08 4.32276
1.01291E+08 4.29488
1.05342E+08 4.20741
1.09556E+08 4.11642
1.13938E+08 4.02181
1.15000E+08 3.99888
1.18496E+08 3.91922
1.23236E+08 3.81121
1.28165E+08 3.69890
1.30000E+08 3.65709
1.33292E+08 3.57956
1.38623E+08 3.45401
1.44168E+08 3.32341
1.49935E+08 3.18759
1.50000E+08 3.18606