W-183(n,tot) ENDF/B-VII.1
Energy(eV) XS(b)
1.00000E-05 509.964
1.25000E-05 456.377
1.50000E-05 416.821
2.00000E-05 361.297
2.75000E-05 308.466
3.50000E-05 273.697
4.25000E-05 248.597
5.00000E-05 229.381
6.25000E-05 205.416
7.50000E-05 187.727
0.000100000 162.896
0.000125000 145.950
0.000150000 133.442
0.000200000 115.884
0.000275000 99.1772
0.000350000 88.1825
0.000425000 80.2452
0.000500000 74.1689
0.000625000 66.5909
0.000750000 60.9972
0.00100000 53.1454
0.00125000 47.7872
0.00150000 43.8321
0.00200000 38.2804
0.00275000 32.9983
0.00350000 29.5222
0.00425000 27.0129
0.00500000 25.0920
0.00625000 22.6965
0.00750000 20.9284
0.0100000 18.4469
0.0125000 16.7537
0.0150000 15.5041
0.0200000 13.7505
0.0253000 12.4938
0.0314750 11.4520
0.0376500 10.6787
0.0500000 9.58783
0.0625000 8.83271
0.0750000 8.27570
0.100000 7.49459
0.125000 6.96221
0.150000 6.56970
0.200000 6.01964
0.275000 5.49764
0.350000 5.15516
0.500000 4.72051
0.750000 4.31533
1.00000 4.07706
1.50000 3.80400
2.00000 3.65537
2.75000 3.55043
3.50000 3.55211
4.25000 3.68715
5.00000 4.08146
5.64943 4.95959
5.97414 5.87455
6.29885 7.56933
6.46121 9.00373
6.62356 11.1923
6.78592 14.7607
6.94828 21.1463
7.02945 26.4134
7.11063 34.2800
7.19181 46.7709
7.27299 68.3310
7.35417 110.312
7.39476 147.983
7.43534 209.037
7.45564 254.756
7.47593 317.073
7.49623 404.815
7.51652 533.210
7.53682 729.951
7.55711 1047.76
7.57741 1589.34
7.59770 2534.35
7.61885 4054.71
7.64000 5070.10
7.66115 4060.80
7.68230 2541.98
7.70041 1675.06
7.71852 1147.06
7.73662 821.445
7.75473 612.303
7.79094 374.104
7.82716 250.894
7.86337 179.710
7.89959 135.107
7.97201 84.6392
8.04444 58.3202
8.11687 42.9033
8.18930 33.1083
8.26173 26.5007
8.40658 18.4139
8.55144 13.8377
8.69629 10.9958
8.84115 9.10821
9.13086 6.82951
9.42058 5.55242
9.71029 4.76037
10.0000 4.23178
10.6250 3.54670
11.2500 3.16164
12.5000 2.74259
15.0000 2.36148
17.5000 2.21420
20.0000 2.37848
21.7369 3.05934
22.6053 3.91845
23.0395 4.63446
23.4738 5.68412
23.9080 7.27878
24.3422 9.82144
24.7764 14.1564
24.9935 17.5351
25.2106 22.2944
25.4277 29.2671
25.6449 40.0125
25.8620 57.7262
26.0791 89.8117
26.1876 116.530
26.2962 156.729
26.4047 221.097
26.5133 333.283
26.5676 423.396
26.6219 554.494
26.6761 755.296
26.7304 1084.29
26.7847 1675.48
26.8118 2162.75
26.8390 2885.62
26.8661 4014.29
26.8932 5884.20
26.9204 9183.73
26.9475 15202.4
26.9738 24407.7
27.0000 30645.2
27.0263 24625.4
27.0525 15444.5
27.0789 9508.29
27.1053 6187.87
27.1317 4275.17
27.1581 3106.34
27.1845 2350.23
27.2109 1836.70
27.2636 1207.79
27.3164 853.787
27.3692 635.742
27.4748 392.636
27.5803 267.371
27.6859 194.447
27.7915 148.241
27.8970 117.103
28.1082 78.9615
28.3193 57.3089
28.5304 43.8004
28.7415 34.7818
29.1638 23.8093
29.5860 17.5941
30.0083 13.7025
30.4306 11.0850
31.2751 7.85052
32.1196 5.96639
33.8086 3.90832
35.4976 2.87578
37.1867 2.48059
38.0312 2.60503
38.4534 2.82143
38.6646 2.99483
38.8757 3.23344
39.0868 3.56729
39.2979 4.05066
39.5091 4.79184
39.7202 6.03730
39.9313 8.46463
40.0369 10.7162
40.1425 14.5826
40.2480 22.2066
40.3008 29.2236
40.3536 40.9959
40.4064 63.0720
40.4328 82.1773
40.4591 112.047
40.4855 162.292
40.5119 255.353
40.5251 333.595
40.5383 450.193
40.5515 629.222
40.5647 904.469
40.5824 1440.46
40.6000 1794.54
40.6177 1432.29
40.6353 893.791
40.6461 661.122
40.6568 497.646
40.6676 383.263
40.6783 302.038
40.6998 199.361
40.7213 140.630
40.7428 104.379
40.7643 80.6350
40.7858 64.3070
40.8073 52.6351
40.8288 44.0197
40.8503 37.4975
40.8718 32.4474
40.8933 28.4636
40.9041 26.7803
40.9149 25.2691
40.9256 23.9067
40.9364 22.6746
40.9471 21.5570
40.9579 20.5408
40.9794 18.7676
41.0224 16.0231
41.0654 14.0366
41.1514 11.4533
41.3234 9.05406
41.6674 8.13455
42.0115 8.99468
42.3555 10.8309
42.6996 13.6495
43.0436 17.7658
43.3877 23.8097
43.7317 32.9314
44.0757 47.3130
44.4198 71.4489
44.7638 115.748
44.9359 152.872
45.1079 208.855
45.2799 298.476
45.4519 454.084
45.6239 757.665
45.7100 1029.35
45.7960 1466.98
45.8820 2231.99
45.9680 3727.13
46.0110 5051.32
46.0540 7126.78
46.0970 10520.1
46.1400 16143.1
46.1900 26071.6
46.2400 32903.0
46.2900 26585.1
46.3400 16789.8
46.3825 11183.5
46.4250 7738.88
46.4675 5599.28
46.5100 4216.98
46.5950 2633.08
46.6800 1810.02
46.7650 1335.53
46.8500 1042.20
47.0200 731.399
47.1900 622.944
47.2750 630.220
47.3600 692.396
47.4450 846.578
47.5300 1190.99
47.5725 1509.10
47.6150 2014.73
47.6575 2845.78
47.7000 4222.81
47.7500 6682.63
47.8000 8371.33
47.8500 6784.49
47.9000 4332.34
47.9328 3191.33
47.9656 2405.11
48.0313 1486.19
48.0969 1012.88
48.1625 743.140
48.2281 575.679
48.2938 464.494
48.4250 329.658
48.5563 252.951
48.6875 204.300
48.9500 146.821
49.2125 114.257
49.4750 93.3632
50.0000 68.1667
50.4781 54.6147
50.9563 45.5256
51.9125 34.1793
52.8688 27.4438
53.8250 23.0208
55.7375 17.6122
57.6501 14.4492
59.5626 12.3721
61.4751 10.8922
62.4313 10.3018
63.3876 9.82031
63.8657 9.67758
64.1048 9.68127
64.3439 9.81493
64.5829 10.2880
64.7025 10.8463
64.8220 11.9345
64.9415 14.3114
65.0013 16.6359
65.0610 20.6883
65.1208 28.5655
65.1507 35.5457
65.1806 46.6386
65.2105 65.6112
65.2403 101.323
65.2553 131.693
65.2702 177.387
65.2852 248.160
65.3001 358.221
65.3101 459.227
65.3201 575.651
65.3400 727.385
65.3600 592.373
65.3799 379.149
65.3968 256.609
65.4137 180.940
65.4306 133.682
65.4475 103.033
65.4813 67.6745
65.5151 49.0964
65.5490 38.2102
65.5828 31.2972
65.6504 23.3329
65.7180 19.0717
65.7856 16.5112
65.9208 13.6856
66.0561 12.2131
66.1913 11.3292
66.4618 10.3284
66.7323 9.77139
67.0027 9.40619
67.5437 8.92915
68.6255 8.34879
69.7074 7.94228
74.0349 6.81223
78.3624 5.97252
82.6900 5.23568
87.0175 4.52292
89.1812 4.17186
91.3450 3.85781
93.5087 3.71399
94.5906 3.84530
95.6725 4.34437
96.7544 5.74891
97.2953 7.21950
97.8363 9.77374
98.1067 11.7479
98.3772 14.4714
98.6477 18.3206
98.9181 23.9295
99.1886 32.4271
99.4591 45.9744
99.7295 69.1082
99.8648 87.1682
100.000 112.634
100.121 145.401
100.243 193.400
100.364 267.271
100.486 388.382
100.607 605.259
100.668 782.613
100.728 1043.17
100.789 1443.53
100.850 2091.06
100.910 3193.49
100.971 5108.29
101.036 8274.83
101.100 10482.3
101.165 8499.55
101.230 5379.30
101.271 3964.82
101.313 2978.25
101.395 1810.75
101.478 1201.92
101.560 854.264
101.643 638.850
101.725 497.069
101.890 328.012
102.055 234.816
102.221 177.937
102.551 114.629
102.881 81.6807
103.211 62.2393
103.376 55.5823
103.541 51.2056
103.624 50.9652
103.706 55.3622
103.748 63.0707
103.768 70.5334
103.789 82.9206
103.809 104.909
103.830 146.992
103.840 183.034
103.851 237.293
103.861 321.079
103.871 450.784
103.878 576.105
103.886 723.205
103.900 927.577
103.915 776.825
103.929 518.806
103.946 326.412
103.962 224.837
103.979 168.246
103.995 134.209
104.029 97.2174
104.062 78.5848
104.095 67.6609
104.128 60.6112
104.195 52.0466
104.328 43.5063
104.461 38.9031
104.727 33.3870
104.993 29.7956
105.524 24.9637
106.056 21.7132
107.120 17.5271
108.183 14.9379
109.247 13.1800
110.310 11.9088
112.437 10.1878
114.564 9.06520
116.691 8.26129
120.945 7.14573
125.199 6.35454
129.453 5.71225
131.580 5.42217
133.707 5.14966
134.771 5.02424
135.834 4.92390
136.366 4.91250
136.632 4.94150
136.898 5.03402
137.164 5.29916
137.297 5.60027
137.429 6.18517
137.562 7.47827
137.629 8.76244
137.695 11.0342
137.762 15.5572
137.795 19.6486
137.828 26.2892
137.862 38.0239
137.895 61.0465
137.911 81.5034
137.920 95.6787
137.928 113.630
137.936 136.598
137.945 166.209
137.953 204.467
137.961 253.456
137.971 326.473
137.981 410.050
138.000 519.650
138.010 493.146
138.020 423.416
138.039 271.208
138.051 203.806
138.063 155.998
138.086 98.3942
138.110 67.7009
138.134 49.8816
138.158 38.7358
138.181 31.3330
138.229 22.4384
138.276 17.5005
138.323 14.4713
138.418 11.0856
138.513 9.32122
138.608 8.28108
138.798 7.15776
138.987 6.59524
139.177 6.27956
139.556 5.98461
140.315 5.97381
141.073 6.48701
141.832 7.89509
142.211 9.36454
142.590 12.0411
142.969 17.5962
143.159 22.8954
143.349 32.0594
143.538 49.9680
143.633 66.0914
143.728 92.3422
143.823 139.144
143.870 177.468
143.917 234.035
143.965 321.750
144.012 465.896
144.060 717.699
144.107 1172.10
144.154 1874.94
144.200 2359.37
144.247 1901.59
144.293 1190.90
144.332 793.270
144.370 548.127
144.409 395.160
144.447 296.078
144.524 182.249
144.601 123.076
144.678 88.7276
144.755 67.1954
144.909 42.8009
145.063 30.0703
145.217 22.6258
145.526 14.7230
145.834 10.8486
146.142 8.67864
146.758 6.50230
147.374 5.57036
147.991 5.22583
149.223 5.75100
149.839 6.76586
150.456 8.67166
151.072 12.2212
151.688 19.1893
151.996 25.2226
152.304 34.4536
152.612 49.3384
152.921 75.1053
153.229 124.435
153.383 167.330
153.537 233.980
153.691 344.312
153.845 541.476
153.999 928.036
154.076 1258.42
154.153 1736.63
154.277 2839.49
154.400 3619.82
154.524 2958.97
154.647 1895.95
154.789 1123.83
154.930 717.774
155.072 494.420
155.214 362.115
155.356 278.484
155.497 222.923
155.781 158.268
156.064 129.590
156.206 126.477
156.347 133.932
156.489 161.252
156.560 190.041
156.631 239.160
156.702 328.031
156.772 503.797
156.808 659.223
156.843 901.038
156.879 1290.98
156.914 1925.43
156.957 3088.36
157.000 3905.11
157.044 3182.13
157.087 2034.63
157.120 1438.14
157.152 1049.50
157.185 794.578
157.217 622.504
157.282 415.669
157.347 302.244
157.412 233.654
157.477 188.959
157.607 135.793
157.737 106.104
157.867 87.5266
158.127 65.7828
158.387 53.4850
158.647 45.5345
159.167 35.7303
159.687 29.8149
160.207 25.8062
161.248 20.6589
162.288 17.4605
163.328 15.2592
165.408 12.3686
167.488 10.4651
168.528 9.70600
169.569 9.04979
170.609 8.58145
171.129 8.54346
171.649 8.89065
171.909 9.39059
172.169 10.3483
172.429 12.2027
172.689 16.0084
172.819 19.4195
172.949 24.7820
173.079 33.7128
173.209 49.8173
173.274 63.0164
173.339 82.4389
173.404 112.438
173.469 161.792
173.534 250.166
173.567 322.343
173.599 428.134
173.632 590.027
173.664 850.170
173.697 1288.71
173.729 2042.22
173.765 3316.18
173.800 4216.46
173.836 3434.44
173.872 2183.61
173.908 1378.21
173.943 918.777
173.979 649.652
174.014 482.809
174.050 373.506
174.085 298.416
174.156 205.090
174.227 151.554
174.298 117.984
174.440 79.6772
174.582 59.3131
174.724 47.1004
174.866 39.1400
175.008 33.6253
175.292 26.6093
175.576 22.4144
175.860 19.6629
176.144 17.7345
176.712 15.2229
177.280 13.6615
177.848 12.5909
178.416 11.8044
179.552 10.7046
180.688 9.94586
182.959 8.88797
185.231 8.07784
186.367 7.69475
187.503 7.29977
188.639 6.88739
189.207 6.69500
189.775 6.57553
190.059 6.59690
190.343 6.75050
190.627 7.18916
190.911 8.30158
191.053 9.40986
191.195 11.2693
191.337 14.5588
191.479 20.8628
191.550 26.2741
191.621 34.5369
191.692 47.8631
191.763 71.0015
191.798 89.3510
191.834 115.581
191.869 154.651
191.905 215.930
191.940 318.585
191.976 505.666
191.993 659.944
192.011 883.211
192.029 1214.51
192.047 1705.49
192.073 2788.54
192.100 3558.86
192.127 2908.97
192.154 1861.35
192.184 1099.79
192.215 700.295
192.246 480.824
192.276 351.029
192.307 268.283
192.338 212.856
192.399 145.292
192.460 107.286
192.521 83.7366
192.644 57.1179
192.767 43.0626
192.889 34.6543
193.012 29.1760
193.134 25.3786
193.380 20.5396
193.625 17.6391
193.870 15.7326
194.115 14.3943
194.606 12.6517
195.096 11.5711
195.586 10.8348
196.077 10.2983
197.058 9.56008
198.038 9.06427
200.000 8.40167
200.743 8.20672
201.485 8.02614
201.857 7.94512
202.043 7.91423
202.228 7.90404
202.414 7.95645
202.507 8.04765
202.599 8.25296
202.692 8.75043
202.739 9.26549
202.785 10.1981
202.832 12.0792
202.855 13.7919
202.878 16.5717
202.901 21.4396
202.924 30.8821
202.936 39.1282
202.948 51.8330
202.959 72.0873
202.971 104.649
202.985 167.146
203.000 211.969
203.015 175.401
203.029 115.216
203.046 71.8956
203.063 48.9762
203.079 36.1582
203.096 28.5389
203.112 23.6371
203.129 20.3458
203.162 16.3021
203.195 14.0101
203.228 12.5802
203.294 10.9507
203.360 10.0772
203.426 9.54812
203.559 8.95089
203.691 8.62759
203.823 8.42553
204.088 8.18277
204.353 8.03621
204.617 7.93303
205.147 7.78661
206.205 7.58815
207.264 7.43730
211.498 6.97519
213.615 6.77088
215.733 6.55679
216.791 6.43457
217.321 6.36582
217.850 6.29036
218.379 6.21127
218.644 6.17771
218.908 6.16629
219.041 6.18312
219.173 6.23489
219.305 6.35948
219.438 6.65108
219.504 6.93063
219.570 7.38843
219.636 8.17907
219.702 9.65152
219.769 12.7426
219.802 15.6611
219.835 20.5493
219.868 29.5604
219.884 37.1256
219.901 48.3861
219.918 66.2045
219.934 95.6965
219.951 147.754
219.959 188.484
219.967 242.561
219.984 394.560
220.000 504.367
220.017 414.985
220.033 268.208
220.047 184.846
220.060 132.320
220.074 98.9865
220.087 77.1937
220.114 51.5303
220.142 37.8007
220.169 29.6424
220.196 24.4019
220.250 18.2826
220.304 14.9577
220.358 12.9351
220.413 11.6035
220.467 10.6741
220.575 9.48200
220.684 8.76494
220.792 8.29249
220.900 7.96038
221.117 7.52700
221.334 7.25753
221.768 6.93731
222.201 6.74772
222.635 6.61671
223.502 6.43360
224.370 6.29630
225.237 6.17606
225.671 6.11938
225.887 6.09354
226.104 6.07363
226.321 6.07317
226.430 6.09417
226.538 6.15374
226.646 6.31483
226.701 6.49058
226.755 6.81946
226.809 7.50686
226.836 8.15195
226.863 9.22901
226.890 11.1894
226.917 15.2182
226.931 18.9686
226.944 25.0565
226.958 35.6395
226.972 54.2205
226.986 85.3438
227.000 107.642
227.014 89.3093
227.029 59.4644
227.044 38.2669
227.060 26.8295
227.076 20.4120
227.091 16.5494
227.107 14.0695
227.123 12.3894
227.154 10.3272
227.186 9.15563
227.217 8.42378
227.280 7.58804
227.343 7.14041
227.405 6.86851
227.531 6.56116
227.656 6.39350
227.782 6.28752
228.033 6.15712
228.535 6.01398
229.037 5.92003
230.042 5.76911
231.046 5.62440
232.051 5.46575
232.553 5.37713
233.055 5.28264
233.557 5.19462
233.809 5.17108
234.060 5.19940
234.185 5.26114
234.311 5.39235
234.436 5.66325
234.562 6.24310
234.625 6.77455
234.687 7.62143
234.750 9.04699
234.813 11.6337
234.876 16.9078
234.907 21.7649
234.939 29.7478
234.970 43.9898
234.986 55.5635
235.001 72.4324
235.017 98.0415
235.033 138.729
235.048 206.256
235.064 319.219
235.082 520.552
235.100 665.615
235.118 546.592
235.136 351.799
235.156 212.791
235.176 138.735
235.196 97.3585
235.216 72.5307
235.236 56.6265
235.256 45.8714
235.296 32.6994
235.336 25.2227
235.376 20.5788
235.456 15.2963
235.536 12.4830
235.616 10.7909
235.696 9.68060
235.776 8.90534
235.936 7.90542
236.096 7.29495
236.417 6.58747
236.737 6.18098
237.057 5.90524
237.697 5.52046
238.337 5.22896
238.657 5.11082
238.978 5.04097
239.138 5.05163
239.298 5.13240
239.458 5.35969
239.618 5.92414
239.698 6.47764
239.778 7.39182
239.858 8.98041
239.938 11.9545
240.018 18.2023
240.058 24.0814
240.098 33.9266
240.138 51.9069
240.158 66.8296
240.178 88.9967
240.198 123.467
240.218 179.973
240.238 277.712
240.258 451.132
240.279 739.990
240.300 949.683
240.321 781.679
240.342 504.039
240.366 303.689
240.389 196.923
240.413 137.548
240.437 102.132
240.460 79.3593
240.484 64.0238
240.531 45.1787
240.579 34.4647
240.626 27.7914
240.721 20.1739
240.815 16.0971
240.910 13.6328
241.005 12.0091
241.099 10.8712
241.288 9.39780
241.478 8.49594
241.856 7.46020
242.235 6.91329
242.424 6.76766
242.613 6.74295
242.803 6.98377
242.897 7.34766
242.992 8.11439
243.086 9.87711
243.134 11.6465
243.181 14.7871
243.228 21.0060
243.252 26.6151
243.276 35.6063
243.299 51.2990
243.323 81.3794
243.335 107.755
243.347 147.944
243.358 211.726
243.370 313.755
243.385 507.366
243.400 644.408
243.408 612.304
243.415 525.543
243.430 336.901
243.440 246.815
243.450 185.524
243.470 113.812
243.490 77.1471
243.509 56.4962
243.529 43.7224
243.549 35.3736
243.589 25.4084
243.629 19.9164
243.668 16.5558
243.748 12.7934
243.827 10.8165
243.906 9.63122
244.065 8.30765
244.224 7.59606
244.383 7.15093
244.700 6.61297
245.018 6.28879
245.177 6.17468
245.336 6.09821
245.494 6.09877
245.574 6.16939
245.653 6.35740
245.733 6.83658
245.772 7.33631
245.812 8.23468
245.852 10.0152
245.872 11.6085
245.891 14.1256
245.911 18.4201
245.931 26.3233
245.941 32.9726
245.951 42.6654
245.961 57.2316
245.971 79.1236
245.978 101.077
245.985 126.679
246.000 161.367
246.015 133.852
246.029 88.1043
246.044 57.5460
246.059 40.2858
246.073 30.1840
246.088 23.9193
246.103 19.8094
246.118 16.9800
246.147 13.4496
246.176 11.4058
246.206 10.1203
246.265 8.63824
246.324 7.84052
246.382 7.36361
246.500 6.87564
246.618 6.78053
246.677 6.91564
246.735 7.29383
246.794 8.22415
246.824 9.15214
246.853 10.7517
246.882 13.7457
246.897 16.2736
246.912 20.0793
246.927 26.0903
246.941 36.1374
246.956 53.9592
246.963 67.9657
246.971 86.5856
246.978 111.052
246.985 139.248
247.000 177.988
247.015 147.984
247.029 97.5366
247.041 69.6823
247.053 51.8297
247.064 40.1451
247.076 32.3924
247.099 23.0995
247.122 18.0550
247.145 15.0009
247.168 13.0177
247.214 10.6741
247.260 9.37411
247.306 8.57046
247.399 7.64687
247.491 7.13867
247.583 6.81857
247.768 6.43293
247.952 6.20211
248.137 6.04234
248.506 5.82271
249.244 5.54119
249.982 5.33493
251.458 4.98721
252.934 4.65019
254.410 4.29785
255.148 4.13370
255.886 4.03885
256.255 4.06944
256.624 4.22770
256.993 4.66178
257.362 5.75001
257.547 6.83108
257.731 8.64514
257.916 11.8598
258.100 18.0429
258.192 23.3763
258.285 31.5471
258.377 44.8217
258.469 68.0547
258.515 86.6908
258.561 113.511
258.607 153.916
258.654 218.284
258.700 328.869
258.746 537.068
258.769 714.696
258.792 980.800
258.815 1394.75
258.838 2035.97
258.869 3322.37
258.900 4245.37
258.931 3472.74
258.962 2215.34
258.982 1629.88
259.002 1222.85
259.042 744.111
259.082 495.821
259.123 354.155
259.163 266.543
259.203 208.794
259.283 139.869
259.363 101.766
259.443 78.4745
259.604 52.4347
259.764 38.8161
259.925 30.7263
260.085 25.4777
260.246 21.8504
260.566 17.2404
260.887 14.4851
261.208 12.6755
261.529 11.4059
262.171 9.74959
262.812 8.71739
264.096 7.48317
265.379 6.74033
266.663 6.21177
269.230 5.41700
270.513 5.06857
271.796 4.72588
273.080 4.38435
274.363 4.07085
275.005 3.96012
275.647 3.93856
276.289 4.12837
276.930 4.85523
277.251 5.67848
277.572 7.14685
277.893 9.87502
278.053 12.1034
278.214 15.3227
278.374 20.1308
278.535 27.6121
278.695 39.9293
278.855 61.8268
278.936 79.5674
279.016 105.335
279.096 144.518
279.176 207.625
279.256 317.205
279.337 527.574
279.377 709.616
279.417 987.791
279.457 1426.81
279.497 2124.30
279.549 3468.96
279.600 4435.88
279.652 3631.62
279.704 2318.02
279.736 1728.80
279.769 1312.75
279.833 812.652
279.898 548.016
279.962 395.092
280.027 299.382
280.091 235.898
280.221 159.419
280.350 116.800
280.479 90.5298
280.737 60.9420
280.995 45.3434
281.253 36.0059
281.512 29.9116
281.770 25.6772
282.286 20.2591
282.803 16.9895
283.319 14.8231
283.835 13.2877
284.868 11.2490
285.901 9.92680
286.417 9.41249
286.934 8.99144
287.192 8.87545
287.321 8.89760
287.450 9.06443
287.579 9.61494
287.644 10.2538
287.708 11.4797
287.773 14.0969
287.805 16.5820
287.837 20.7468
287.870 28.4051
287.902 44.2848
287.918 59.1701
287.934 83.5293
287.950 125.840
287.967 201.315
287.983 326.672
288.000 417.299
288.017 344.497
288.034 224.633
288.050 147.494
288.066 102.632
288.082 75.6547
288.098 58.7869
288.130 39.7815
288.162 30.0242
288.194 24.3321
288.226 20.7330
288.290 16.5574
288.354 14.2935
288.418 12.9086
288.546 11.3349
288.675 10.4763
288.803 9.93544
289.059 9.27943
289.316 8.87847
289.572 8.59336
290.085 8.18470
291.111 7.62423
292.136 7.19035
293.162 6.81172
293.675 6.64841
294.188 6.53825
294.444 6.53378
294.701 6.60714
294.957 6.84328
295.213 7.45557
295.342 8.06447
295.470 9.07941
295.598 10.8564
295.726 14.2108
295.854 21.3222
295.919 28.0915
295.983 39.5561
296.015 48.4492
296.047 60.8442
296.079 78.8460
296.111 105.949
296.143 149.189
296.175 222.075
296.191 278.158
296.207 354.180
296.223 458.676
296.239 601.299
296.270 984.213
296.300 1261.61
296.331 1037.18
296.361 667.338
296.386 459.393
296.411 327.503
296.435 243.347
296.460 187.946
296.510 122.612
296.559 87.5439
296.609 66.6294
296.658 53.2079
296.757 37.5110
296.856 28.9624
296.955 23.7624
297.054 20.3353
297.153 17.9411
297.351 14.8668
297.549 13.0130
297.748 11.7885
297.946 10.9264
298.342 9.79771
298.738 9.09228
299.134 8.60695
299.530 8.24941
300.322 7.74843
301.114 7.40313
302.699 6.92894
304.283 6.58957
305.868 6.31204
309.037 5.83108
312.205 5.35688
313.790 5.09640
315.374 4.80868
316.167 4.65532
316.959 4.50294
317.751 4.37332
318.543 4.33611
318.939 4.41350
319.335 4.64147
319.732 5.18588
320.128 6.46206
320.326 7.68961
320.524 9.70683
320.722 13.2111
320.821 15.9518
320.920 19.7962
321.019 25.3708
321.118 33.7699
321.217 47.1115
321.316 69.8236
321.366 87.5508
321.415 112.435
321.465 148.733
321.514 204.122
321.564 293.480
321.613 447.751
321.663 735.015
321.687 969.959
321.712 1296.55
321.756 2123.36
321.800 2721.59
321.844 2233.60
321.888 1430.89
321.918 1045.37
321.947 780.974
321.976 599.174
322.006 472.607
322.065 314.764
322.124 225.383
322.183 170.341
322.241 134.141
322.359 90.9841
322.477 67.1355
322.595 52.5072
322.713 42.8418
322.830 36.0908
323.066 27.4543
323.302 22.2850
323.537 18.9082
323.773 16.5593
324.244 13.5440
324.715 11.7165
325.186 10.4996
325.657 9.63338
326.600 8.47890
327.542 7.73508
329.427 6.79453
331.311 6.16860
333.196 5.65479
334.138 5.40307
335.080 5.13566
335.552 4.99826
335.787 4.93861
336.023 4.90723
336.258 4.97323
336.376 5.11361
336.494 5.44912
336.612 6.29560
336.671 7.19432
336.730 8.84989
336.788 12.2519
336.818 15.4028
336.847 20.5665
336.877 29.7947
336.892 37.2450
336.906 48.0525
336.921 64.3467
336.936 89.9818
336.950 131.960
336.965 201.627
336.983 329.430
337.000 422.837
337.018 349.131
337.035 226.265
337.055 136.955
337.075 89.7237
337.095 63.3675
337.114 47.6930
337.134 37.6201
337.154 30.8482
337.194 22.5431
337.233 17.8153
337.273 14.8684
337.352 11.4945
337.432 9.68316
337.511 8.58407
337.670 7.34282
337.828 6.67063
337.987 6.25088
338.304 5.74775
338.939 5.23139
339.573 4.92480
340.842 4.49126
342.112 4.16378
342.746 4.05562
343.381 4.03489
344.015 4.21119
344.650 4.87606
344.967 5.62180
345.284 6.94317
345.602 9.37986
345.760 11.3591
345.919 14.2060
346.078 18.4371
346.236 24.9828
346.395 35.6918
346.554 54.5438
346.633 69.6839
346.712 91.4972
346.792 124.325
346.871 176.464
346.950 265.232
347.029 430.662
347.069 569.783
347.109 775.767
347.148 1090.00
347.188 1567.63
347.244 2564.21
347.300 3286.08
347.357 2696.43
347.413 1724.52
347.455 1218.83
347.497 885.621
347.539 665.856
347.581 517.225
347.664 337.468
347.748 238.811
347.832 179.137
347.916 140.438
348.083 94.8146
348.250 69.8254
348.418 54.5815
348.585 44.5270
348.753 37.5145
349.088 28.5362
349.423 23.1491
349.757 19.6161
350.092 17.1452
350.762 13.9461
351.432 11.9744
352.102 10.6490
352.269 10.4094
352.437 10.2758
352.520 10.3398
352.562 10.4680
352.604 10.7441
352.646 11.3540
352.667 11.9255
352.688 12.8604
352.709 14.5042
352.730 17.6366
352.740 20.3356
352.751 24.3695
352.761 30.6884
352.772 40.4312
352.786 60.4870
352.800 75.0404
352.814 63.4646
352.829 44.3106
352.843 31.2779
352.858 23.9389
352.873 19.6809
352.887 17.0534
352.917 14.1481
352.946 12.6668
352.975 11.7974
353.005 11.2381
353.064 10.5689
353.181 9.91946
353.299 9.57611
353.534 9.15597
353.769 8.85935
354.709 8.01362
355.649 7.36827
356.589 6.80241
357.529 6.26575
357.999 6.00810
358.469 5.78777
358.704 5.72155
358.939 5.73037
359.174 5.90602
359.409 6.48580
359.526 7.11095
359.644 8.19556
359.761 10.1572
359.879 13.9660
359.937 17.2525
359.996 22.2605
360.055 30.3215
360.084 36.2600
360.114 44.1733
360.143 55.0625
360.172 70.4650
360.202 93.0745
360.231 127.666
360.260 184.051
360.290 282.288
360.305 359.492
360.319 467.314
360.334 619.750
360.349 832.366
360.374 1369.12
360.400 1759.16
360.426 1448.35
360.452 933.579
360.468 691.702
360.485 522.820
360.518 323.170
360.552 218.641
360.585 158.836
360.618 121.530
360.652 96.8843
360.718 67.2040
360.785 50.6518
360.852 40.4247
360.985 28.8498
361.119 22.6974
361.252 18.9817
361.385 16.5342
361.519 14.8189
361.785 12.5922
362.052 11.2227
362.319 10.2980
362.586 9.63096
363.119 8.72530
363.653 8.12889
364.720 7.35998
365.787 6.85107
366.854 6.46046
368.988 5.82893
371.122 5.24753
372.189 4.94272
373.256 4.62190
373.790 4.46240
374.323 4.32044
374.857 4.23713
375.390 4.33203
375.657 4.54635
375.924 5.00826
376.191 5.97185
376.458 8.05673
376.591 9.98024
376.724 13.0603
376.858 18.2701
376.924 22.2673
376.991 27.7808
377.058 35.6418
377.124 47.2624
377.191 65.2758
377.258 94.9768
377.325 148.170
377.358 191.619
377.391 254.939
377.425 351.708
377.458 505.694
377.491 762.623
377.525 1199.01
377.562 1969.76
377.600 2529.93
377.638 2080.68
377.676 1336.87
377.701 972.507
377.727 724.262
377.753 554.984
377.778 437.181
377.830 290.904
377.881 208.541
377.933 157.818
377.984 124.555
378.087 84.8625
378.190 62.9136
378.293 49.4322
378.396 40.5094
378.499 34.2705
378.704 26.2578
378.910 21.4426
379.116 18.2843
379.322 16.0787
379.733 13.2312
380.145 11.4918
380.556 10.3245
380.968 9.48680
381.791 8.35681
382.614 7.61558
384.260 6.64912
385.906 5.96883
386.729 5.66761
387.552 5.37464
388.375 5.09835
388.787 4.99281
389.198 4.97243
389.404 5.04305
389.610 5.23507
389.816 5.67547
390.022 6.67629
390.124 7.62046
390.227 9.15080
390.330 11.7668
390.433 16.5884
390.485 20.6079
390.536 26.5717
390.587 35.8952
390.639 51.3609
390.665 63.1842
390.690 79.4143
390.716 102.479
390.742 136.502
390.767 188.952
390.793 273.986
390.819 418.972
390.845 671.819
390.872 1102.39
390.900 1414.26
390.928 1162.80
390.956 748.155
390.982 485.582
391.008 330.929
391.034 238.097
391.060 179.691
391.113 113.700
391.165 79.7710
391.217 60.0275
391.270 47.5553
391.374 33.1592
391.479 25.4166
391.584 20.7292
391.688 17.6491
391.793 15.5015
392.002 12.7412
392.212 11.0724
392.421 9.96593
392.630 9.18318
393.049 8.15052
393.468 7.49761
394.305 6.70275
395.143 6.21628
395.980 5.87022
397.655 5.37189
401.005 4.66295
404.355 4.06100
407.704 3.46422
411.054 2.85034
412.729 2.56335
413.566 2.44878
414.404 2.38826
415.241 2.46776
415.660 2.63837
416.079 3.02420
416.497 3.94431
416.707 4.89435
416.916 6.63517
417.021 8.09322
417.126 10.2935
417.230 13.8260
417.335 19.9966
417.440 32.2366
417.492 43.4299
417.544 61.8708
417.597 95.4544
417.623 123.493
417.649 165.459
417.675 232.358
417.701 345.530
417.727 553.472
417.754 951.015
417.777 1528.64
417.800 1931.42
417.823 1562.29
417.847 981.797
417.870 597.403
417.894 385.903
417.918 265.296
417.942 192.165
417.966 145.136
417.989 113.343
418.037 74.6048
418.085 52.9205
418.132 39.6159
418.227 24.8487
418.323 17.2791
418.418 12.8908
418.608 8.26265
418.799 5.99966
418.989 4.73147
419.370 3.45292
419.751 2.89146
420.132 2.65216
420.513 2.60342
420.893 2.70048
421.274 2.93707
421.655 3.33189
422.036 3.93156
422.417 4.83177
422.798 6.26495
422.988 7.37332
423.178 9.04243
423.369 11.9952
423.464 14.5863
423.559 18.8861
423.654 27.0356
423.702 34.2378
423.750 45.7636
423.797 65.7655
423.845 104.386
423.869 138.085
423.892 190.044
423.916 273.037
423.940 406.905
423.970 663.959
424.000 853.297
424.030 707.007
424.060 460.594
424.088 305.211
424.116 213.418
424.144 157.881
424.172 122.900
424.228 83.5508
424.284 63.5448
424.340 52.1792
424.396 45.2810
424.509 38.0764
424.621 35.1631
424.733 34.3730
424.957 36.2123
425.406 48.5655
425.854 74.2166
426.078 95.4051
426.303 126.139
426.527 172.395
426.751 245.349
426.975 367.884
427.200 590.484
427.312 772.554
427.424 1035.49
427.536 1422.44
427.648 1990.54
427.824 3293.07
428.000 4252.28
428.177 3513.77
428.353 2269.33
428.473 1661.91
428.592 1244.37
428.712 958.240
428.832 758.218
429.071 508.786
429.310 367.002
429.549 279.288
429.788 221.318
430.267 151.704
430.745 112.832
431.224 88.7567
432.180 61.3741
433.137 46.7098
434.094 37.7918
435.051 31.8808
436.008 27.7125
437.921 22.2722
439.835 18.9037
441.749 16.6182
443.662 14.9616
447.490 12.6906
451.317 11.1391
455.144 9.85268
456.101 9.50629
457.058 9.09927
457.536 8.85611
457.776 8.72753
458.015 8.61377
458.254 8.59165
458.374 8.70223
458.493 9.05695
458.553 9.43747
458.613 10.0964
458.673 11.2857
458.732 13.5877
458.792 18.5718
458.822 23.3773
458.852 31.5834
458.882 46.9379
458.897 60.0158
458.912 79.7009
458.927 111.323
458.942 164.597
458.957 261.810
458.972 443.613
458.986 729.008
459.000 938.149
459.014 775.917
459.029 503.944
459.038 377.124
459.047 288.738
459.065 182.562
459.083 126.133
459.101 93.6582
459.119 73.2241
459.137 59.6971
459.173 43.3006
459.209 34.1075
459.245 28.4040
459.317 21.9191
459.390 18.4541
459.462 16.3524
459.534 14.9629
459.606 13.9851
459.751 12.7113
459.895 11.9232
460.184 10.9997
460.472 10.4673
460.761 10.1116
461.339 9.64254
462.494 9.06978
463.649 8.65738
464.804 8.29351
465.959 7.93470
466.537 7.74666
467.114 7.54999
467.403 7.45774
467.547 7.42454
467.692 7.42064
467.836 7.50431
467.908 7.63513
467.980 7.91803
468.053 8.57694
468.089 9.23808
468.125 10.3981
468.161 12.6340
468.179 14.5853
468.197 17.5919
468.215 22.5544
468.233 31.2487
468.251 47.8269
468.269 81.2110
468.285 129.765
468.300 165.692
468.316 138.291
468.331 91.8513
468.341 69.3476
468.352 53.9207
468.372 35.7902
468.393 26.4003
468.414 21.0307
468.434 17.6824
468.455 15.4754
468.496 12.8149
468.537 11.3195
468.579 10.3909
468.661 9.32437
468.743 8.74195
468.826 8.37903
468.991 7.94765
469.156 7.69198
469.321 7.51421
469.650 7.26232
470.310 6.90460
470.970 6.59878
472.289 5.98215
473.608 5.27942
474.268 4.88465
474.927 4.47138
475.587 4.08522
476.247 3.88615
476.576 4.00272
476.906 4.47207
477.236 5.69459
477.401 6.85351
477.566 8.66479
477.731 11.5479
477.896 16.2823
478.061 24.4309
478.143 30.7346
478.225 39.4529
478.308 51.8722
478.390 70.1219
478.473 98.1609
478.555 143.509
478.638 222.363
478.720 372.308
478.761 500.675
478.803 693.360
478.844 990.901
478.885 1451.75
478.943 2417.46
479.000 3136.07
479.058 2603.12
479.115 1692.07
479.168 1120.48
479.221 776.927
479.274 566.400
479.327 431.768
479.433 277.592
479.539 196.679
479.645 148.990
479.750 118.426
479.962 82.6547
480.174 63.0626
480.386 51.0186
480.598 42.9999
480.809 37.3406
481.233 29.9757
481.657 25.4546
482.080 22.4269
482.504 20.2696
483.351 17.4141
484.198 15.6146
485.045 14.3761
485.893 13.4689
487.587 12.2176
489.281 11.3773
490.128 11.0435
490.976 10.7447
491.399 10.6053
491.611 10.5397
491.823 10.4819
492.035 10.4480
492.141 10.4574
492.246 10.5147
492.352 10.6990
492.405 10.9108
492.458 11.3138
492.511 12.1652
492.538 12.9649
492.564 14.2890
492.591 16.6855
492.617 21.5010
492.630 25.9050
492.644 32.8964
492.657 44.5690
492.670 64.3978
492.685 99.7723
492.700 125.531
492.715 105.235
492.730 71.4992
492.747 47.3866
492.763 34.3357
492.780 26.9938
492.796 22.5849
492.813 19.7265
492.830 17.7857
492.863 15.4008
492.896 14.0341
492.929 13.1781
492.995 12.1915
493.062 11.6549
493.128 11.3243
493.260 10.9416
493.393 10.7248
493.525 10.5822
493.790 10.3963
494.056 10.2705
494.321 10.1723
494.851 10.0150
495.381 9.88289
495.911 9.76454
496.176 9.71348
496.309 9.69472
496.441 9.68892
496.574 9.71954
496.640 9.77082
496.706 9.88244
496.773 10.1422
496.806 10.4012
496.839 10.8534
496.872 11.7230
496.889 12.4767
496.905 13.6323
496.922 15.5306
496.938 18.8322
496.955 25.1238
496.971 37.6002
496.986 55.8648
497.000 69.2847
497.014 58.8409
497.029 41.3096
497.041 31.4093
497.052 25.1514
497.064 21.1325
497.075 18.4634
497.099 15.3057
497.122 13.5991
497.145 12.5766
497.168 11.9149
497.215 11.1343
497.261 10.7031
497.307 10.4372
497.400 10.1316
497.493 9.96255
497.586 9.85486
497.772 9.72149
498.143 9.57514
498.514 9.48145
499.257 9.34221
500.000 9.22761
502.741 8.87666
505.483 8.56775
506.853 8.41206
507.539 8.32947
508.224 8.24049
508.909 8.14172
509.252 8.08832
509.594 8.03523
509.937 7.99722
510.108 8.00183
510.280 8.05699
510.365 8.12794
510.451 8.25955
510.537 8.50870
510.622 9.00822
510.708 10.1272
510.751 11.2316
510.794 13.1579
510.837 16.8783
510.858 20.1171
510.879 25.1575
510.901 33.4921
510.922 48.3596
510.944 77.3349
510.954 101.983
510.965 137.542
510.983 221.757
511.000 283.600
511.018 235.261
511.035 154.188
511.046 116.254
511.058 89.9055
511.080 58.4811
511.102 41.9204
511.125 32.4272
511.147 26.4819
511.170 22.5526
511.215 17.8061
511.260 15.1523
511.304 13.5086
511.394 11.6415
511.484 10.6433
511.574 10.0363
511.664 9.63370
511.753 9.35055
511.933 8.99574
512.023 8.89995
512.113 8.87565
512.202 8.99953
512.247 9.19131
512.292 9.58733
512.337 10.4539
512.360 11.2778
512.382 12.6401
512.405 15.0861
512.427 19.8971
512.438 24.1466
512.449 30.7464
512.461 41.3567
512.472 58.5768
512.479 74.0079
512.486 92.1438
512.500 117.210
512.514 98.8676
512.528 67.2850
512.538 51.1486
512.548 40.1850
512.558 32.7600
512.568 27.6176
512.588 21.2631
512.608 17.6918
512.628 15.4760
512.648 14.0187
512.688 12.2579
512.728 11.2651
512.768 10.6452
512.848 9.92606
512.928 9.52750
513.007 9.27600
513.167 8.97405
513.327 8.79542
513.486 8.67426
513.806 8.51370
514.125 8.40627
514.444 8.32533
515.083 8.20401
516.360 8.03229
517.637 7.89838
520.192 7.66864
522.746 7.44986
525.301 7.21425
526.578 7.07873
527.855 6.91922
529.132 6.71495
529.771 6.58271
530.410 6.41618
530.729 6.31437
531.048 6.19624
531.368 6.05946
531.687 5.90823
531.847 5.83585
532.006 5.78218
532.166 5.78418
532.325 5.94452
532.405 6.16744
532.485 6.59508
532.565 7.42645
532.645 9.13086
532.725 13.0096
532.765 16.8621
532.785 19.7369
532.804 23.5867
532.824 28.9246
532.844 36.4708
532.864 47.6433
532.884 64.7573
532.894 76.9480
532.904 92.7297
532.914 113.518
532.924 141.090
532.934 179.120
532.944 232.042
532.954 306.514
532.964 409.490
532.982 677.930
533.000 879.119
533.009 843.530
533.018 731.447
533.036 476.614
533.053 317.290
533.069 221.670
533.085 162.715
533.102 125.136
533.135 81.9699
533.168 59.3700
533.200 46.0081
533.233 37.4534
533.299 27.4671
533.365 21.9986
533.431 18.6480
533.496 16.4173
533.562 14.8477
533.694 12.8070
533.825 11.5570
533.957 10.7213
534.088 10.1268
534.351 9.33986
534.614 8.84392
534.877 8.50175
535.140 8.25033
535.666 7.90121
536.192 7.66499
537.243 7.35046
538.295 7.13418
539.347 6.96337
541.451 6.68567
543.554 6.46318
544.606 6.38932
545.658 6.38742
546.184 6.44805
546.710 6.59563
547.236 6.91380
547.761 7.60321
548.024 8.23424
548.287 9.23620
548.550 10.9170
548.813 13.9624
549.076 20.1654
549.208 25.8974
549.339 35.3684
549.471 52.4791
549.536 66.5925
549.602 87.4383
549.668 119.802
549.734 172.690
549.799 264.215
549.865 427.282
549.933 694.030
550.000 891.467
550.068 735.149
550.135 470.697
550.197 307.108
550.259 209.906
550.321 151.259
550.383 114.162
550.507 72.4272
550.631 50.9882
550.755 38.5913
550.879 30.7822
551.127 21.8411
551.375 17.0696
551.623 14.1987
551.871 12.3187
552.119 11.0077
552.615 9.31387
553.111 8.26957
554.103 7.03398
555.094 6.36902
555.590 6.25255
556.086 6.44805
556.582 7.47144
556.830 8.78753
557.078 11.4390
557.326 17.3050
557.450 22.9939
557.574 32.6840
557.698 50.6836
557.760 65.7851
557.822 88.3844
557.884 123.786
557.946 182.254
558.008 284.180
558.070 466.221
558.135 772.751
558.200 1002.12
558.265 833.438
558.330 542.854
558.403 331.603
558.476 217.662
558.549 153.692
558.622 115.105
558.695 90.2491
558.767 73.3439
558.913 52.4766
559.059 40.5032
559.205 32.9555
559.496 24.2316
559.788 19.4798
560.079 16.5517
560.662 13.1790
561.245 11.2981
561.828 10.0815
562.995 8.51948
564.161 7.41810
564.744 6.91484
565.327 6.39933
565.910 5.84616
566.201 5.55881
566.493 5.29602
566.639 5.20443
566.785 5.18585
566.930 5.33294
567.076 5.88247
567.149 6.49025
567.222 7.55074
567.295 9.46632
567.331 10.9911
567.368 13.1466
567.404 16.2905
567.422 18.4006
567.440 21.0158
567.459 24.3167
567.477 28.4947
567.495 33.8941
567.513 41.0017
567.532 50.6229
567.550 63.8357
567.568 82.6207
567.586 110.293
567.604 152.792
567.623 221.199
567.641 336.491
567.659 534.520
567.680 885.612
567.700 1148.29
567.721 954.161
567.741 620.041
567.758 427.054
567.775 305.515
567.792 227.939
567.809 176.646
567.843 116.197
567.876 83.6187
567.910 64.1226
567.944 51.5133
568.012 36.6547
568.079 28.4774
568.147 23.4638
568.282 17.8135
568.417 14.8526
568.553 13.1577
568.823 11.7971
569.094 12.7700
569.229 14.7364
569.364 18.8561
569.499 27.8096
569.567 36.1872
569.635 49.9080
569.702 73.9794
569.770 120.022
569.804 159.441
569.837 218.804
569.871 310.532
569.905 452.642
569.953 753.276
570.000 978.765
570.048 816.338
570.095 535.374
570.130 388.224
570.164 289.558
570.199 223.110
570.234 177.512
570.303 121.395
570.372 89.8787
570.442 70.4825
570.511 57.6784
570.649 42.2713
570.788 33.5944
570.926 28.1651
571.204 21.8784
571.481 18.4204
571.758 16.2584
572.312 13.7185
572.866 12.2729
573.420 11.3323
574.529 10.1602
575.637 9.43496
576.746 8.92180
578.962 8.19365
581.179 7.63166
582.288 7.36501
583.396 7.08602
584.504 6.77504
585.059 6.60264
585.613 6.42554
585.890 6.34558
586.167 6.28938
586.444 6.29579
586.721 6.46962
586.860 6.70260
586.998 7.14102
587.137 7.97886
587.275 9.66416
587.414 13.4156
587.483 17.0785
587.552 23.3531
587.622 35.1117
587.656 45.0693
587.691 60.0293
587.726 83.7376
587.760 123.223
587.795 193.041
587.830 320.255
587.865 530.461
587.900 687.916
587.935 573.090
587.971 374.810
588.000 260.246
588.029 187.466
588.058 140.963
588.087 110.272
588.145 73.9532
588.203 54.3285
588.261 42.5400
588.319 34.9138
588.436 25.8973
588.552 20.9128
588.668 17.8364
588.784 15.7810
588.900 14.3263
589.133 12.4255
589.365 11.2520
589.598 10.4603
589.830 9.89110
590.295 9.12407
590.760 8.62519
591.690 7.99285
592.620 7.58141
593.550 7.26769
595.410 6.75872
597.269 6.29218
598.199 6.06190
599.129 5.85670
599.594 5.78927
600.059 5.78514
600.524 5.92404
600.989 6.40934
601.221 6.93692
601.454 7.84934
601.686 9.48252
601.919 12.5888
602.151 19.1158
602.267 25.1972
602.384 35.2038
602.500 52.9427
602.558 67.1659
602.616 87.5821
602.674 117.893
602.732 164.545
602.790 238.675
602.849 357.328
602.924 593.833
603.000 771.613
603.076 643.398
603.152 420.904
603.231 265.808
603.311 178.876
603.391 128.506
603.471 97.5128
603.550 77.2175
603.630 63.2755
603.790 45.8446
603.949 35.7351
604.109 29.3092
604.427 21.8143
604.746 17.6847
605.065 15.1052
605.384 13.3405
605.703 12.0426
606.341 10.1762
606.660 9.42303
606.979 8.71104
607.298 8.01030
607.458 7.68280
607.617 7.44277
607.777 7.53877
607.856 7.97235
607.936 9.10590
608.016 12.0251
608.056 15.0669
608.096 20.4394
608.136 30.7247
608.155 39.4517
608.175 52.5727
608.195 73.2548
608.215 107.068
608.235 165.159
608.255 266.830
608.278 451.444
608.300 594.323
608.323 502.569
608.345 335.816
608.363 240.874
608.381 178.975
608.399 138.066
608.416 110.507
608.452 76.9965
608.488 58.3560
608.524 46.9134
608.559 39.3510
608.631 30.2014
608.702 25.0035
608.773 21.7142
608.916 17.8519
609.059 15.6826
609.202 14.3013
609.487 12.6400
609.773 11.6650
610.058 11.0135
610.629 10.1753
611.200 9.63979
611.771 9.25550
612.914 8.71935
615.198 8.05951
617.482 7.62709
622.050 7.01019
626.619 6.49977
631.187 5.96927
633.472 5.65925
635.756 5.28800
638.040 4.81510
639.182 4.52504
640.324 4.20207
640.895 4.04260
641.466 3.91342
642.037 3.88122
642.608 4.13443
642.894 4.52275
643.179 5.29248
643.465 6.82311
643.608 8.11838
643.750 10.0237
643.893 12.9118
644.036 17.4580
644.179 24.9935
644.322 38.3939
644.393 49.2006
644.464 64.8157
644.536 88.3161
644.607 125.478
644.678 188.397
644.750 304.144
644.786 399.918
644.821 540.010
644.857 749.295
644.893 1060.90
644.946 1756.66
645.000 2278.48
645.054 1892.03
645.108 1224.63
645.164 762.935
645.220 505.431
645.277 357.074
645.333 266.080
645.389 206.753
645.446 166.213
645.558 115.881
645.671 86.9249
645.783 68.7033
646.009 47.7217
646.234 36.4155
646.459 29.5406
646.685 24.9991
646.910 21.8128
647.361 17.6913
647.811 15.1756
648.262 13.4961
648.712 12.3009
649.614 10.7172
650.515 9.71332
651.416 9.01496
652.317 8.49564
654.119 7.75821
655.922 7.23825
659.526 6.48508
663.131 5.87164
666.736 5.23889
668.538 4.85659
669.439 4.62899
670.341 4.36326
671.242 4.05003
671.692 3.88314
672.143 3.74303
672.368 3.71394
672.594 3.75866
672.819 3.96982
673.044 4.58549
673.157 5.22872
673.269 6.32869
673.382 8.29925
673.438 9.86609
673.495 12.0846
673.551 15.3287
673.607 20.2396
673.664 28.0622
673.720 41.3690
673.748 51.7163
673.776 66.1437
673.805 87.1076
673.833 118.625
673.861 168.805
673.889 252.962
673.917 404.415
673.945 684.823
673.973 1129.97
674.000 1462.29
674.028 1211.21
674.055 782.859
674.084 484.195
674.113 319.442
674.142 225.134
674.171 167.556
674.201 130.196
674.230 104.680
674.288 73.0895
674.346 54.9584
674.404 43.5850
674.521 30.5218
674.637 23.4921
674.754 19.2276
674.870 16.4126
674.986 14.4381
675.219 11.8821
675.452 10.3198
675.685 9.27289
675.918 8.52454
676.384 7.52288
676.849 6.87663
677.781 6.06560
678.712 5.54474
679.644 5.15311
681.507 4.53413
683.369 3.98979
685.232 3.44355
686.164 3.15970
686.630 3.01899
687.095 2.89176
687.561 2.82391
687.794 2.86427
688.027 3.05302
688.260 3.66538
688.376 4.39510
688.434 4.99023
688.492 5.84819
688.551 7.12764
688.580 8.00451
688.609 9.10895
688.638 10.5200
688.667 12.3531
688.696 14.7814
688.725 18.0734
688.754 22.6623
688.783 29.2795
688.813 39.2315
688.842 55.0151
688.871 81.8171
688.885 102.667
688.900 131.539
688.914 173.260
688.929 234.473
688.944 327.743
688.958 468.109
688.979 769.011
689.000 991.156
689.021 818.465
689.042 526.949
689.060 354.615
689.078 248.215
689.096 181.881
689.114 138.838
689.151 89.1207
689.187 62.8907
689.223 47.4400
689.259 37.5741
689.332 26.1325
689.404 19.9467
689.476 16.2138
689.621 12.0912
689.766 9.98440
689.910 8.78611
690.200 7.64805
690.489 7.34944
690.779 7.56347
691.358 9.45625
691.647 11.4422
691.936 14.6254
692.226 19.8452
692.515 28.8202
692.805 45.4641
692.950 59.3266
693.094 79.8796
693.239 111.628
693.384 163.000
693.528 249.979
693.673 399.962
693.837 667.892
694.000 870.387
694.164 726.603
694.328 475.149
694.473 321.739
694.618 227.192
694.763 168.207
694.907 129.834
695.197 85.2466
695.487 61.4627
695.776 47.2697
696.066 38.0847
696.645 27.1965
697.224 21.1411
697.514 19.0754
697.804 17.4661
698.093 16.3310
698.238 16.0363
698.383 16.1145
698.528 17.0668
698.600 18.3236
698.672 20.8062
698.745 26.1189
698.781 31.1336
698.817 39.5074
698.853 54.7172
698.890 85.8550
698.908 114.611
698.926 161.512
698.944 242.200
698.962 384.617
698.981 620.950
699.000 792.609
699.019 652.608
699.038 421.346
699.059 258.137
699.080 170.317
699.101 121.188
699.122 91.8087
699.142 72.8813
699.163 60.0857
699.205 44.4429
699.247 35.5456
699.289 29.9999
699.372 23.6375
699.456 20.1969
699.539 18.0745
699.706 15.6009
699.873 14.1775
700.040 13.2232
700.374 11.9582
700.708 11.0983
701.042 10.4404
701.710 9.44661
703.045 8.09619
704.381 7.17259
707.053 5.99980
709.724 5.56951
711.060 5.78021
712.396 6.54462
713.731 8.38269
714.399 10.0417
715.067 12.5506
715.735 16.4188
716.403 22.5689
717.071 32.7965
717.739 50.9242
718.073 65.4217
718.406 86.1594
718.740 116.935
719.074 164.670
719.408 242.993
719.742 380.503
720.076 641.277
720.243 857.156
720.410 1161.62
720.705 1939.48
721.000 2529.42
721.295 2111.09
721.590 1376.41
721.827 960.723
722.064 692.973
722.300 519.766
722.537 404.124
723.011 266.343
723.484 191.268
723.958 145.979
724.431 116.502
725.378 81.5091
726.325 62.0882
727.272 50.0459
728.219 41.9715
729.166 36.2372
731.060 28.7001
732.954 23.9914
734.847 20.7564
736.741 18.3620
740.529 14.8746
742.423 13.4290
744.317 11.9972
746.211 10.4034
747.158 9.45791
748.105 8.33694
749.052 6.97256
749.525 6.21176
749.999 5.51448
750.235 5.30332
750.472 5.35707
750.709 6.01843
750.827 6.80681
750.946 8.14876
751.064 10.4103
751.182 14.2621
751.242 17.1559
751.301 21.0315
751.360 26.2986
751.419 33.5735
751.478 43.8849
751.538 58.8902
751.597 81.4910
751.656 116.950
751.715 175.838
751.774 280.122
751.804 362.804
751.833 478.775
751.863 643.215
751.893 874.068
751.946 1485.78
752.000 1954.18
752.054 1643.99
752.108 1089.13
752.168 678.120
752.228 452.955
752.289 324.730
752.349 246.491
752.409 195.404
752.470 160.287
752.591 116.349
752.711 90.6931
752.832 74.2842
753.073 54.9533
753.315 44.1909
753.556 37.4444
753.798 32.8570
754.039 29.5490
754.522 25.1007
755.005 22.2406
755.971 18.7356
756.937 16.6924
757.420 16.0794
757.903 15.8916
758.386 16.6896
758.627 17.9977
758.869 20.7668
759.110 26.9331
759.231 32.8153
759.352 42.5873
759.472 59.9774
759.593 93.8319
759.654 123.260
759.714 168.038
759.774 238.325
759.835 348.736
759.917 579.544
760.000 755.211
760.083 634.752
760.166 421.644
760.258 264.928
760.351 179.554
760.444 131.083
760.537 101.612
760.629 82.4465
760.722 69.3223
760.908 52.9297
761.093 43.3954
761.279 37.3011
761.650 30.1189
762.021 26.1033
762.392 23.5641
763.134 20.5402
763.876 18.7861
764.618 17.6223
766.101 16.1326
767.585 15.1820
769.069 14.4978
772.037 13.5372
777.973 12.3411
783.909 11.5495
789.845 10.9291
795.781 10.3578
798.749 10.0391
800.233 9.85016
801.717 9.61995
803.201 9.30986
803.943 9.09918
804.685 8.82253
805.056 8.64689
805.427 8.43618
805.798 8.18063
806.169 7.87407
806.354 7.70694
806.540 7.54708
806.725 7.43757
806.911 7.50696
807.003 7.71693
807.096 8.18937
807.189 9.19297
807.282 11.3598
807.374 16.4434
807.421 21.5536
807.467 30.4572
807.490 37.4887
807.514 47.4196
807.537 61.9059
807.560 83.7611
807.583 118.620
807.606 177.158
807.629 281.247
807.653 470.834
807.676 789.714
807.700 1034.25
807.724 869.055
807.748 573.218
807.769 386.145
807.791 272.660
807.813 202.253
807.834 157.006
807.877 104.649
807.921 76.8911
807.964 60.3934
808.007 49.7429
808.094 37.1763
808.180 30.2075
808.267 25.8876
808.354 22.9841
808.440 20.9224
808.613 18.2131
808.786 16.5323
808.959 15.3968
809.132 14.5819
809.479 13.4943
809.825 12.8029
810.171 12.3242
810.517 11.9720
811.210 11.4851
811.902 11.1600
813.287 10.7410
814.672 10.4696
816.057 10.2694
818.826 9.97293
824.366 9.54484
829.905 9.18361
835.444 8.81896
840.984 8.39431
843.754 8.12861
846.523 7.78434
847.908 7.55303
848.601 7.40933
849.293 7.23504
849.985 7.01315
850.332 6.87675
850.678 6.72160
850.851 6.64059
851.024 6.56594
851.197 6.51880
851.370 6.56056
851.457 6.66588
851.543 6.89603
851.630 7.37780
851.716 8.41128
851.803 10.8412
851.846 13.3040
851.889 17.6479
851.933 26.1048
851.954 33.5221
851.976 45.0021
851.998 63.9907
852.009 78.1799
852.019 97.3672
852.030 123.850
852.041 161.113
852.052 214.234
852.063 289.624
852.081 479.827
852.100 623.204
852.119 520.379
852.138 341.073
852.158 213.646
852.178 143.428
852.198 103.172
852.218 78.5377
852.238 62.5090
852.258 51.5277
852.298 37.8697
852.339 29.9740
852.379 24.9932
852.459 19.2208
852.540 16.0756
852.620 14.1467
852.701 12.8596
852.781 11.9475
852.942 10.7497
853.103 10.0034
853.264 9.49339
853.424 9.12164
853.746 8.60893
854.068 8.26305
854.711 7.79687
855.355 7.46284
855.998 7.18146
857.285 6.65666
858.572 6.08655
859.215 5.76205
859.859 5.41248
860.502 5.09187
860.824 5.01990
861.146 5.16701
861.307 5.43836
861.467 5.99415
861.628 7.11203
861.789 9.44577
861.870 11.5421
861.950 14.8161
862.030 20.1927
862.111 29.6399
862.151 37.1848
862.191 47.9450
862.232 63.9141
862.272 88.7516
862.312 129.720
862.352 202.420
862.372 260.505
862.392 342.794
862.412 461.114
862.433 630.670
862.466 1045.22
862.500 1358.83
862.534 1131.87
862.568 734.868
862.604 451.918
862.641 297.260
862.678 209.245
862.714 155.963
862.751 121.418
862.787 97.9398
862.861 68.8663
862.934 52.2035
863.007 41.7149
863.154 29.6310
863.300 23.0785
863.447 19.0621
863.740 14.4636
864.033 11.9187
864.326 10.2844
864.913 8.22057
865.499 6.87339
865.792 6.35953
866.085 5.98070
866.378 5.89478
866.525 6.12195
866.671 6.79627
866.818 8.57562
866.891 10.4549
866.964 13.8618
867.038 20.7396
867.074 27.0174
867.111 37.2088
867.148 55.2385
867.166 69.7192
867.184 90.6593
867.203 122.166
867.221 171.712
867.239 252.990
867.258 388.449
867.279 631.217
867.300 806.890
867.321 661.613
867.343 422.634
867.358 301.512
867.373 220.649
867.388 166.764
867.403 130.185
867.434 85.5661
867.464 60.9243
867.494 46.0185
867.524 36.3484
867.585 24.9923
867.646 18.8225
867.706 15.1162
867.828 11.1204
867.949 9.26951
868.070 8.52762
868.191 8.59093
868.313 9.47470
868.434 11.4445
868.555 15.1046
868.676 21.7258
868.737 26.8972
868.798 34.0413
868.858 44.1271
868.919 58.6826
868.979 80.3989
869.040 114.114
869.101 169.215
869.161 264.449
869.222 440.108
869.283 776.106
869.341 1320.76
869.400 1740.63
869.459 1467.48
869.518 973.392
869.565 687.498
869.613 502.188
869.661 381.641
869.708 300.621
869.804 203.255
869.899 149.588
869.994 116.794
870.090 95.2343
870.280 69.2548
870.471 54.5761
870.662 45.3324
870.853 39.0545
871.043 34.5481
871.425 28.5599
871.806 24.7947
872.188 22.2216
872.569 20.3562
873.332 17.8351
874.095 16.2081
874.858 15.0665
875.620 14.2168
877.146 13.0226
878.672 12.2048
881.723 11.0899
884.774 10.2443
886.300 9.82616
887.826 9.35468
889.352 8.75294
890.114 8.35806
890.877 7.85629
891.259 7.54966
891.640 7.19794
892.022 6.80356
892.403 6.40598
892.594 6.25379
892.784 6.21034
892.975 6.43589
893.166 7.34739
893.261 8.38151
893.356 10.2034
893.452 13.5125
893.500 16.1473
893.547 19.8487
893.595 25.1989
893.643 33.1594
893.690 45.4740
893.738 65.4464
893.786 100.150
893.809 127.448
893.833 165.622
893.857 220.930
893.881 302.565
893.905 426.099
893.929 613.094
893.964 1035.52
894.000 1361.75
894.036 1147.06
894.072 758.258
894.094 573.436
894.117 442.574
894.163 283.624
894.209 198.527
894.254 148.739
894.300 117.131
894.346 95.8492
894.437 69.7655
894.528 54.8252
894.620 45.3949
894.802 34.4198
894.985 28.3825
895.168 24.6347
895.350 22.1058
895.533 20.2976
895.898 17.8973
896.264 16.3859
896.629 15.3496
896.994 14.5951
897.725 13.5683
898.455 12.8988
899.186 12.4240
899.917 12.0670
901.378 11.5587
902.839 11.2066
905.762 10.7321
908.684 10.4090
911.607 10.1610
917.452 9.77026
923.297 9.42264
926.220 9.23482
929.142 9.01271
932.065 8.71462
933.526 8.50878
934.987 8.23118
935.718 8.04925
936.449 7.82344
937.179 7.53465
937.910 7.15386
938.275 6.91691
938.641 6.64376
939.006 6.33934
939.371 6.04419
939.554 5.94593
939.737 5.95322
939.919 6.21399
940.102 7.10943
940.193 8.08817
940.285 9.78627
940.376 12.8342
940.422 15.2498
940.467 18.6330
940.513 23.5122
940.559 30.7593
940.604 41.9585
940.650 60.1147
940.696 91.6892
940.718 116.437
940.741 151.221
940.764 201.739
940.787 276.525
940.810 390.160
940.833 563.008
940.866 948.499
940.900 1246.29
940.934 1049.20
940.968 692.371
941.003 441.871
941.038 299.694
941.073 216.696
941.109 165.194
941.144 131.312
941.179 107.887
941.250 78.4726
941.320 61.2621
941.391 50.2653
941.532 37.3855
941.673 30.2805
941.814 25.8785
941.956 22.9207
942.097 20.8146
942.379 18.0403
942.661 16.3124
942.944 15.1411
943.226 14.2984
943.790 13.1700
944.355 12.4512
944.919 11.9535
945.484 11.5880
946.613 11.0855
947.742 10.7540
948.871 10.5167
950.000 10.3369
951.563 10.1473
953.125 10.0017
956.250 9.78779
959.375 9.63263
962.500 9.51064
968.750 9.32195
975.000 9.17379
987.500 8.93424
1000.00 8.72666
1014.74 8.48597
1029.48 8.20839
1036.85 8.02814
1040.54 7.91511
1044.22 7.77445
1047.91 7.58479
1049.75 7.45765
1051.59 7.29341
1053.43 7.06645
1054.35 6.91416
1055.28 6.72006
1056.20 6.46124
1056.66 6.29634
1057.12 6.10094
1057.58 5.87707
1057.81 5.76969
1058.04 5.70435
1058.16 5.71893
1058.27 5.80869
1058.39 6.05590
1058.50 6.66246
1058.62 8.21015
1058.67 9.87228
1058.73 12.8625
1058.76 15.3611
1058.79 19.0362
1058.82 24.6774
1058.85 33.4217
1058.87 49.0214
1058.89 61.8300
1058.90 78.7354
1058.92 105.192
1058.93 142.324
1058.95 198.780
1058.96 284.674
1058.98 466.445
1059.00 602.729
1059.01 574.299
1059.02 496.289
1059.04 324.372
1059.06 197.490
1059.09 129.705
1059.11 91.8835
1059.13 69.9498
1059.16 55.0937
1059.18 45.4003
1059.22 33.0657
1059.27 25.8516
1059.31 21.4140
1059.40 16.2642
1059.49 13.4237
1059.58 11.6872
1059.77 9.65798
1059.95 8.50658
1060.13 7.74544
1060.49 6.76318
1060.67 6.44196
1060.85 6.24977
1061.03 6.28743
1061.21 6.84856
1061.39 8.84802
1061.49 11.2511
1061.53 13.1627
1061.58 15.8654
1061.62 19.8847
1061.67 25.7843
1061.71 34.9588
1061.76 49.9786
1061.80 76.2799
1061.82 97.6532
1061.85 126.596
1061.87 170.748
1061.89 234.149
1061.91 336.261
1061.94 486.748
1061.97 815.178
1062.00 1069.42
1062.03 894.891
1062.07 591.365
1062.09 416.752
1062.12 307.307
1062.14 232.808
1062.17 184.513
1062.22 124.950
1062.27 92.5821
1062.32 72.3838
1062.37 59.1471
1062.47 43.4176
1062.57 34.4982
1062.67 28.9755
1062.78 25.2428
1062.88 22.5767
1063.08 19.0461
1063.28 16.8505
1063.49 15.3650
1063.69 14.3023
1064.09 12.8749
1064.50 11.9695
1064.90 11.3429
1065.31 10.8831
1066.12 10.2509
1066.93 9.83467
1067.74 9.53760
1068.55 9.31338
1070.17 8.99210
1071.79 8.76816
1075.04 8.46164
1078.28 8.24546
1081.52 8.07052
1088.01 7.76770
1094.50 7.46637
1100.98 7.10914
1104.22 6.87955
1105.85 6.73939
1107.47 6.57036
1109.09 6.35147
1109.90 6.21009
1110.71 6.03353
1111.12 5.92610
1111.52 5.80242
1111.93 5.65995
1112.33 5.50275
1112.53 5.42693
1112.74 5.36930
1112.94 5.36634
1113.14 5.51774
1113.24 5.73456
1113.35 6.14918
1113.45 6.95499
1113.55 8.60243
1113.60 10.0795
1113.65 12.3787
1113.70 16.1361
1113.75 22.5247
1113.78 27.7652
1113.80 34.9096
1113.83 45.3237
1113.85 61.1405
1113.88 87.6934
1113.90 131.455
1113.93 210.703
1113.94 276.546
1113.95 359.466
1113.98 593.211
1114.00 771.042
1114.01 737.440
1114.03 638.857
1114.05 418.451
1114.08 261.841
1114.10 175.002
1114.13 125.200
1114.15 94.7106
1114.18 74.8655
1114.21 61.2658
1114.26 44.3465
1114.31 34.5820
1114.36 28.4035
1114.47 21.2457
1114.57 17.3525
1114.67 14.9643
1114.78 13.3735
1114.88 12.2578
1115.09 10.7836
1115.30 9.87156
1115.50 9.25487
1115.71 8.81235
1116.13 8.21227
1116.54 7.82303
1117.37 7.33256
1118.20 7.01833
1119.03 6.78459
1120.70 6.42390
1124.02 5.82741
1127.34 5.21341
1129.00 4.87554
1130.66 4.52183
1132.32 4.18595
1133.99 3.99065
1134.82 4.05787
1135.65 4.39453
1136.48 5.30322
1136.89 6.16892
1137.31 7.52010
1137.72 9.66660
1138.14 13.1538
1138.55 19.0725
1138.97 29.7525
1139.18 38.4114
1139.39 50.9003
1139.59 69.5693
1139.80 98.5671
1140.01 146.629
1140.22 231.027
1140.42 392.633
1140.53 527.028
1140.63 715.409
1140.82 1210.52
1141.00 1600.38
1141.19 1346.62
1141.37 882.475
1141.52 616.614
1141.67 445.810
1141.82 335.609
1141.97 262.481
1142.27 174.897
1142.57 127.022
1142.87 97.9519
1143.17 79.0269
1143.76 56.4132
1144.36 43.7245
1144.96 35.7834
1145.56 30.3765
1146.16 26.4690
1147.36 21.0800
1147.95 19.0370
1148.55 17.1775
1149.15 15.3056
1149.45 14.2888
1149.75 13.1601
1150.05 11.8919
1150.20 11.2527
1150.35 10.7685
1150.50 10.9606
1150.57 11.8561
1150.65 14.1515
1150.69 16.4398
1150.72 20.0233
1150.74 22.6706
1150.76 26.1168
1150.78 30.6563
1150.80 36.3542
1150.82 44.4565
1150.84 55.6677
1150.85 71.5363
1150.87 93.1376
1150.89 126.857
1150.91 175.345
1150.93 254.929
1150.95 371.935
1150.97 639.552
1151.00 855.386
1151.01 832.445
1151.03 730.394
1151.06 497.570
1151.08 345.598
1151.10 254.253
1151.13 193.933
1151.15 155.729
1151.20 109.336
1151.25 84.3557
1151.30 68.7290
1151.35 58.5951
1151.44 46.0994
1151.54 38.8557
1151.64 34.2658
1151.83 28.7642
1152.03 25.5791
1152.22 23.5116
1152.61 20.9351
1153.00 19.3587
1153.39 18.2648
1154.17 16.7903
1154.95 15.7965
1155.72 15.0533
1157.28 13.9733
1160.39 12.5865
1163.50 11.6598
1166.61 10.9227
1168.17 10.5726
1169.72 10.2007
1171.28 9.75713
1172.06 9.47722
1172.84 9.12363
1173.22 8.90292
1173.61 8.63925
1174.00 8.31738
1174.39 7.91982
1174.59 7.69004
1174.78 7.44962
1174.98 7.22656
1175.17 7.12443
1175.27 7.20930
1175.36 7.50925
1175.46 8.25726
1175.56 10.0106
1175.61 11.6851
1175.66 14.3070
1175.70 18.7588
1175.73 22.0276
1175.75 26.4144
1175.78 32.7175
1175.80 41.2687
1175.83 53.6290
1175.85 72.1222
1175.87 102.463
1175.90 150.513
1175.92 232.722
1175.95 375.950
1175.97 633.549
1176.00 835.943
1176.01 808.521
1176.03 703.853
1176.06 469.988
1176.08 324.479
1176.10 236.627
1176.13 178.282
1176.15 141.358
1176.20 96.5745
1176.24 72.2496
1176.29 57.5426
1176.34 47.9239
1176.43 36.4936
1176.52 29.9811
1176.62 25.9313
1176.71 23.1540
1176.80 21.1837
1176.99 18.5532
1177.18 16.9015
1177.37 15.7743
1177.55 14.9583
1177.93 13.8547
1178.30 13.1455
1178.68 12.6480
1179.05 12.2777
1179.80 11.7569
1180.55 11.4024
1182.04 10.9333
1183.54 10.6206
1185.04 10.3858
1188.03 10.0338
1194.01 9.53134
1200.00 9.12670
1210.18 8.44098
1215.27 8.04042
1220.35 7.54167
1222.90 7.23004
1225.44 6.85466
1227.99 6.38866
1230.53 5.79458
1231.80 5.43671
1233.08 5.03834
1234.35 4.62065
1235.62 4.27781
1236.26 4.22725
1236.89 4.39467
1237.53 5.04753
1237.85 5.73365
1238.16 6.85132
1238.48 8.67832
1238.80 11.7246
1239.12 16.9930
1239.44 26.6385
1239.60 34.4989
1239.75 45.8736
1239.91 62.9088
1240.07 89.5302
1240.23 133.387
1240.39 210.434
1240.55 355.778
1240.63 476.046
1240.71 642.567
1240.85 1089.72
1241.00 1441.10
1241.15 1218.12
1241.29 807.281
1241.41 575.008
1241.52 422.528
1241.64 322.333
1241.75 254.995
1241.98 172.719
1242.21 127.277
1242.44 99.3450
1242.67 81.0306
1243.13 58.9656
1243.59 46.4947
1244.05 38.6687
1244.51 33.3741
1244.96 29.5958
1245.88 24.5930
1246.80 21.4744
1247.72 19.3589
1248.63 17.8361
1250.47 15.7967
1252.30 14.4971
1254.14 13.5948
1255.97 12.9301
1259.64 12.0079
1263.31 11.3881
1266.98 10.9318
1270.65 10.5719
1277.99 10.0071
1285.32 9.52624
1292.66 9.01660
1296.33 8.70181
1300.00 8.29135
1301.61 8.05835
1303.22 7.77302
1304.82 7.40987
1306.43 6.92655
1307.23 6.61894
1308.04 6.25227
1308.84 5.81579
1309.64 5.31710
1310.05 5.06740
1310.45 4.86506
1310.85 4.81808
1311.25 5.22264
1311.45 5.83218
1311.65 7.02110
1311.85 9.33101
1311.96 11.2524
1312.06 13.9933
1312.16 18.0739
1312.26 24.2068
1312.36 33.9853
1312.46 50.0594
1312.56 78.9064
1312.61 101.773
1312.66 134.346
1312.71 182.124
1312.76 254.352
1312.81 366.320
1312.86 540.380
1312.93 917.029
1313.00 1214.22
1313.07 1026.95
1313.14 682.786
1313.20 487.700
1313.25 361.280
1313.31 276.256
1313.37 219.509
1313.48 149.822
1313.59 111.279
1313.70 87.3667
1313.81 71.5925
1314.03 52.6336
1314.25 41.8638
1314.47 35.1197
1314.69 30.5272
1314.92 27.2535
1315.36 22.9109
1315.80 20.1965
1316.24 18.3537
1316.69 17.0266
1317.57 15.2500
1318.46 14.1182
1319.35 13.3343
1320.23 12.7582
1322.00 11.9642
1323.78 11.4370
1325.55 11.0560
1327.32 10.7632
1330.86 10.3294
1334.41 10.0066
1341.49 9.49784
1348.58 9.01032
1352.13 8.72140
1355.67 8.35601
1357.44 8.12345
1359.21 7.83755
1360.98 7.47180
1362.76 6.98149
1363.64 6.66744
1364.53 6.29064
1365.41 5.83774
1366.30 5.31010
1366.74 5.03809
1367.19 4.80383
1367.63 4.70853
1368.07 5.03585
1368.29 5.58804
1368.52 6.69228
1368.74 8.88610
1368.85 10.7183
1368.96 13.3450
1369.07 17.2646
1369.18 23.2417
1369.29 32.7140
1369.40 48.3211
1369.51 76.3220
1369.57 98.5346
1369.62 130.169
1369.68 177.572
1369.73 248.166
1369.79 357.533
1369.84 527.408
1369.92 899.839
1370.00 1190.02
1370.08 1010.46
1370.16 671.567
1370.24 440.111
1370.32 304.676
1370.40 223.662
1370.47 172.464
1370.55 138.307
1370.63 114.429
1370.79 84.0441
1370.95 66.0581
1371.11 54.4460
1371.42 40.7148
1371.74 33.0213
1372.05 28.2188
1372.37 24.9556
1372.68 22.6237
1373.32 19.5189
1373.95 17.5707
1374.58 16.2400
1375.21 15.2762
1376.47 13.9755
1377.73 13.1403
1379.00 12.5576
1380.26 12.1271
1382.78 11.5300
1385.31 11.1321
1387.83 10.8447
1390.36 10.6248
1395.41 10.3044
1400.46 10.0752
1410.55 9.74909
1420.65 9.50133
1430.75 9.26506
1435.80 9.12298
1438.33 9.03352
1440.85 8.91869
1442.11 8.84496
1443.37 8.75351
1444.64 8.63441
1445.90 8.46896
1446.53 8.35777
1447.16 8.21723
1447.79 8.03289
1448.42 7.78033
1448.74 7.61581
1449.05 7.41683
1449.37 7.17361
1449.69 6.88502
1449.84 6.73104
1450.00 6.59097
1450.16 6.51400
1450.32 6.63932
1450.40 6.89268
1450.47 7.42446
1450.55 8.50452
1450.63 10.7545
1450.67 12.7800
1450.71 15.8153
1450.75 20.7962
1450.79 28.9717
1450.81 35.3544
1450.83 44.1344
1450.85 56.5229
1450.87 73.4436
1450.89 99.9000
1450.91 138.405
1450.93 202.367
1450.95 298.471
1450.97 507.284
1451.00 665.246
1451.03 565.379
1451.05 375.896
1451.08 258.211
1451.10 185.345
1451.13 139.729
1451.15 109.940
1451.20 75.1229
1451.25 56.3969
1451.29 45.1400
1451.34 37.8042
1451.44 29.1110
1451.53 24.1708
1451.63 21.1018
1451.72 18.9992
1451.82 17.5083
1452.01 15.5120
1452.20 14.2685
1452.39 13.4217
1452.58 12.8104
1452.97 11.9884
1453.35 11.4656
1453.73 11.1028
1454.11 10.8375
1454.88 10.4736
1455.64 10.2352
1456.41 10.0660
1457.17 9.93913
1458.70 9.75918
1460.23 9.63574
1463.29 9.47148
1466.35 9.36142
1469.41 9.27809
1475.53 9.15099
1487.76 8.95963
1500.00 8.78962
1510.23 8.63588
1515.35 8.54532
1520.47 8.43540
1525.58 8.28731
1528.14 8.18557
1530.70 8.04855
1531.98 7.95813
1533.26 7.84451
1534.54 7.69535
1535.82 7.48799
1536.46 7.34954
1537.10 7.17614
1537.74 6.95194
1538.38 6.65391
1538.70 6.46670
1539.02 6.24901
1539.34 6.00294
1539.66 5.75632
1539.82 5.66425
1539.98 5.64513
1540.14 5.80523
1540.30 6.41902
1540.46 8.30677
1540.54 10.4690
1540.58 12.1791
1540.62 14.5738
1540.66 18.0058
1540.70 23.0695
1540.74 30.8184
1540.78 43.2375
1540.82 64.3468
1540.86 102.984
1540.88 134.568
1540.90 180.069
1540.92 246.600
1540.93 337.726
1540.97 569.769
1541.00 754.177
1541.02 730.809
1541.03 637.399
1541.07 424.998
1541.09 304.672
1541.12 227.885
1541.14 174.828
1541.17 140.022
1541.22 96.5509
1541.27 72.6192
1541.32 57.5461
1541.37 47.7584
1541.47 35.7696
1541.57 28.9768
1541.67 24.6993
1541.78 21.7990
1541.88 19.7222
1542.08 16.9654
1542.28 15.2542
1542.48 14.0936
1542.69 13.2590
1543.09 12.1422
1543.49 11.4357
1543.90 10.9484
1544.30 10.5921
1545.11 10.1045
1545.92 9.78538
1546.73 9.55778
1547.54 9.38576
1549.15 9.13693
1550.77 8.95837
1554.01 8.69106
1557.24 8.45041
1558.86 8.31271
1560.47 8.14107
1561.28 8.03237
1562.09 7.89866
1562.90 7.72665
1563.71 7.49319
1564.11 7.34042
1564.52 7.15337
1564.92 6.91987
1565.33 6.62673
1565.53 6.45587
1565.73 6.27762
1565.93 6.11658
1566.14 6.05632
1566.24 6.13742
1566.34 6.39438
1566.44 7.01581
1566.54 8.45175
1566.59 9.81357
1566.64 11.9397
1566.69 15.5339
1566.74 21.6974
1566.77 26.7488
1566.79 33.5958
1566.82 43.4677
1566.84 58.1925
1566.87 82.2081
1566.89 120.099
1566.92 184.528
1566.94 296.019
1566.97 503.127
1567.00 660.834
1567.03 561.986
1567.06 373.509
1567.09 245.221
1567.12 170.437
1567.15 125.829
1567.17 97.6954
1567.20 78.9543
1567.23 65.8687
1567.29 49.4530
1567.35 39.5406
1567.40 33.2458
1567.52 25.7001
1567.63 21.4872
1567.75 18.8499
1567.86 17.0644
1567.98 15.7851
1568.21 14.0823
1568.44 13.0184
1568.67 12.2923
1568.90 11.7667
1569.36 11.0576
1569.82 10.6038
1570.28 10.2878
1570.74 10.0547
1571.66 9.73233
1572.58 9.51866
1573.50 9.36484
1574.42 9.24788
1576.26 9.07868
1578.11 8.95913
1581.79 8.79341
1585.47 8.67607
1589.15 8.58252
1596.52 8.42942
1611.24 8.16370
1618.61 8.02186
1620.45 7.98145
1622.29 7.93534
1623.21 7.90747
1624.13 7.87160
1624.59 7.84699
1625.05 7.81300
1625.28 7.79100
1625.51 7.77167
1625.63 7.77866
1625.74 7.85562
1625.80 8.00054
1625.86 8.41934
1625.89 8.95259
1625.91 10.1367
1625.93 11.3535
1625.94 13.3048
1625.96 16.8043
1625.97 23.7421
1625.99 35.0774
1626.00 43.8331
1626.01 38.4911
1626.03 28.0374
1626.04 23.2551
1626.05 19.6978
1626.06 15.3713
1626.08 13.0489
1626.10 11.6858
1626.14 10.2394
1626.17 9.52386
1626.24 8.85388
1626.32 8.55056
1626.46 8.27804
1626.60 8.15542
1626.89 8.04162
1627.18 7.98650
1627.76 7.92843
1628.33 7.89416
1629.48 7.84715
1630.64 7.80973
1635.24 7.67399
1639.85 7.52366
1644.46 7.33600
1649.07 7.07637
1651.37 6.89652
1653.68 6.65570
1654.83 6.49919
1655.98 6.30614
1657.13 6.06064
1658.28 5.73767
1658.86 5.53621
1659.44 5.30206
1660.01 5.03587
1660.59 4.76186
1660.88 4.65241
1661.16 4.61163
1661.45 4.74396
1661.74 5.32228
1661.88 5.98886
1662.03 7.17244
1662.17 9.32957
1662.32 13.4772
1662.39 16.9807
1662.46 22.1952
1662.53 30.2611
1662.60 43.3689
1662.68 66.0774
1662.75 108.814
1662.78 144.726
1662.82 197.819
1662.86 277.979
1662.89 394.988
1662.95 671.618
1663.00 888.815
1663.06 754.323
1663.11 501.907
1663.15 356.945
1663.20 261.963
1663.24 199.732
1663.28 158.533
1663.37 107.504
1663.45 79.6083
1663.54 62.3700
1663.62 51.1722
1663.79 37.6882
1663.96 30.0528
1664.13 25.2957
1664.30 22.0618
1664.47 19.7658
1664.82 16.7201
1665.16 14.8293
1665.50 13.5483
1665.84 12.6270
1666.52 11.3931
1667.20 10.6074
1667.89 10.0604
1668.57 9.65654
1669.93 9.09152
1671.30 8.70504
1674.03 8.17418
1676.76 7.76888
1678.12 7.57188
1679.49 7.35664
1680.85 7.09399
1681.54 6.92697
1682.22 6.71723
1682.56 6.58768
1682.90 6.43580
1683.24 6.25528
1683.58 6.04327
1683.76 5.92948
1683.93 5.82266
1684.10 5.75304
1684.27 5.80797
1684.35 5.95623
1684.44 6.27904
1684.52 6.95065
1684.61 8.37429
1684.65 9.66919
1684.69 11.6891
1684.74 14.9749
1684.78 20.4607
1684.80 24.9155
1684.82 30.8379
1684.84 39.2565
1684.86 51.6153
1684.89 71.5753
1684.91 102.203
1684.93 152.953
1684.95 241.003
1684.98 407.613
1685.00 537.396
1685.03 458.694
1685.05 304.054
1685.08 201.721
1685.10 141.987
1685.12 105.597
1685.15 82.3134
1685.17 66.1164
1685.20 55.2624
1685.24 41.3641
1685.29 32.9633
1685.34 27.6615
1685.44 21.3679
1685.53 17.8286
1685.63 15.6441
1685.73 14.1539
1685.82 13.0997
1686.02 11.6905
1686.21 10.8120
1686.40 10.2114
1686.60 9.77528
1686.98 9.18131
1687.37 8.79433
1687.76 8.51796
1688.14 8.30767
1688.91 8.00026
1689.69 7.77712
1691.23 7.44640
1692.78 7.18199
1694.32 6.93928
1697.41 6.43709
1698.96 6.14852
1700.50 5.81548
1702.05 5.42018
1703.59 4.94709
1704.37 4.68375
1705.14 4.41971
1705.91 4.20268
1706.68 4.18256
1707.07 4.37419
1707.46 4.87267
1707.84 5.99432
1708.04 6.98979
1708.23 8.48388
1708.42 10.7832
1708.62 14.3850
1708.81 20.2789
1709.00 30.4657
1709.19 49.4586
1709.29 65.4218
1709.39 88.8443
1709.48 125.332
1709.58 183.450
1709.68 282.023
1709.77 448.404
1709.89 763.626
1710.00 1014.90
1710.11 865.372
1710.23 574.874
1710.34 382.385
1710.45 267.981
1710.55 198.112
1710.66 153.320
1710.88 101.901
1711.09 74.7015
1711.31 58.4577
1711.53 47.9999
1711.96 35.5818
1712.39 28.6334
1712.82 24.2962
1713.26 21.3539
1713.69 19.2503
1714.55 16.4529
1715.42 14.6899
1716.28 13.4796
1717.15 12.5960
1718.88 11.3836
1720.61 10.5755
1722.34 9.97999
1724.07 9.50415
1727.53 8.71366
1729.26 8.33034
1730.99 7.90493
1732.72 7.37242
1733.58 7.02820
1734.45 6.59469
1734.88 6.33065
1735.31 6.02830
1735.75 5.68619
1736.18 5.33239
1736.39 5.18444
1736.61 5.11380
1736.83 5.23728
1737.04 5.86002
1737.15 6.59157
1737.26 7.89416
1737.37 10.2613
1737.42 12.1401
1737.47 14.7729
1737.53 18.5441
1737.58 24.0962
1737.64 32.5583
1737.69 46.0317
1737.74 68.7033
1737.80 109.571
1737.83 142.487
1737.85 189.290
1737.88 256.736
1737.91 353.582
1737.95 603.264
1738.00 805.236
1738.05 688.543
1738.09 460.219
1738.13 347.574
1738.16 267.919
1738.22 172.237
1738.28 121.423
1738.34 91.7556
1738.40 72.9914
1738.47 60.3505
1738.59 44.9014
1738.71 35.9347
1738.84 30.2432
1739.08 23.5943
1739.33 19.8837
1739.58 17.5647
1739.83 15.9842
1740.07 14.8418
1740.57 13.3017
1741.06 12.3120
1741.56 11.6186
1742.05 11.1023
1743.04 10.3687
1744.03 9.85543
1746.01 9.11684
1747.99 8.49678
1748.98 8.16398
1749.97 7.77191
1750.46 7.53594
1750.96 7.25886
1751.45 6.92449
1751.95 6.51435
1752.20 6.27619
1752.44 6.02392
1752.69 5.78208
1752.94 5.64395
1753.06 5.69547
1753.19 5.94314
1753.31 6.60257
1753.43 8.17101
1753.49 9.67168
1753.56 12.0793
1753.62 16.0848
1753.68 22.9569
1753.71 28.4168
1753.74 36.0695
1753.77 47.0957
1753.80 63.5097
1753.83 88.8936
1753.87 129.848
1753.90 198.630
1753.93 310.972
1753.96 531.160
1754.00 709.738
1754.04 607.908
1754.07 407.569
1754.10 313.413
1754.12 247.847
1754.16 163.932
1754.21 117.636
1754.25 89.9304
1754.30 72.1151
1754.34 59.9747
1754.43 45.0095
1754.52 36.2054
1754.61 30.5859
1754.79 23.9997
1754.97 20.3070
1755.15 18.0013
1755.33 16.4232
1755.51 15.2916
1755.87 13.7705
1756.23 12.8007
1756.59 12.1286
1756.95 11.6356
1757.66 10.9535
1758.38 10.5012
1759.10 10.1743
1759.82 9.92458
1761.25 9.55960
1762.69 9.29833
1765.56 8.92928
1768.43 8.66224
1771.30 8.44613
1777.04 8.08674
1788.52 7.44597
1794.26 7.09962
1800.00 6.69374
1804.97 6.25137
1807.45 5.97532
1809.93 5.63958
1812.42 5.21078
1813.66 4.94507
1814.90 4.63694
1815.52 4.46911
1816.14 4.30191
1816.76 4.16208
1817.38 4.13121
1817.69 4.22637
1818.00 4.48991
1818.31 5.09779
1818.62 6.47228
1818.78 7.76309
1818.93 9.81265
1819.09 13.2337
1819.24 19.3178
1819.32 24.2283
1819.40 31.1702
1819.48 41.6120
1819.55 57.6042
1819.63 84.1764
1819.71 130.178
1819.79 218.463
1819.83 291.703
1819.86 392.243
1819.93 658.180
1820.00 868.369
1820.07 736.863
1820.14 483.210
1820.20 326.409
1820.26 229.812
1820.32 169.773
1820.38 130.866
1820.50 85.8747
1820.63 62.0123
1820.75 47.8454
1820.87 38.7147
1821.11 27.9586
1821.36 22.0192
1821.60 18.3393
1821.85 15.8691
1822.09 14.1102
1822.58 11.7873
1823.07 10.3254
1824.04 8.56861
1825.02 7.51035
1825.99 6.75934
1827.95 5.64466
1829.90 4.73311
1830.87 4.34308
1831.85 4.09480
1832.83 4.34188
1833.31 5.01817
1833.56 5.67150
1833.80 6.69165
1834.05 8.30127
1834.29 10.9019
1834.53 15.2675
1834.78 23.0218
1834.90 29.1970
1835.02 37.9730
1835.14 50.8493
1835.27 70.4891
1835.39 101.888
1835.51 154.947
1835.63 249.992
1835.75 423.919
1835.88 718.825
1836.00 955.615
1836.12 815.116
1836.25 539.491
1836.33 406.559
1836.41 312.262
1836.57 198.651
1836.73 138.234
1836.89 102.992
1837.05 80.7465
1837.21 65.7961
1837.53 47.5223
1837.85 37.0287
1838.17 30.3890
1838.81 22.6372
1839.45 18.3207
1840.09 15.5996
1841.36 12.3432
1842.64 10.4130
1843.92 9.07745
1846.48 7.17412
1849.04 5.65694
1850.32 4.96126
1851.59 4.35754
1852.87 4.10822
1853.51 4.41010
1853.83 4.81376
1854.15 5.51488
1854.47 6.70726
1854.79 8.73612
1855.11 12.2809
1855.43 18.7684
1855.59 24.0679
1855.75 31.7299
1855.91 43.1882
1856.07 60.9210
1856.23 90.2073
1856.39 141.527
1856.55 238.134
1856.63 317.429
1856.71 427.068
1856.85 722.684
1857.00 962.812
1857.15 820.374
1857.29 542.828
1857.43 364.426
1857.56 256.160
1857.69 188.721
1857.83 145.473
1858.09 95.2639
1858.36 68.6245
1858.63 52.6305
1858.89 42.2606
1859.43 29.7919
1859.96 22.6639
1860.49 18.0331
1861.56 12.1751
1862.63 8.30974
1863.16 6.78471
1863.69 5.60447
1863.96 5.26665
1864.22 5.27948
1864.49 5.98046
1864.62 6.79989
1864.76 8.15102
1864.89 10.3568
1865.02 13.9172
1865.16 19.8284
1865.29 30.0484
1865.42 49.0358
1865.49 64.6555
1865.56 87.0088
1865.62 121.044
1865.69 173.025
1865.76 257.351
1865.82 390.872
1865.91 670.762
1866.00 894.343
1866.09 764.952
1866.18 509.520
1866.24 386.431
1866.29 298.401
1866.41 191.798
1866.52 133.612
1866.63 99.4658
1866.75 77.3946
1866.86 62.4680
1867.09 43.6952
1867.31 32.4433
1867.54 24.9747
1867.99 15.4014
1868.44 9.60315
1868.67 8.02997
1868.78 7.80136
1868.90 8.17570
1868.95 8.69244
1869.01 9.50952
1869.07 10.7138
1869.12 12.3881
1869.18 14.7518
1869.24 17.9390
1869.29 22.3777
1869.35 28.3529
1869.41 36.7395
1869.46 48.4495
1869.52 65.0172
1869.58 88.3354
1869.63 122.948
1869.69 173.345
1869.75 250.205
1869.80 362.382
1869.90 665.275
1870.00 909.045
1870.10 792.569
1870.20 554.527
1870.28 407.572
1870.36 310.129
1870.45 245.274
1870.53 201.130
1870.70 145.633
1870.86 113.896
1871.03 93.6399
1871.19 79.9180
1871.52 62.5694
1871.85 52.1948
1872.18 45.3280
1872.85 36.8214
1873.51 31.7300
1874.17 28.3275
1875.49 24.0293
1876.82 21.3897
1878.14 19.5858
1880.79 17.2448
1883.43 15.7669
1886.08 14.7349
1891.37 13.3625
1896.67 12.4694
1901.96 11.8251
1912.54 10.9144
1923.13 10.2341
1928.42 9.91968
1933.72 9.59054
1939.01 9.20451
1941.66 8.96317
1944.30 8.65735
1946.95 8.22822
1948.27 7.92804
1949.60 7.52504
1950.26 7.26414
1950.92 6.94572
1951.58 6.54989
1952.24 6.05446
1952.57 5.76579
1952.91 5.46022
1953.24 5.17517
1953.57 5.03554
1953.73 5.12979
1953.90 5.48311
1954.06 6.37878
1954.15 7.20788
1954.23 8.45748
1954.31 10.4124
1954.39 13.5115
1954.48 18.5973
1954.56 27.2216
1954.64 43.2521
1954.68 56.2443
1954.72 75.0885
1954.77 104.134
1954.81 148.229
1954.85 218.475
1954.89 331.026
1954.95 570.791
1955.00 761.968
1955.06 654.460
1955.11 439.869
1955.15 333.580
1955.19 258.297
1955.26 167.605
1955.33 119.222
1955.41 91.1453
1955.48 73.0170
1955.55 60.9027
1955.70 45.7853
1955.85 36.9825
1956.00 31.4005
1956.29 24.8049
1956.59 21.0996
1956.88 18.7702
1957.17 17.1724
1957.47 16.0195
1958.06 14.4636
1958.65 13.4652
1959.24 12.7692
1959.82 12.2553
1961.00 11.5390
1962.18 11.0565
1964.53 10.4238
1966.89 9.99786
1969.25 9.66361
1973.96 9.08747
1978.67 8.46685
1981.02 8.07482
1983.38 7.56866
1984.56 7.24670
1985.73 6.85641
1986.91 6.37256
1988.09 5.76492
1988.68 5.40828
1989.27 5.02567
1989.86 4.65647
1990.44 4.43725
1990.74 4.50553
1991.03 4.86107
1991.33 5.81976
1991.48 6.72161
1991.62 8.11146
1991.77 10.2933
1991.92 13.7432
1992.06 19.4095
1992.21 29.1614
1992.36 47.0755
1992.43 61.8720
1992.51 83.0654
1992.58 115.246
1992.65 164.348
1992.73 243.567
1992.80 368.530
1992.90 638.009
1993.00 855.465
1993.10 735.716
1993.20 495.780
1993.31 321.995
1993.42 223.105
1993.52 164.612
1993.63 127.877
1993.73 103.251
1993.84 86.2368
1994.05 64.5511
1994.27 51.6127
1994.48 43.2620
1994.90 33.2649
1995.33 27.6275
1995.75 24.0639
1996.18 21.6290
1996.60 19.8729
1997.45 17.5110
1998.30 16.0067
1999.15 14.9672
2000.00 14.2070
2001.12 13.4658
2002.25 12.9175
2004.49 12.1558
2006.74 11.6468
2008.99 11.2785
2013.48 10.7704
2017.97 10.4254
2026.96 9.95929
2035.94 9.63126
2053.92 9.12917
2071.89 8.67900
2089.86 8.17904
2098.85 7.87503
2107.83 7.50209
2116.82 7.00951
2121.31 6.68778
2125.80 6.28350
2130.30 5.74823
2132.54 5.40501
2134.79 4.98983
2137.04 4.48935
2138.16 4.21984
2139.28 3.98817
2139.84 3.93133
2140.40 3.97929
2140.97 4.25886
2141.53 5.08283
2141.81 5.93382
2142.09 7.36447
2142.37 9.85730
2142.65 14.4406
2142.79 18.2338
2142.93 23.7301
2143.07 32.1181
2143.21 45.3437
2143.35 67.8119
2143.49 108.394
2143.56 141.435
2143.63 188.980
2143.70 258.590
2143.77 360.451
2143.89 608.020
2144.00 809.343
2144.11 691.813
2144.23 456.197
2144.33 303.399
2144.44 211.249
2144.55 154.991
2144.65 119.276
2144.86 77.9933
2145.07 56.3858
2145.29 43.5374
2145.50 35.3003
2145.92 25.5624
2146.34 20.1310
2146.77 16.7301
2147.61 12.7404
2148.46 10.4494
2149.30 8.92056
2150.99 6.85346
2152.68 5.33863
2153.53 4.71305
2154.37 4.26915
2154.80 4.20922
2155.22 4.39107
2155.64 5.06264
2155.85 5.73875
2156.06 6.80640
2156.28 8.50574
2156.49 11.2315
2156.70 15.7638
2156.91 23.6829
2157.12 38.6536
2157.23 51.2383
2157.33 69.7629
2157.44 98.6550
2157.54 144.811
2157.65 223.213
2157.75 356.113
2157.88 607.907
2158.00 812.958
2158.12 697.445
2158.25 464.161
2158.38 294.414
2158.51 198.795
2158.65 143.355
2158.78 109.292
2158.91 86.7110
2159.05 71.0969
2159.31 51.4679
2159.58 39.8604
2159.84 32.3817
2160.37 23.3867
2160.90 18.1912
2161.43 14.7526
2162.50 10.2389
2163.56 7.10014
2164.09 5.86382
2164.62 5.05074
2164.89 5.00224
2165.15 5.46594
2165.28 6.02739
2165.42 6.93599
2165.55 8.35060
2165.68 10.5000
2165.82 13.8160
2165.95 18.9586
2166.08 27.1104
2166.21 40.3311
2166.35 63.0800
2166.48 103.811
2166.55 136.844
2166.61 182.562
2166.68 247.143
2166.74 337.709
2166.87 599.995
2167.00 813.536
2167.13 705.599
2167.26 484.267
2167.39 329.595
2167.51 236.256
2167.64 178.896
2167.77 141.797
2167.90 116.541
2168.03 98.5651
2168.28 75.1643
2168.54 60.9173
2168.79 51.4883
2169.31 39.9767
2169.82 33.2801
2170.33 28.9478
2171.35 23.6782
2172.38 20.5874
2173.40 18.5470
2175.44 15.9839
2177.49 14.4054
2179.54 13.3099
2183.63 11.8276
2187.72 10.7987
2191.81 9.96796
2195.91 9.20751
2200.00 8.42631
2200.00 26.4937
2500.00 25.3621
3000.00 24.6360
3500.00 24.3864
4000.00 24.0586
5000.00 22.2599
6000.00 21.1494
7000.00 19.8321
7200.00 19.6418
8000.00 18.8807
8500.00 18.4689
9000.00 18.0571
9500.00 17.5270
10000.0 17.3504
12000.0 16.6443
12500.0 16.4308
13000.0 16.2173
14000.0 16.0409
15000.0 15.8847
17000.0 15.5053
20000.0 14.6507
22000.0 14.3242
25000.0 13.8990
30000.0 13.0368
35000.0 12.4717
40000.0 11.8794
45000.0 11.5940
46736.3 11.4370
50000.0 11.2316
55000.0 11.0076
60000.0 10.8041
65000.0 10.5896
70000.0 10.4250
80000.0 10.1045
90000.0 9.83300
95000.0 9.70899
99626.3 9.61665
120000 9.28026
130000 9.10727
140000 8.89471
150000 8.70429
160000 8.53771
170000 8.44806
180000 8.36495
190000 8.28764
200000 8.20612
208151 8.10089
209961 8.07994
220000 8.01424
250000 7.76859
270000 7.61596
293328 7.46348
300000 7.43340
310653 7.36850
311196 7.36521
320000 7.31191
350000 7.17151
400000 6.94811
414362 6.87542
420000 6.85055
450000 6.71705
455568 6.69706
478021 6.62696
489685 6.59068
500000 6.55860
520000 6.50931
550000 6.44904
600000 6.36725
700000 6.36757
750000 6.37954
850000 6.38231
1.10000E+06 6.47719
1.30000E+06 6.59433
1.40000E+06 6.66974
1.50000E+06 6.73983
1.60000E+06 6.79885
1.70000E+06 6.87253
1.80000E+06 6.94119
1.90000E+06 7.00268
2.00000E+06 7.05563
2.10000E+06 7.07776
2.20000E+06 7.09366
2.30000E+06 7.10154
2.50000E+06 7.09189
2.75000E+06 7.03906
3.00000E+06 6.95913
3.50000E+06 6.72682
4.00000E+06 6.44876
4.50000E+06 6.16983
5.00000E+06 5.90697
5.50000E+06 5.67686
6.00000E+06 5.48160
6.22513E+06 5.39649
6.50000E+06 5.32484
7.00000E+06 5.21226
8.00000E+06 5.14260
8.20000E+06 5.14249
8.40000E+06 5.14352
8.60000E+06 5.14584
9.00000E+06 5.15302
9.30000E+06 5.16077
9.60000E+06 5.16975
1.00000E+07 5.18332
1.05000E+07 5.22254
1.10000E+07 5.26432
1.15000E+07 5.30773
1.20000E+07 5.35024
1.25000E+07 5.39082
1.30000E+07 5.42620
1.35000E+07 5.45756
1.40000E+07 5.48484
1.43336E+07 5.50003
1.45000E+07 5.50761
1.50000E+07 5.52554
1.55000E+07 5.54114
1.60000E+07 5.55379
1.70000E+07 5.55259
1.80000E+07 5.52337
1.90000E+07 5.46519
2.00000E+07 5.38151
2.10514E+07 5.30145
2.20000E+07 5.22930
2.40000E+07 5.03767
2.80000E+07 4.59845
3.00000E+07 4.45272
3.20000E+07 4.35898
3.40000E+07 4.26513
3.80000E+07 4.16324
4.20000E+07 4.14820
4.60000E+07 4.19002
4.80000E+07 4.22596
5.50000E+07 4.36640
6.00000E+07 4.45532
6.04359E+07 4.45918
6.28533E+07 4.48056
6.53675E+07 4.50281
6.79822E+07 4.52594
7.00000E+07 4.54379
7.07015E+07 4.54081
7.35295E+07 4.52883
7.64707E+07 4.51638
7.95295E+07 4.50342
8.00000E+07 4.50143
8.27107E+07 4.46342
8.60191E+07 4.41703
8.94599E+07 4.36879
9.00000E+07 4.36121
9.30383E+07 4.30054
9.67598E+07 4.22623
1.00000E+08 4.16152
1.00630E+08 4.14731
1.04655E+08 4.05652
1.08842E+08 3.96207
1.13195E+08 3.86388
1.15000E+08 3.82317
1.17723E+08 3.76282
1.22432E+08 3.65845
1.27329E+08 3.54992
1.30000E+08 3.49073
1.32422E+08 3.44463
1.37719E+08 3.34381
1.43228E+08 3.23895
1.48957E+08 3.12990
1.50000E+08 3.11005