Hg-201(n,tot) ENDF/B-VII.1
Energy(eV) XS(b)
1.00000E-05 260.483
1.25000E-05 234.437
1.50000E-05 215.211
2.00000E-05 188.223
2.75000E-05 162.544
3.50000E-05 145.644
4.25000E-05 133.444
5.00000E-05 124.104
6.25000E-05 112.456
7.50000E-05 103.857
0.000100000 91.7878
0.000125000 83.5512
0.000150000 77.4713
0.000200000 68.9370
0.000275000 60.8166
0.000350000 55.4723
0.000425000 51.6142
0.000500000 48.6607
0.000625000 44.9771
0.000750000 42.2581
0.00100000 38.4413
0.00125000 35.8367
0.00150000 33.9140
0.00200000 31.2151
0.00275000 28.6471
0.00350000 26.9570
0.00425000 25.7368
0.00500000 24.8027
0.00625000 23.6378
0.00750000 22.7778
0.0100000 21.5706
0.0125000 20.7467
0.0150000 20.1385
0.0200000 19.2847
0.0253000 18.6726
0.0314750 18.1648
0.0376500 17.7877
0.0500000 17.2553
0.0625000 16.8863
0.0750000 16.6138
0.100000 16.2310
0.125000 15.9695
0.150000 15.7763
0.200000 15.5046
0.275000 15.2452
0.350000 15.0738
0.500000 14.8539
0.750000 14.6445
1.00000 14.5172
1.50000 14.3618
2.00000 14.2648
2.75000 14.1671
3.50000 14.0979
5.00000 13.9999
7.50000 13.8896
10.0000 13.8083
15.0000 13.6828
20.0000 13.5804
25.7140 13.4763
31.4280 13.3812
34.2850 13.3449
35.7135 13.3388
37.1420 13.3573
38.5705 13.4469
39.2848 13.5640
39.9990 13.8074
40.3561 14.0272
40.7133 14.3757
41.0704 14.9622
41.4275 16.0364
41.7846 18.2692
41.9632 20.3817
42.1418 23.9683
42.3203 30.7071
42.4096 36.4916
42.4989 45.4040
42.5882 60.0079
42.6774 85.8556
42.7667 135.914
42.8114 178.332
42.8560 239.312
42.9280 379.688
43.0000 477.399
43.0720 389.997
43.1440 252.216
43.1976 180.836
43.2511 134.027
43.3047 103.284
43.3583 82.5341
43.4654 57.6451
43.5725 44.0763
43.6796 35.9391
43.7868 30.6939
44.0010 24.5711
44.2153 21.2633
44.4295 19.2690
44.6438 17.9695
44.8580 17.0726
45.2865 15.9412
45.7150 15.2750
46.1435 14.8455
46.5720 14.5498
47.4290 14.1746
48.2860 13.9493
50.0000 13.6930
52.5830 13.4970
55.1660 13.3845
57.7490 13.3088
60.3320 13.2605
62.9150 13.2575
64.2065 13.2981
65.4980 13.4130
66.1438 13.5296
66.7895 13.7251
67.4353 14.0692
68.0810 14.7236
68.7268 16.1312
69.0496 17.4955
69.3725 19.8568
69.6954 24.3982
69.8568 28.3787
70.0183 34.6303
70.1797 45.1370
70.3411 64.4019
70.4219 80.3459
70.5026 103.713
70.5833 138.733
70.6640 191.192
70.7820 303.041
70.9000 381.890
71.0180 313.533
71.1360 204.323
71.2488 135.288
71.3615 95.0993
71.4743 71.2034
71.5870 56.2384
71.6998 46.3668
71.8125 39.5529
72.0380 31.0479
72.2635 26.1522
72.4890 23.0776
72.9400 19.5671
73.3910 17.7021
73.8420 16.5851
74.2930 15.8582
74.7440 15.3552
75.6460 14.7161
76.5480 14.3342
77.4500 14.0834
78.3520 13.9069
80.1560 13.6751
81.9600 13.5282
85.5680 13.3465
89.1760 13.2310
92.7840 13.1446
100.000 13.0104
112.500 12.8196
125.000 12.6347
137.500 12.4318
150.000 12.1907
162.500 11.8825
168.750 11.6881
175.000 11.4536
181.250 11.1636
187.500 10.8004
190.625 10.5903
193.750 10.3743
196.875 10.2032
198.438 10.1826
200.000 10.2747
201.237 10.5103
202.475 11.0357
203.712 12.1544
204.949 14.6074
205.568 16.8826
206.186 20.5310
206.805 26.6963
207.424 37.9115
207.733 47.1218
208.042 60.6362
208.352 81.3681
208.661 115.028
208.970 173.899
209.125 220.762
209.279 287.615
209.434 386.401
209.589 537.539
209.743 776.571
209.898 1156.72
210.099 1904.53
210.300 2453.91
210.502 2026.80
210.703 1309.68
210.902 839.915
211.100 568.611
211.299 408.186
211.497 307.958
211.696 241.851
211.894 196.156
212.291 138.910
212.688 105.731
213.085 84.7292
213.879 60.4712
214.673 47.3682
215.467 39.3996
216.261 34.1388
217.055 30.4528
218.643 25.6956
220.231 22.8026
221.818 20.8787
223.406 19.5150
226.582 17.7180
229.758 16.5871
232.934 15.8054
236.110 15.2268
242.461 14.4074
248.813 13.8255
261.516 12.9435
274.219 12.1183
280.571 11.6391
286.923 11.0543
290.098 10.7008
293.274 10.2920
296.450 9.82026
299.626 9.30237
301.214 9.05887
302.802 8.88688
304.390 8.92287
305.977 9.54327
306.771 10.3761
307.565 11.9573
308.359 15.0089
309.153 21.2276
309.550 26.7348
309.947 35.2733
310.344 49.1690
310.741 73.3076
310.940 92.3371
311.138 119.277
311.337 158.775
311.535 219.223
311.734 316.720
311.932 484.235
312.131 792.612
312.230 1040.96
312.329 1384.20
312.515 2301.72
312.700 2991.73
312.886 2489.33
313.071 1619.23
313.199 1184.97
313.327 887.705
313.455 684.852
313.584 543.519
313.840 367.826
314.096 268.192
314.352 206.600
314.608 165.887
315.121 116.940
315.633 89.5486
316.146 72.5321
316.658 61.1489
317.170 53.1033
318.195 42.6450
319.220 36.2569
320.245 32.0071
321.270 29.0016
323.319 25.0675
325.369 22.6275
327.419 20.9742
329.468 19.7818
333.568 18.1745
337.667 17.1344
341.766 16.3977
345.865 15.8408
354.064 15.0324
362.262 14.4436
378.660 13.5374
395.057 12.7054
403.255 12.2429
411.454 11.7068
415.553 11.4005
419.652 11.0666
423.752 10.7175
427.851 10.4128
429.901 10.3376
431.950 10.4051
434.000 10.7963
436.050 11.9693
438.099 15.2806
439.124 18.9614
440.149 25.8719
441.174 40.1447
441.686 53.2342
442.198 74.4210
442.711 111.066
443.223 180.157
443.479 238.462
443.736 325.113
443.992 456.897
444.248 657.623
444.624 1100.25
445.000 1441.53
445.376 1211.12
445.752 796.637
446.176 490.895
446.600 325.377
447.024 232.133
447.447 175.695
447.871 139.215
448.295 114.319
449.143 83.4296
449.990 65.6102
450.838 54.3174
452.533 41.1770
454.228 33.9738
455.924 29.5171
457.619 26.5216
459.314 24.3839
462.705 21.5503
466.095 19.7597
469.486 18.5201
472.876 17.6031
479.657 16.3089
486.438 15.3983
500.000 14.0530
507.909 13.3673
515.818 12.6652
523.727 11.8826
531.636 10.9415
535.591 10.3804
539.545 9.74186
543.500 9.02544
547.454 8.28771
549.431 7.98458
551.409 7.84814
553.386 8.13507
555.363 9.51871
556.352 11.1423
557.340 14.0461
558.329 19.3675
559.318 29.6498
559.812 38.3688
560.306 51.3813
560.801 71.5783
561.295 104.543
561.789 161.987
562.283 271.008
562.531 363.409
562.778 501.031
563.025 710.917
563.272 1031.25
563.636 1744.31
564.000 2305.27
564.365 1950.11
564.729 1288.88
564.962 974.200
565.196 750.509
565.662 479.645
566.129 334.786
566.595 249.956
567.062 196.270
567.528 160.130
568.461 115.810
569.394 90.4536
570.327 74.4316
572.193 55.7826
574.059 45.5227
575.925 39.1442
577.791 34.8373
579.656 31.7515
583.388 27.6459
587.120 25.0469
590.852 23.2527
594.584 21.9349
602.048 20.1094
609.511 18.8747
616.975 17.9493
624.439 17.1946
639.366 15.8980
646.830 15.2496
654.293 14.5313
658.025 14.1274
661.757 13.6862
665.489 13.2144
669.221 12.7654
671.087 12.6088
672.953 12.5901
674.819 12.8949
676.684 13.9944
678.550 17.2686
679.483 20.9434
680.416 27.8008
681.349 41.6905
681.816 54.1087
682.282 73.6325
682.749 106.004
683.215 163.249
683.682 272.055
683.915 361.977
684.148 488.758
684.574 828.584
685.000 1102.04
685.426 941.115
685.852 629.683
686.116 484.130
686.381 379.087
686.909 249.556
687.438 178.933
687.966 137.013
688.495 110.218
689.023 92.0400
690.080 69.5547
691.137 56.5715
692.194 48.3066
694.308 38.6077
696.422 33.2211
698.536 29.8460
700.650 27.5520
702.764 25.8989
706.992 23.6838
711.220 22.2704
715.448 21.2893
719.676 20.5667
728.132 19.5679
736.588 18.9037
745.044 18.4249
753.500 18.0599
753.500 35.4620
876.750 33.0985
1000.00 31.1744
1281.25 29.3215
1562.50 27.9176
1567.80 27.8934
1567.83 27.8933
1608.03 27.7144
1673.59 27.4379
1739.15 27.1789
1843.75 26.7982
1870.27 26.7013
2125.00 25.8738
2132.52 25.8504
2394.77 25.1050
2657.02 24.4804
2687.50 24.4144
3181.52 23.4132
3250.00 23.2937
3706.02 22.5465
3812.50 22.3923
4375.00 21.6432
4755.01 21.1941
5500.00 20.4526
5804.01 20.1784
6625.00 19.5328
7750.00 18.7899
7902.00 18.6989
8875.00 18.1706
10000.0 17.6424
11406.3 17.2413
12812.5 16.8944
15625.0 16.3185
18437.5 15.8532
21250.0 15.4647
26402.0 14.8881
26432.0 14.8852
26875.0 14.8428
27006.7 14.8300
27581.5 14.7749
28731.0 14.6690
31030.0 14.4733
32301.0 14.3731
32301.3 14.3731
32361.6 14.3684
32500.0 14.3579
33329.0 14.2943
33418.4 14.2875
34475.3 14.2096
35628.0 14.1281
36589.0 14.0628
38125.0 13.9628
40226.0 13.8319
40816.4 13.7967
43750.0 13.6310
44824.0 13.5727
45043.8 13.5610
49271.2 13.3492
54020.0 13.1374
55000.0 13.0966
57726.0 12.9856
63216.0 12.7810
66180.8 12.6797
66250.0 12.6775
77500.0 12.3346
81608.0 12.2234
83090.4 12.1851
88750.0 12.0458
100000 11.7972
125000 11.2029
150000 10.7396
160000 10.5802
168341 10.4373
174170 10.3426
180000 10.2519
200000 9.94930
225000 9.57313
250000 9.24869
300000 8.71303
386530 7.85855
386530 7.85855
400000 7.74928
416580 7.62311
416581 7.62311
416600 7.62296
427025 7.54677
437450 7.47283
450000 7.38664
458300 7.33221
466731 7.27816
500000 7.07577
545725 6.81877
545725 6.81877
550047 6.79615
555775 6.76677
555776 6.76677
625000 6.42931
648639 6.32764
648639 6.32764
723141 6.03904
736679 5.99138
750000 5.94521
769845 5.89955
770046 5.89909
824648 5.77735
885023 5.65451
1.00000E+06 5.44741
1.25000E+06 5.66082
1.50000E+06 5.84137
1.75000E+06 5.99851
2.00000E+06 6.13805
2.25000E+06 6.42399
2.50000E+06 6.69106
2.75000E+06 6.94219
3.00000E+06 7.17968
3.50000E+06 7.30257
3.75000E+06 7.35826
4.00000E+06 7.41073
4.72190E+06 7.02557
5.00000E+06 6.89728
5.08285E+06 6.86105
5.44380E+06 6.71129
5.50410E+06 6.68756
5.72190E+06 6.60458
6.00000E+06 6.50452
6.25593E+06 6.33015
6.25593E+06 6.33015
6.61184E+06 6.08434
6.62568E+06 6.07553
6.96775E+06 5.87381
7.67957E+06 5.53972
7.73987E+06 5.51071
8.00000E+06 5.39435
8.25000E+06 5.33224
8.50000E+06 5.27663
9.00000E+06 5.18321
9.50000E+06 5.08102
1.00000E+07 5.00137
1.05000E+07 4.99923
1.10000E+07 5.00051
1.15000E+07 5.00492
1.20000E+07 5.01218
1.25000E+07 5.07406
1.30000E+07 5.13555
1.35000E+07 5.19668
1.40000E+07 5.25744
1.43249E+07 5.30818
1.43250E+07 5.30818
1.44841E+07 5.33240
1.47437E+07 5.37175
1.51625E+07 5.43485
1.55812E+07 5.49749
1.60000E+07 5.55971
1.70000E+07 5.64002
1.80000E+07 5.71842
2.00000E+07 5.73370
2.00000E+07 5.70550
2.10000E+07 5.69156
2.10281E+07 5.69084
2.20000E+07 5.65530
2.30000E+07 5.60001
2.40000E+07 5.52900
2.50000E+07 5.44729
2.59599E+07 5.35915
2.60000E+07 5.35520
2.64949E+07 5.30633
2.70000E+07 5.25622
2.77533E+07 5.17964
2.80000E+07 5.15380
2.80515E+07 5.14837
2.90000E+07 5.05010
2.95551E+07 4.99470
3.00000E+07 4.95170
3.10000E+07 4.85936
3.19121E+07 4.77969
3.20000E+07 4.77222
3.27254E+07 4.71195
3.30000E+07 4.68974
3.40000E+07 4.61147
3.43383E+07 4.58587
3.44300E+07 4.57900
3.50000E+07 4.53700
3.60000E+07 4.47088
3.63746E+07 4.44919
3.70000E+07 4.41618
3.80000E+07 4.37063
3.80302E+07 4.36938
3.90000E+07 4.33237
3.99416E+07 4.30157
4.00000E+07 4.29980
4.08423E+07 4.27765
4.10000E+07 4.27420
4.20000E+07 4.25702
4.28424E+07 4.24838
4.30000E+07 4.24731
4.30552E+07 4.24697
4.40000E+07 4.24424
4.50000E+07 4.24710
4.52724E+07 4.24867
4.60000E+07 4.25336
4.70000E+07 4.26164
4.71934E+07 4.26355
4.80000E+07 4.27291
4.90000E+07 4.28807
4.95289E+07 4.29793
4.95895E+07 4.29915
5.00000E+07 4.30790
5.10000E+07 4.33027
5.20000E+07 4.35264
5.21934E+07 4.35698
5.30000E+07 4.37512
5.40000E+07 4.39781
5.50000E+07 4.42080
5.54349E+07 4.43090
5.60000E+07 4.44407
5.70000E+07 4.46737
5.80000E+07 4.49045
5.84850E+07 4.50149
5.85717E+07 4.50345
5.90000E+07 4.51307
6.00000E+07 4.53500
6.10000E+07 4.55581
6.16207E+07 4.56807
6.20000E+07 4.57533
6.30000E+07 4.59372
6.40000E+07 4.61116
6.50000E+07 4.62780
6.55952E+07 4.63709
6.60000E+07 4.64298
6.70000E+07 4.65613
6.80000E+07 4.66758
6.88221E+07 4.67592
6.90000E+07 4.67761
7.00000E+07 4.68650
7.10000E+07 4.69410
7.20000E+07 4.70017
7.30000E+07 4.70479
7.40000E+07 4.70808
7.46930E+07 4.70961
7.50000E+07 4.71010
7.60000E+07 4.71092
7.70000E+07 4.71054
7.80000E+07 4.70898
7.81018E+07 4.70876
7.90000E+07 4.70626
8.00000E+07 4.70240
8.10000E+07 4.69752
8.20000E+07 4.69173
8.30000E+07 4.68500
8.40000E+07 4.67733
8.50000E+07 4.66870
8.60000E+07 4.65927
8.70000E+07 4.64917
8.80000E+07 4.63838
8.90000E+07 4.62686
9.00000E+07 4.61460
9.10000E+07 4.60169
9.20000E+07 4.58828
9.30000E+07 4.57440
9.40000E+07 4.56009
9.50000E+07 4.54540
9.60000E+07 4.53030
9.70000E+07 4.51477
9.80000E+07 4.49880
9.90000E+07 4.48241
1.00000E+08 4.46560
1.02000E+08 4.43123
1.04000E+08 4.39616
1.06000E+08 4.36042
1.08000E+08 4.32403
1.10000E+08 4.28700
1.12000E+08 4.24963
1.14000E+08 4.21217
1.16000E+08 4.17457
1.18000E+08 4.13683
1.20000E+08 4.09890
1.22000E+08 4.06124
1.24000E+08 4.02413
1.26000E+08 3.98739
1.28000E+08 3.95083
1.30000E+08 3.91430
1.32000E+08 3.87810
1.34000E+08 3.84257
1.36000E+08 3.80764
1.38000E+08 3.77327
1.40000E+08 3.73940
1.42000E+08 3.70612
1.44000E+08 3.67350
1.46000E+08 3.64148
1.48000E+08 3.61000
1.50000E+08 3.57900