Hg-198(n,tot) ENDF/B-VII.1
Energy(eV) XS(b)
1.00000E-05 112.476
1.25000E-05 101.951
1.50000E-05 94.1819
2.00000E-05 83.2764
2.75000E-05 72.8999
3.50000E-05 66.0708
4.25000E-05 61.1409
5.00000E-05 57.3667
6.25000E-05 52.6598
7.50000E-05 49.1854
0.000100000 44.3083
0.000125000 40.9800
0.000150000 38.5232
0.000200000 35.0747
0.000275000 31.7933
0.000350000 29.6339
0.000425000 28.0749
0.000500000 26.8814
0.000625000 25.3930
0.000750000 24.2943
0.00100000 22.7522
0.00125000 21.6997
0.00150000 20.9229
0.00200000 19.8324
0.00275000 18.7949
0.00350000 18.1122
0.00425000 17.6193
0.00500000 17.2419
0.00625000 16.7714
0.00750000 16.4241
0.0100000 15.9366
0.0125000 15.6039
0.0150000 15.3584
0.0200000 15.0139
0.0253000 14.7669
0.0314750 14.5621
0.0376500 14.4101
0.0500000 14.1956
0.0625000 14.0470
0.0750000 13.9374
0.100000 13.7835
0.125000 13.6785
0.150000 13.6010
0.200000 13.4921
0.275000 13.3884
0.350000 13.3200
0.500000 13.2323
0.750000 13.1488
1.00000 13.0977
1.50000 13.0344
2.00000 12.9936
2.75000 12.9502
3.50000 12.9169
5.00000 12.8634
7.50000 12.7863
10.0000 12.7094
12.5000 12.6272
15.0000 12.5465
16.2500 12.5210
17.5000 12.5362
18.7500 12.6809
19.3750 12.8853
20.0000 13.3104
20.3741 13.7787
20.7482 14.5631
21.1223 15.9595
21.4964 18.6793
21.6834 21.0607
21.8704 24.7755
22.0575 30.9535
22.2445 42.1813
22.3381 51.5087
22.4316 65.4566
22.5251 87.5314
22.6186 125.227
22.6654 154.819
22.7121 196.869
22.7355 224.806
22.7589 259.215
22.7823 302.194
22.8057 356.732
22.8290 427.190
22.8524 520.097
22.8758 645.481
22.8992 819.173
22.9226 1066.76
22.9459 1430.06
22.9693 1975.68
22.9927 2795.01
23.0264 4507.42
23.0600 5685.57
23.0769 5377.89
23.0937 4594.75
23.1274 2903.58
23.1537 2000.27
23.1799 1422.00
23.2061 1049.74
23.2324 802.600
23.2849 511.079
23.3374 354.845
23.3898 262.248
23.4423 203.097
23.5473 134.704
23.6523 98.1474
23.7572 76.2947
23.8622 62.1616
23.9672 52.4723
24.1771 40.3614
24.3871 33.3196
24.5970 28.8363
24.8069 25.7893
25.2268 21.9993
25.6467 19.7939
26.0666 18.3814
26.4865 17.4131
27.3263 16.1908
28.1660 15.4630
29.0058 14.9856
29.8456 14.6504
31.5251 14.2121
33.2046 13.9379
34.8842 13.7487
36.5637 13.6084
39.9228 13.4093
43.2819 13.2676
50.0000 13.0562
54.9657 12.9216
59.9315 12.7848
64.8972 12.6306
69.8629 12.4385
72.3458 12.3178
74.8286 12.1709
77.3115 11.9859
79.7944 11.7436
81.0358 11.5926
82.2772 11.4172
83.5187 11.2182
84.7601 11.0162
85.3808 10.9402
86.0015 10.9246
86.6222 11.0628
87.2429 11.6084
87.5533 12.2379
87.8637 13.3762
88.1740 15.5196
88.4844 19.8648
88.6396 23.7432
88.7947 29.8416
88.9499 40.0047
89.0275 47.7341
89.0663 52.6079
89.1051 58.3599
89.1245 61.6311
89.1439 65.2072
89.1633 69.1255
89.1827 73.4271
89.2021 78.1664
89.2215 83.3996
89.2603 95.6290
89.2991 110.826
89.3379 129.977
89.3767 154.529
89.4155 186.600
89.4543 229.465
89.4930 288.258
89.5318 371.502
89.5706 493.757
89.6094 681.445
89.6482 984.161
89.6870 1497.29
89.7258 2385.78
89.7679 3890.81
89.8100 4962.26
89.8522 4054.07
89.8943 2589.51
89.9338 1676.17
89.9733 1138.18
90.0127 815.188
90.0522 611.451
90.1312 382.516
90.2101 264.912
90.2891 196.843
90.3680 153.915
90.5259 104.683
90.6838 78.4060
90.8417 62.6217
90.9996 52.3302
91.1575 45.2053
91.4733 36.1621
91.7891 30.7843
92.1049 27.2832
92.4207 24.8519
93.0523 21.7389
93.6839 19.8583
94.3156 18.6127
94.9472 17.7327
96.2104 16.5788
97.4736 15.8598
98.7368 15.3698
100.000 15.0143
101.563 14.6894
103.125 14.4457
106.250 14.1014
109.375 13.8663
112.500 13.6920
118.750 13.4423
125.000 13.2616
137.500 12.9892
150.000 12.7615
175.000 12.3092
200.000 11.7476
212.754 11.3730
225.507 10.8990
238.261 10.2714
251.015 9.39289
257.391 8.80562
263.768 8.07025
270.145 7.12668
276.522 5.88854
279.710 5.12850
282.899 4.27024
286.087 3.35647
289.275 2.58970
290.870 2.46761
291.667 2.56261
292.065 2.67118
292.265 2.74473
292.464 2.83295
292.663 2.93755
292.862 3.06030
293.062 3.20324
293.261 3.36856
293.460 3.55900
293.660 3.77740
294.058 4.31151
294.457 5.00318
294.855 5.89364
295.254 7.03798
295.652 8.50820
296.051 10.4030
296.449 12.8552
296.848 16.0526
297.246 20.2584
297.645 25.8592
298.044 33.4248
298.442 43.8388
298.841 58.4950
299.239 79.7222
299.638 111.562
300.036 161.563
300.435 244.839
300.833 395.071
301.033 517.850
301.232 697.112
301.431 969.521
301.631 1401.57
301.830 2115.43
302.029 3311.32
302.265 5512.75
302.500 7164.33
302.736 5955.65
302.972 3866.18
303.132 2840.97
303.292 2133.83
303.452 1647.76
303.611 1307.48
303.931 881.902
304.251 639.281
304.570 488.701
304.890 388.923
305.529 268.716
306.169 201.306
306.808 159.392
307.447 131.337
308.087 111.502
309.365 85.7156
310.644 69.9661
311.923 59.4908
313.201 52.0848
315.759 42.3912
318.316 36.3714
320.873 32.2767
323.431 29.2969
328.545 25.1517
333.660 22.1198
336.217 20.6575
337.496 19.8522
338.774 18.9364
340.053 17.8427
340.692 17.2189
341.332 16.5922
341.651 16.3370
341.971 16.2179
342.291 16.4372
342.610 17.5237
342.770 18.8022
342.930 21.0890
343.090 25.2843
343.250 33.4098
343.330 40.3296
343.370 44.9697
343.410 50.6833
343.450 57.8300
343.470 62.0734
343.490 66.8323
343.510 72.2425
343.530 78.3873
343.569 93.3789
343.609 113.285
343.649 140.138
343.689 177.428
343.729 230.383
343.769 308.303
343.809 426.065
343.849 609.861
343.889 896.512
343.945 1504.09
344.000 1977.75
344.028 1910.78
344.056 1668.78
344.111 1102.40
344.147 831.944
344.183 640.924
344.254 410.670
344.325 288.115
344.397 216.607
344.468 171.433
344.540 141.148
344.682 104.110
344.825 82.9808
344.968 69.6749
345.254 54.2284
345.540 45.7560
345.825 40.4975
346.111 36.9493
346.397 34.4067
346.968 31.0190
347.539 28.8670
348.111 27.3745
348.682 26.2732
349.825 24.7400
350.968 23.7041
353.253 22.3447
355.539 21.4476
357.824 20.7809
362.396 19.8022
366.967 19.0728
371.538 18.4757
380.680 17.4735
389.822 16.5203
394.393 15.9804
398.965 15.3217
401.250 14.9123
403.536 14.4155
405.821 13.7857
408.107 12.9443
409.250 12.4037
410.392 11.7505
411.535 10.9537
412.678 9.99526
413.249 9.47381
413.821 8.97932
414.392 8.65406
414.964 8.91987
415.249 9.62743
415.535 11.1939
415.678 12.5392
415.749 13.4225
415.821 14.4872
415.892 15.7757
415.964 17.3358
415.999 18.2383
416.035 19.2352
416.071 20.3380
416.106 21.5597
416.178 24.4263
416.249 27.9774
416.321 32.4194
416.392 38.0312
416.464 45.2145
416.535 54.5081
416.606 66.7380
416.678 83.1331
416.749 105.636
416.821 137.253
416.892 183.142
416.963 252.301
417.035 361.335
417.106 542.439
417.178 859.732
417.249 1430.60
417.325 2411.04
417.400 3174.84
417.476 2675.57
417.551 1761.43
417.632 1106.32
417.714 741.218
417.795 530.622
417.876 401.326
417.957 316.725
418.039 258.595
418.201 185.863
418.363 143.551
418.526 116.611
418.851 85.1145
419.176 67.7915
419.501 57.0709
419.826 49.8752
420.150 44.7548
420.800 38.0154
421.450 33.8201
422.100 30.9763
422.750 28.9294
424.049 26.1887
425.349 24.4419
426.649 23.2315
427.948 22.3422
430.548 21.1188
433.147 20.3113
435.746 19.7335
438.346 19.2962
443.544 18.6700
448.743 18.2350
459.140 17.6526
459.140 46.8719
526.747 44.0130
594.355 41.6441
729.570 37.9113
864.785 35.0702
1000.00 32.8120
1281.25 30.7796
1562.50 29.2432
1843.75 28.0207
2125.00 27.0129
2687.50 25.4248
3250.00 24.2082
4375.00 22.4210
5500.00 21.1355
6625.00 20.1446
7750.00 19.3457
10000.0 18.1144
12812.5 17.3023
15625.0 16.6783
21250.0 15.7557
26875.0 15.0855
32500.0 14.5641
43750.0 13.7846
55000.0 13.2129
77500.0 12.4003
100000 11.8289
125000 11.0144
150000 10.3907
200000 9.47762
275000 8.56016
350000 7.92494
413898 7.51117
413898 7.51117
413900 7.51116
420000 7.47615
425000 7.44796
440000 7.36575
460000 7.26176
500000 7.07084
593539 6.56721
600000 6.53665
649020 6.33356
692820 6.17680
800000 5.83675
1.00000E+06 5.49361
1.05380E+06 5.47138
1.05384E+06 5.47136
1.05384E+06 5.47135
1.05384E+06 5.47135
1.07836E+06 5.46168
1.09320E+06 5.45596
1.09324E+06 5.45594
1.09324E+06 5.45594
1.09324E+06 5.45593
1.10288E+06 5.45227
1.13243E+06 5.44127
1.15192E+06 5.43421
1.17162E+06 5.42721
1.25000E+06 5.40075
1.37500E+06 5.47489
1.40864E+06 5.49386
1.40864E+06 5.49386
1.40870E+06 5.49389
1.42663E+06 5.50385
1.42663E+06 5.50384
1.45435E+06 5.51912
1.46331E+06 5.52387
1.50000E+06 5.54348
1.55639E+06 5.61656
1.55639E+06 5.61656
1.62062E+06 5.69744
1.64390E+06 5.72629
1.64393E+06 5.72633
1.64394E+06 5.72634
1.64394E+06 5.72634
1.68843E+06 5.78010
1.69188E+06 5.78419
1.69190E+06 5.78422
1.73041E+06 5.82922
1.73294E+06 5.83214
1.75000E+06 5.85164
1.76892E+06 5.87456
1.76897E+06 5.87462
1.82196E+06 5.93796
1.82505E+06 5.94158
1.82505E+06 5.94158
1.84184E+06 5.96107
1.84420E+06 5.96382
1.84425E+06 5.96388
1.84425E+06 5.96388
1.84595E+06 5.96587
1.85661E+06 5.97822
1.85661E+06 5.97822
1.86827E+06 5.99173
1.86827E+06 5.99173
1.88318E+06 6.00893
1.90898E+06 6.03791
1.91109E+06 6.04025
1.91943E+06 6.04950
1.91943E+06 6.04950
1.92054E+06 6.05073
1.92074E+06 6.05095
1.92212E+06 6.05248
2.00000E+06 6.13240
2.25000E+06 6.43404
2.50000E+06 6.71641
2.75000E+06 6.91609
3.00000E+06 7.10355
3.50000E+06 7.21457
3.75000E+06 7.26481
4.00000E+06 7.31213
4.45173E+06 7.16414
4.50000E+06 7.14948
4.90347E+06 7.03304
4.98116E+06 7.01195
5.00000E+06 7.00689
5.50000E+06 6.69694
5.75000E+06 6.55710
6.00000E+06 6.42596
6.56970E+06 6.06514
7.00000E+06 5.82490
7.13941E+06 5.75218
7.21711E+06 5.71243
7.56970E+06 5.54166
8.00000E+06 5.34987
8.34298E+06 5.27787
8.34298E+06 5.27787
8.47767E+06 5.24037
8.75724E+06 5.17086
9.17149E+06 5.08691
9.58575E+06 5.02340
1.00000E+07 4.97811
1.02500E+07 4.97235
1.05000E+07 4.96899
1.07500E+07 4.96792
1.10000E+07 4.96902
1.12500E+07 4.97220
1.15000E+07 4.97737
1.17500E+07 4.98444
1.20000E+07 4.99333
1.22500E+07 5.02141
1.25000E+07 5.04974
1.30000E+07 5.10704
1.35000E+07 5.16518
1.40000E+07 5.22405
1.43398E+07 5.27415
1.46797E+07 5.32414
1.50195E+07 5.37400
1.53593E+07 5.42375
1.57874E+07 5.48426
1.60000E+07 5.51424
1.70000E+07 5.59679
1.80000E+07 5.67779
1.90000E+07 5.68589
2.00000E+07 5.69418
2.00000E+07 5.65930
2.10000E+07 5.63636
2.18159E+07 5.60163
2.20000E+07 5.59180
2.20287E+07 5.59021
2.30000E+07 5.52909
2.32132E+07 5.51384
2.40000E+07 5.45200
2.42460E+07 5.43124
2.50000E+07 5.36572
2.52393E+07 5.34401
2.60000E+07 5.27080
2.61673E+07 5.25392
2.70000E+07 5.16983
2.80000E+07 5.06730
2.85029E+07 5.01504
2.85635E+07 5.00877
2.90000E+07 4.96396
3.00000E+07 4.86570
3.09297E+07 4.78126
3.10000E+07 4.77511
3.11675E+07 4.76058
3.20000E+07 4.69083
3.30000E+07 4.61200
3.35427E+07 4.57122
3.40000E+07 4.53786
3.44094E+07 4.50872
3.50000E+07 4.46780
3.60000E+07 4.40596
3.70000E+07 4.35532
3.74411E+07 4.33600
3.74597E+07 4.33523
3.75464E+07 4.33164
3.80000E+07 4.31386
3.90000E+07 4.27993
4.00000E+07 4.25210
4.02019E+07 4.24719
4.05957E+07 4.23857
4.10000E+07 4.23100
4.11027E+07 4.22928
4.20000E+07 4.21756
4.30000E+07 4.21107
4.40000E+07 4.21096
4.42294E+07 4.21177
4.45703E+07 4.21355
4.50000E+07 4.21670
4.60000E+07 4.22564
4.70000E+07 4.23615
4.77976E+07 4.24634
4.80000E+07 4.24924
4.90000E+07 4.26579
4.97911E+07 4.28186
5.00000E+07 4.28660
5.10000E+07 4.30970
5.20000E+07 4.33264
5.28676E+07 4.35247
5.30000E+07 4.35549
5.36689E+07 4.37075
5.40000E+07 4.37830
5.50000E+07 4.40110
5.60000E+07 4.42395
5.64402E+07 4.43400
5.70000E+07 4.44673
5.70781E+07 4.44850
5.80000E+07 4.46927
5.90000E+07 4.49141
6.00000E+07 4.51300
6.04916E+07 4.52322
6.08436E+07 4.53027
6.10000E+07 4.53334
6.20000E+07 4.55201
6.30000E+07 4.56933
6.40000E+07 4.58558
6.47714E+07 4.59753
6.50000E+07 4.60100
6.60000E+07 4.61502
6.70000E+07 4.62710
6.80000E+07 4.63750
6.90000E+07 4.64649
7.00000E+07 4.65430
7.01100E+07 4.65509
7.10000E+07 4.66083
7.20000E+07 4.66588
7.30000E+07 4.66953
7.40000E+07 4.67184
7.46368E+07 4.67266
7.50000E+07 4.67290
7.60000E+07 4.67277
7.70000E+07 4.67148
7.77310E+07 4.66980
7.80000E+07 4.66904
7.90000E+07 4.66547
8.00000E+07 4.66080
8.10000E+07 4.65515
8.20000E+07 4.64863
8.22749E+07 4.64669
8.30000E+07 4.64123
8.40000E+07 4.63292
8.50000E+07 4.62370
8.60000E+07 4.61372
8.70000E+07 4.60310
8.80000E+07 4.59181
8.90000E+07 4.57982
9.00000E+07 4.56710
9.10000E+07 4.55376
9.20000E+07 4.53993
9.30000E+07 4.52567
9.40000E+07 4.51101
9.50000E+07 4.49600
9.60000E+07 4.48063
9.70000E+07 4.46485
9.80000E+07 4.44867
9.90000E+07 4.43209
1.00000E+08 4.41510
1.02000E+08 4.38039
1.04000E+08 4.34504
1.06000E+08 4.30907
1.08000E+08 4.27251
1.10000E+08 4.23540
1.12000E+08 4.19803
1.14000E+08 4.16064
1.16000E+08 4.12318
1.18000E+08 4.08561
1.20000E+08 4.04790
1.22000E+08 4.01047
1.24000E+08 3.97362
1.26000E+08 3.93715
1.28000E+08 3.90089
1.30000E+08 3.86470
1.32000E+08 3.82886
1.34000E+08 3.79370
1.36000E+08 3.75916
1.38000E+08 3.72517
1.40000E+08 3.69170
1.42000E+08 3.65882
1.44000E+08 3.62660
1.46000E+08 3.59497
1.48000E+08 3.56389
1.50000E+08 3.53330