Pb-204(n,tot) ENDF/B-VII.1
Energy(eV) XS(b)
1.00000E-05 44.4301
1.25000E-05 40.9214
1.50000E-05 38.3314
2.00000E-05 34.6960
2.75000E-05 31.2368
3.50000E-05 28.9603
4.25000E-05 27.3168
5.00000E-05 26.0586
6.25000E-05 24.4896
7.50000E-05 23.3313
0.000100000 21.7055
0.000125000 20.5960
0.000150000 19.7770
0.000200000 18.6274
0.000275000 17.5336
0.000350000 16.8137
0.000425000 16.2940
0.000500000 15.8962
0.000625000 15.4000
0.000750000 15.0338
0.00100000 14.5197
0.00125000 14.1688
0.00150000 13.9098
0.00200000 13.5463
0.00275000 13.2004
0.00350000 12.9728
0.00425000 12.8085
0.00500000 12.6827
0.00625000 12.5258
0.00750000 12.4100
0.0100000 12.2474
0.0125000 12.1364
0.0150000 12.0545
0.0200000 11.9396
0.0253000 11.8572
0.0314750 11.7889
0.0376500 11.7381
0.0500000 11.6665
0.0625000 11.6169
0.0750000 11.5802
0.100000 11.5288
0.125000 11.4937
0.150000 11.4678
0.200000 11.4315
0.275000 11.3969
0.350000 11.3741
0.500000 11.3450
0.750000 11.3177
1.00000 11.3014
1.50000 11.2820
2.00000 11.2703
2.75000 11.2592
3.50000 11.2518
5.00000 11.2422
7.50000 11.2328
10.0000 11.2270
15.0000 11.2194
20.0000 11.2144
27.5000 11.2087
35.0000 11.2043
50.0000 11.1969
75.0000 11.1867
100.000 11.1774
150.000 11.1597
200.000 11.1420
269.959 11.1165
339.917 11.0896
409.876 11.0611
427.365 11.0539
444.855 11.0468
453.600 11.0438
457.972 11.0427
462.344 11.0423
466.717 11.0437
468.903 11.0460
471.089 11.0511
472.182 11.0557
473.275 11.0630
474.369 11.0754
475.462 11.0980
476.008 11.1171
476.555 11.1461
477.101 11.1930
477.648 11.2764
477.921 11.3446
478.194 11.4460
478.468 11.6054
478.741 11.8773
479.014 12.3975
479.151 12.8557
479.288 13.5834
479.424 14.8355
479.561 17.2279
479.629 19.3033
479.697 22.4947
479.766 27.5849
479.834 35.7756
479.917 50.5576
480.000 60.3867
480.084 50.4706
480.167 35.6374
480.245 26.6700
480.322 21.4453
480.400 18.3369
480.477 16.3948
480.632 14.2360
480.787 13.1469
480.942 12.5270
481.097 12.1429
481.407 11.7125
481.717 11.4902
482.026 11.3608
482.336 11.2790
482.646 11.2240
483.266 11.1569
483.886 11.1191
484.506 11.0956
485.125 11.0800
486.365 11.0611
487.604 11.0504
488.844 11.0436
490.084 11.0390
492.563 11.0330
495.042 11.0292
500.000 11.0243
507.813 11.0189
515.625 11.0145
531.250 11.0064
562.500 10.9906
625.000 10.9576
750.000 10.8827
1000.00 10.6760
1166.40 10.3915
1249.60 10.2015
1270.40 10.1465
1291.19 10.0883
1301.59 10.0590
1306.79 10.0449
1311.99 10.0324
1317.19 10.0242
1319.79 10.0244
1322.39 10.0317
1323.69 10.0408
1324.99 10.0570
1326.29 10.0863
1327.59 10.1427
1328.24 10.1913
1328.89 10.2657
1329.54 10.3873
1330.19 10.6040
1330.52 10.7816
1330.84 11.0452
1331.17 11.4596
1331.49 12.1646
1331.82 13.5067
1331.98 14.6867
1332.14 16.5397
1332.31 19.7192
1332.47 25.6806
1332.55 30.7725
1332.63 38.4828
1332.71 50.5386
1332.79 69.4912
1332.90 105.282
1333.00 128.793
1333.10 104.940
1333.21 69.2355
1333.29 49.4725
1333.38 37.2536
1333.47 29.6209
1333.55 24.7166
1333.72 18.9984
1333.89 16.0281
1334.07 14.2904
1334.24 13.2032
1334.58 11.9662
1334.92 11.3161
1335.26 10.9353
1335.61 10.6919
1335.95 10.5278
1336.64 10.3254
1337.32 10.2103
1338.01 10.1380
1338.69 10.0893
1340.06 10.0288
1341.43 9.99309
1342.80 9.96928
1344.17 9.95191
1346.91 9.92707
1349.65 9.90872
1355.13 9.87965
1360.61 9.85436
1366.10 9.83022
1377.06 9.78224
1420.91 9.56775
1464.76 9.29030
1508.60 8.90619
1530.53 8.64949
1552.45 8.32575
1574.38 7.90290
1596.30 7.32650
1607.27 6.95325
1618.23 6.50205
1629.19 5.95469
1640.15 5.30740
1645.63 4.96582
1651.11 4.65879
1656.60 4.49775
1657.97 4.50882
1659.34 4.55452
1660.71 4.64614
1661.39 4.71371
1662.08 4.79885
1662.76 4.90449
1663.45 5.03359
1664.13 5.19013
1664.82 5.37867
1665.50 5.60463
1666.19 5.87448
1667.56 6.57854
1668.93 7.57561
1670.30 8.98969
1671.67 11.0139
1673.04 13.9535
1674.41 18.3150
1675.78 24.9595
1677.15 35.4691
1678.52 52.9223
1679.89 83.8690
1680.58 108.517
1681.26 143.536
1681.95 194.701
1682.63 271.632
1683.32 390.082
1684.00 572.930
1685.00 981.708
1686.00 1313.28
1687.00 1123.70
1688.00 750.805
1688.61 578.416
1689.22 453.203
1690.44 297.219
1691.66 211.326
1692.88 160.030
1694.09 127.051
1695.31 104.600
1697.75 76.7363
1700.19 60.5822
1702.63 50.2785
1707.50 38.1600
1712.38 31.4216
1717.25 27.2006
1722.13 24.3354
1727.00 22.2749
1736.75 19.5258
1746.50 17.7848
1756.25 16.5870
1766.00 15.7133
1785.50 14.5233
1805.00 13.7473
1824.50 13.1975
1844.00 12.7838
1883.00 12.1924
1922.00 11.7757
1961.00 11.4517
2000.00 11.1796
2059.64 10.8118
2119.27 10.4559
2178.91 10.0667
2238.54 9.58590
2268.36 9.28135
2298.18 8.90581
2327.99 8.42123
2357.81 7.76064
2372.72 7.32851
2387.63 6.79744
2402.54 6.13316
2417.45 5.29622
2424.90 4.80770
2432.35 4.28954
2439.81 3.80399
2443.54 3.62619
2445.40 3.57319
2447.26 3.55751
2449.13 3.59403
2450.06 3.63809
2450.99 3.70365
2451.92 3.79472
2452.86 3.91611
2453.79 4.07363
2454.72 4.27409
2456.58 4.84121
2458.45 5.71194
2460.31 7.03424
2462.17 9.04069
2464.04 12.1202
2465.90 16.9360
2467.76 24.7051
2469.63 37.7641
2471.49 61.0341
2472.42 79.5549
2473.35 105.716
2474.29 143.663
2475.22 200.013
2476.15 285.306
2477.08 414.250
2478.54 724.990
2480.00 989.401
2481.47 862.620
2482.93 586.276
2484.67 364.856
2486.41 245.352
2488.16 178.022
2489.90 137.126
2491.64 110.490
2493.38 92.1639
2496.86 69.1066
2500.35 55.5427
2503.83 46.7807
2510.79 36.3328
2517.76 30.4280
2524.72 26.6823
2531.69 24.1126
2538.66 22.2488
2552.59 19.7363
2566.52 18.1272
2580.45 17.0106
2594.38 16.1908
2622.24 15.0665
2650.11 14.3297
2677.97 13.8085
2684.93 13.7021
2691.90 13.6061
2695.38 13.5649
2698.87 13.5378
2700.61 13.5416
2701.48 13.5565
2702.35 13.5924
2703.22 13.6793
2703.65 13.7680
2704.09 13.9276
2704.53 14.2527
2704.74 14.5552
2704.96 15.0598
2705.18 16.0008
2705.29 16.8035
2705.40 18.0226
2705.50 20.0319
2705.61 23.5939
2705.72 30.5354
2705.78 36.3955
2705.83 44.8354
2705.92 63.6145
2706.00 76.1098
2706.09 63.4073
2706.17 44.6854
2706.24 34.6907
2706.31 28.3521
2706.37 24.3060
2706.44 21.6371
2706.57 18.5150
2706.71 16.8580
2706.84 15.8844
2706.98 15.2670
2707.24 14.5599
2707.51 14.1861
2707.78 13.9646
2708.32 13.7249
2708.85 13.6031
2709.39 13.5314
2710.46 13.4512
2711.53 13.4063
2712.60 13.3758
2714.75 13.3329
2719.04 13.2714
2723.32 13.2202
2731.90 13.1284
2740.47 13.0444
2774.77 12.7588
2843.38 12.3416
2911.98 12.0447
2980.58 11.8176
3117.78 11.4819
3254.99 11.2338
3529.40 10.8625
3666.60 10.7101
3700.90 10.6743
3735.20 10.6395
3752.35 10.6227
3769.50 10.6073
3778.08 10.6014
3786.65 10.6005
3790.94 10.6070
3795.23 10.6331
3797.37 10.6728
3798.44 10.7130
3799.52 10.7865
3800.59 10.9408
3801.12 11.0906
3801.66 11.3544
3801.93 11.5688
3802.20 11.8845
3802.46 12.3763
3802.73 13.2028
3803.00 14.7472
3803.13 16.0742
3803.27 18.1294
3803.40 21.5340
3803.54 27.6839
3803.60 32.7167
3803.67 40.0286
3803.74 50.8803
3803.80 66.6648
3803.90 100.547
3804.00 122.863
3804.10 100.257
3804.20 66.7597
3804.31 42.3257
3804.43 30.0094
3804.55 23.4495
3804.67 19.6540
3804.78 17.2923
3804.90 15.7337
3805.13 13.8857
3805.37 12.8699
3805.60 12.2568
3806.07 11.5878
3806.54 11.2490
3807.00 11.0548
3807.94 10.8514
3808.87 10.7524
3809.81 10.6967
3811.68 10.6389
3815.42 10.5939
3819.16 10.5754
3826.63 10.5572
3834.11 10.5460
3849.07 10.5287
3864.03 10.5133
3923.85 10.4556
3983.68 10.3999
4043.51 10.3454
4163.17 10.2390
4223.00 10.1872
4252.91 10.1631
4260.39 10.1587
4267.87 10.1581
4271.61 10.1632
4275.35 10.1836
4277.22 10.2147
4278.15 10.2461
4279.08 10.3035
4280.02 10.4240
4280.49 10.5410
4280.95 10.7465
4281.42 11.1596
4281.66 11.5424
4281.89 12.1810
4282.12 13.3746
4282.24 14.3966
4282.36 15.9569
4282.47 18.5442
4282.59 23.1770
4282.71 32.3491
4282.77 40.2206
4282.82 51.7109
4282.91 76.8477
4283.00 93.3879
4283.09 76.6257
4283.18 51.8098
4283.23 40.9791
4283.28 33.4694
4283.39 24.3907
4283.50 19.5698
4283.60 16.7854
4283.71 15.0547
4283.81 13.9133
4284.03 12.5566
4284.24 11.8127
4284.45 11.3662
4284.88 10.8779
4285.30 10.6306
4285.72 10.4890
4286.57 10.3405
4287.42 10.2682
4288.27 10.2274
4289.97 10.1851
4293.36 10.1519
4296.76 10.1381
4303.55 10.1242
4310.34 10.1155
4337.50 10.0893
4391.82 10.0421
4500.46 9.94982
4609.10 9.85851
4636.26 9.83623
4663.42 9.81536
4677.00 9.80698
4690.58 9.80467
4697.37 9.81202
4700.77 9.82240
4704.16 9.84392
4707.56 9.89348
4709.25 9.94426
4710.95 10.0375
4712.65 10.2354
4713.50 10.4291
4714.35 10.7730
4714.77 11.0556
4715.19 11.4741
4715.62 12.1349
4716.04 13.2600
4716.47 15.4180
4716.68 17.3145
4716.89 20.3264
4717.10 25.4993
4717.32 35.3720
4717.42 43.9203
4717.53 57.0403
4717.63 77.9177
4717.74 111.433
4717.87 172.567
4718.00 213.425
4718.13 172.797
4718.26 111.724
4718.40 70.8027
4718.54 48.6639
4718.67 36.2379
4718.81 28.8270
4718.95 24.0561
4719.09 20.8694
4719.36 16.9882
4719.64 14.8202
4719.91 13.5005
4720.46 12.0405
4721.01 11.2938
4721.56 10.8630
4722.11 10.5916
4722.66 10.4096
4723.76 10.1879
4724.86 10.0631
4727.07 9.93419
4729.27 9.87169
4731.47 9.83618
4735.87 9.79826
4744.67 9.76561
4753.48 9.74901
4771.09 9.72729
4788.70 9.70982
4859.13 9.64712
4929.57 9.58603
5000.00 9.52475
5212.07 9.33615
5424.14 9.13768
5848.28 8.68395
6060.34 8.39912
6272.41 8.01523
6378.45 7.73380
6431.47 7.54282
6484.48 7.28789
6537.50 6.91132
6564.01 6.63665
6590.52 6.25422
6603.77 5.99799
6617.03 5.67469
6630.28 5.25294
6643.53 4.68019
6650.16 4.31117
6656.79 3.86753
6663.42 3.33313
6670.04 2.70596
6676.67 2.07328
6678.33 1.95704
6679.98 1.88960
6681.64 1.90577
6683.30 2.06408
6684.13 2.22604
6684.95 2.46668
6685.78 2.81250
6686.61 3.29821
6687.44 3.97465
6688.27 4.91048
6689.10 6.20773
6689.92 8.01560
6690.75 10.5625
6691.58 14.1895
6692.41 19.4575
6693.24 27.2527
6694.07 39.1024
6694.89 57.5454
6695.72 86.9224
6696.55 133.880
6697.78 246.850
6699.00 353.335
6699.61 354.896
6700.23 321.423
6701.45 227.060
6702.27 176.899
6703.08 140.456
6704.71 95.3400
6706.34 70.5192
6707.97 55.6053
6709.60 45.9192
6711.23 39.2451
6714.49 30.7934
6717.76 25.7604
6721.02 22.4656
6727.54 18.4634
6734.06 16.1480
6740.58 14.6490
6747.10 13.6026
6753.63 12.8318
6766.67 11.7723
6779.71 11.0775
6792.76 10.5851
6805.80 10.2164
6831.89 9.69651
6857.97 9.34215
6910.15 8.87480
6962.32 8.56341
7014.50 8.32667
7118.85 7.95642
7327.54 7.34053
7536.24 6.68381
7640.59 6.29027
7744.94 5.82027
7849.29 5.23447
7953.64 4.46949
8005.81 3.98935
8057.98 3.42179
8110.16 2.74969
8162.33 1.97460
8214.51 1.20523
8227.55 1.06401
8234.07 1.01270
8240.60 0.979520
8247.12 0.969741
8253.64 0.990164
8260.16 1.04955
8263.42 1.09729
8266.68 1.15927
8273.20 1.33427
8279.73 1.59426
8286.25 1.96557
8292.77 2.48364
8299.29 3.19719
8305.81 4.17337
8312.34 5.50663
8318.86 7.33149
8325.38 9.84423
8331.90 13.3341
8338.42 18.2368
8344.94 25.2187
8351.47 35.3169
8357.99 50.1382
8364.51 72.1139
8371.03 104.575
8383.02 199.754
8395.00 294.148
8401.00 299.181
8406.99 274.138
8418.98 197.764
8429.57 144.808
8440.16 109.808
8450.75 86.7990
8461.34 71.1671
8482.52 52.0316
8503.70 41.1641
8524.88 34.3281
8546.06 29.6956
8588.43 23.8931
8630.79 20.4439
8673.15 18.1706
8715.51 16.5611
8757.87 15.3598
8842.59 13.6752
8927.32 12.5313
9012.04 11.6803
9054.40 11.3241
9075.58 11.1642
9080.88 11.1311
9086.17 11.1130
9088.82 11.1242
9091.47 11.1918
9092.79 11.3007
9094.11 11.6104
9094.78 12.0169
9095.11 12.3975
9095.44 13.0404
9095.77 14.2482
9095.93 15.2939
9096.10 16.9088
9096.27 19.6119
9096.43 24.4908
9096.51 28.5267
9096.60 34.3387
9096.68 43.1092
9096.76 56.0081
9096.88 83.1397
9097.00 101.330
9097.12 83.3836
9097.24 56.3123
9097.37 37.5794
9097.51 27.6992
9097.64 22.2582
9097.77 19.0557
9097.90 17.0117
9098.04 15.6553
9098.30 14.0127
9098.57 13.0994
9098.83 12.5447
9099.36 11.9311
9099.89 11.6159
9100.42 11.4326
9101.48 11.2360
9103.61 11.0761
9105.73 11.0070
9109.97 10.9360
9114.21 10.8905
9131.18 10.7542
9165.12 10.5152
9233.00 10.0612
9300.88 9.60357
9368.77 9.09744
9436.65 8.45957
9470.59 8.03622
9504.53 7.47748
9521.50 7.11563
9538.47 6.66862
9555.44 6.09715
9572.41 5.33664
9580.90 4.85434
9589.38 4.28140
9597.87 3.60056
9606.35 2.81332
9614.84 2.02522
9619.08 1.77923
9621.20 1.77051
9623.32 1.90624
9624.38 2.05560
9625.44 2.28059
9626.50 2.60355
9627.56 3.05362
9628.62 3.67135
9629.68 4.50928
9630.75 5.64267
9631.81 7.17147
9632.87 9.24211
9633.93 12.0577
9634.99 15.9121
9636.05 21.2264
9637.11 28.6322
9638.17 39.0121
9639.23 53.6413
9640.29 74.0953
9641.47 105.583
9642.65 146.334
9645.00 222.473
9646.18 229.702
9647.36 213.491
9649.71 158.059
9652.45 108.419
9655.18 79.1716
9657.92 61.6568
9660.66 50.4957
9663.39 42.9388
9666.13 37.5621
9671.60 30.5277
9677.08 26.1930
9682.55 23.2852
9693.50 19.6620
9704.44 17.5094
9715.39 16.0879
9726.34 15.0794
9737.28 14.3260
9759.18 13.2720
9781.07 12.5653
9802.96 12.0541
9824.86 11.6638
9868.64 11.0987
9912.43 10.7003
10000.0 10.1529
10085.5 9.81540
10171.1 9.56041
10342.2 9.17931
10513.2 8.88737
10684.3 8.64001
11026.5 8.19916
11197.5 7.98135
11283.1 7.86938
11325.9 7.81684
11336.5 7.80866
11347.2 7.81371
11352.6 7.83499
11357.9 7.91014
11360.6 8.02114
11361.9 8.13258
11363.3 8.33193
11364.6 8.74650
11365.3 9.14135
11365.9 9.80861
11366.6 11.1141
11367.0 12.2975
11367.3 14.1404
11367.6 17.4542
11368.0 23.7198
11368.1 29.4197
11368.3 37.7520
11368.5 52.0935
11368.6 74.1495
11368.8 115.346
11369.0 141.197
11369.2 113.663
11369.4 74.7856
11369.6 49.5906
11369.8 35.8217
11370.0 27.2183
11370.1 22.1490
11370.5 16.3541
11370.9 13.4969
11371.2 11.8173
11371.6 10.7784
11372.3 9.62678
11373.1 9.02121
11373.8 8.67215
11375.3 8.29728
11376.7 8.11140
11378.2 8.00514
11381.2 7.89298
11387.0 7.80307
11392.9 7.76444
11404.7 7.72473
11416.4 7.69922
11463.5 7.62116
11510.5 7.54799
11557.5 7.47341
11745.7 7.14259
11933.8 6.72948
12121.9 6.17355
12216.0 5.80817
12310.0 5.35247
12404.1 4.76467
12498.2 3.97605
12545.2 3.47300
12592.2 2.87296
12639.3 2.15604
12686.3 1.31907
12733.3 0.456011
12745.1 0.280358
12751.0 0.208663
12756.8 0.152199
12762.7 0.115429
12768.6 0.104009
12774.5 0.125140
12780.3 0.187898
12786.2 0.304357
12792.1 0.489853
12798.0 0.764517
12803.9 1.15487
12809.7 1.69614
12815.6 2.43562
12821.5 3.43736
12827.4 4.78640
12833.3 6.60842
12839.1 9.07084
12845.0 12.4124
12850.9 16.9717
12856.8 23.2286
12862.7 31.8560
12868.5 43.7654
12874.4 60.0608
12888.7 123.408
12903.0 192.594
12910.2 200.825
12917.3 188.225
12931.6 141.227
12945.5 103.753
12959.3 79.2435
12973.1 63.3228
12987.0 52.6000
13000.8 45.0489
13014.7 39.5279
13042.4 32.0988
13070.1 27.4047
13097.7 24.2053
13153.1 20.1655
13208.5 17.7400
13263.9 16.1303
13319.3 14.9876
13333.1 14.7538
13346.9 14.5418
13353.9 14.4496
13360.8 14.3857
13364.2 14.3895
13367.7 14.4912
13369.4 14.6706
13370.3 14.8569
13371.2 15.1889
13372.0 15.8701
13372.5 16.4933
13372.9 17.5268
13373.3 19.4725
13373.6 21.1218
13373.8 23.4951
13374.0 27.4661
13374.2 33.9310
13374.4 46.4265
13374.6 69.3967
13374.8 102.839
13375.0 125.368
13375.2 103.395
13375.4 70.0898
13375.6 49.5156
13375.7 37.6135
13375.9 30.5739
13376.1 26.3851
13376.4 21.5231
13376.8 19.0430
13377.2 17.5886
13377.5 16.7103
13378.2 15.7137
13378.9 15.1837
13379.6 14.8742
13381.0 14.5347
13383.8 14.2472
13386.6 14.1163
13392.3 13.9732
13397.9 13.8769
13409.1 13.7224
13420.4 13.5870
13442.9 13.3427
13465.3 13.1222
13555.3 12.4033
13645.2 11.8636
13735.2 11.4401
13915.1 10.8078
14095.0 10.3396
14274.9 9.94673
14454.8 9.54517
14544.7 9.28703
14589.7 9.11706
14634.7 8.89113
14657.2 8.74222
14679.7 8.55393
14702.2 8.30393
14724.6 7.94972
14735.9 7.70797
14747.1 7.39812
14758.4 6.98481
14769.6 6.40447
14775.2 6.01576
14780.9 5.53031
14786.5 4.90816
14792.1 4.09067
14797.7 3.00216
14800.5 2.34560
14803.3 1.66009
14806.1 1.14756
14807.6 1.16014
14808.3 1.32206
14809.0 1.65588
14809.7 2.25727
14810.4 3.24229
14811.1 4.82505
14811.8 7.33949
14812.5 11.4035
14813.2 17.8192
14813.9 28.1112
14814.6 44.5170
14815.2 65.8601
14815.8 94.4024
14817.0 151.166
14817.6 159.683
14818.2 151.350
14819.4 116.120
14820.5 88.5005
14821.6 69.7357
14822.7 56.9850
14823.8 48.2389
14826.0 37.2391
14828.2 30.8339
14830.4 26.7238
14832.6 23.8929
14836.9 20.2893
14841.3 18.1022
14845.7 16.6447
14850.1 15.6069
14854.5 14.8331
14863.2 13.7526
14872.0 13.0370
14880.7 12.5274
14889.5 12.1457
14907.0 11.6106
14924.5 11.2521
14942.0 10.9935
14959.5 10.7973
14994.5 10.5161
15029.5 10.3215
15099.5 10.0619
15169.5 9.88945
15239.6 9.76132
15379.6 9.57374
15519.7 9.43447
15659.7 9.32146
15799.7 9.22477
15869.8 9.18076
15904.8 9.16009
15922.3 9.15335
15931.0 9.16646
15935.4 9.24094
15936.5 9.31893
15937.6 9.52821
15938.1 9.79949
15938.7 10.4538
15939.0 11.2389
15939.2 12.8611
15939.4 14.5080
15939.5 17.1465
15939.6 22.4915
15939.8 32.2720
15939.9 46.9439
15940.0 55.7621
15940.1 45.9326
15940.2 32.6292
15940.3 24.5500
15940.4 20.0458
15940.6 15.2320
15940.8 12.8783
15941.0 11.7012
15941.3 10.5329
15941.7 10.0244
15942.4 9.58247
15943.2 9.40799
15944.6 9.26915
15946.1 9.21576
15952.0 9.15699
15963.7 9.13413
15987.3 9.11591
16034.3 9.08839
16128.3 9.03827
16316.4 8.94628
16692.5 8.78281
17068.6 8.63533
17256.7 8.56452
17350.7 8.52941
17397.7 8.51277
17421.2 8.50962
17433.0 8.53093
17438.8 8.63301
17440.3 8.73688
17441.8 9.01618
17442.5 9.37745
17443.2 10.2581
17443.6 11.2929
17444.0 13.4459
17444.2 15.6878
17444.3 19.4363
17444.5 26.5632
17444.6 32.5152
17444.7 41.5480
17444.9 61.1465
17445.0 74.9223
17445.2 61.4039
17445.3 41.8668
17445.4 32.8221
17445.5 26.8477
17445.7 19.3982
17445.9 15.5852
17446.1 13.4369
17446.4 11.2686
17446.8 10.2633
17447.6 9.39352
17448.3 9.03853
17449.9 8.75684
17451.4 8.64946
17457.4 8.53475
17469.6 8.49864
17493.8 8.48046
17542.4 8.45972
17590.9 8.44630
17603.0 8.44956
17615.1 8.47088
17621.2 8.50756
17627.3 8.61954
17630.3 8.77781
17631.8 8.93414
17633.3 9.21042
17634.9 9.77361
17635.6 10.2988
17636.4 11.1678
17637.1 12.8035
17637.5 14.2019
17637.9 16.3526
17638.3 19.8756
17638.7 26.1211
17639.0 38.2630
17639.2 48.5824
17639.4 62.4975
17639.7 94.9800
17640.0 116.841
17640.3 94.7626
17640.6 62.7622
17640.8 46.5904
17641.0 36.3391
17641.3 29.4549
17641.5 24.7223
17641.9 18.9367
17642.3 15.7261
17642.7 13.7450
17643.2 12.4965
17644.0 11.0330
17644.8 10.2349
17645.7 9.76225
17647.4 9.24350
17649.1 8.98098
17650.8 8.82929
17654.1 8.66889
17660.9 8.54266
17667.6 8.49285
17681.1 8.45090
17694.6 8.43143
17721.6 8.40966
17748.6 8.39474
17802.6 8.37022
17856.6 8.34776
17964.6 8.30381
18072.6 8.25869
18180.6 8.21022
18288.6 8.15386
18342.6 8.11843
18369.6 8.09658
18396.6 8.06941
18423.6 8.03181
18437.1 8.00534
18450.6 7.96880
18464.1 7.91248
18470.9 7.86977
18477.6 7.80806
18484.4 7.70948
18487.8 7.63333
18491.1 7.52337
18494.5 7.34871
18496.2 7.21645
18497.9 7.03099
18499.6 6.74935
18501.3 6.28386
18502.1 5.92912
18502.9 5.49691
18503.4 5.33079
18503.8 5.48295
18504.0 5.96587
18504.2 7.21241
18504.4 10.3242
18504.5 13.5329
18504.6 18.2336
18504.7 24.9545
18504.8 33.2156
18505.0 50.8727
18505.1 53.6386
18505.2 51.2747
18505.4 40.7363
18505.5 34.0288
18505.7 28.6864
18505.8 24.8271
18505.9 22.0112
18506.2 18.3049
18506.5 16.0467
18507.1 13.5157
18507.6 12.1853
18508.2 11.3530
18508.7 10.8042
18509.8 10.1103
18510.9 9.69607
18512.0 9.42154
18514.3 9.08090
18516.5 8.87731
18518.7 8.74289
18523.2 8.57518
18527.6 8.47414
18532.0 8.40649
18540.9 8.32042
18549.8 8.26706
18558.7 8.22990
18576.5 8.17962
18594.3 8.14498
18612.1 8.11773
18647.6 8.07234
18683.2 8.02785
18718.7 7.96999
18736.5 7.92482
18745.4 7.89222
18754.3 7.84624
18763.2 7.77368
18767.6 7.71757
18772.1 7.63565
18776.5 7.50248
18778.7 7.39870
18780.9 7.24665
18783.2 7.00184
18784.3 6.81324
18785.4 6.54175
18786.5 6.11822
18787.6 5.37171
18788.2 4.73947
18788.7 3.80481
18789.0 3.19312
18789.3 2.70058
18789.4 2.84618
18789.6 4.07431
18789.7 8.99443
18789.8 15.3732
18789.8 27.3546
18789.9 39.2972
18789.9 54.4169
18790.0 89.5191
18790.1 94.7222
18790.1 89.7500
18790.2 70.1966
18790.3 48.2558
18790.4 35.6856
18790.5 28.5148
18790.6 24.3751
18790.9 19.1787
18791.1 16.4897
18791.4 14.7563
18791.6 13.6387
18792.0 12.2261
18792.5 11.3603
18793.0 10.7979
18793.9 10.0906
18794.8 9.66961
18795.8 9.39070
18797.6 9.04413
18799.5 8.83635
18801.4 8.69900
18805.1 8.52727
18808.8 8.42359
18812.5 8.35418
18820.0 8.26608
18827.4 8.21164
18834.9 8.17410
18849.7 8.12418
18879.5 8.06628
18909.3 8.02931
19028.5 7.93203
19147.6 7.84981
19266.7 7.76144
19385.9 7.65272
19445.4 7.58244
19505.0 7.49120
19534.8 7.43226
19564.6 7.35879
19594.4 7.26236
19624.1 7.12667
19639.0 7.03405
19653.9 6.91470
19668.8 6.75365
19683.7 6.52243
19691.2 6.36353
19698.6 6.15928
19706.0 5.88582
19713.5 5.50210
19717.2 5.24505
19720.9 4.92484
19724.7 4.51569
19728.4 3.98087
19732.1 3.27330
19734.0 2.85302
19735.8 2.42212
19737.7 2.11713
19738.6 2.14412
19739.5 2.48350
19740.5 3.49922
19740.9 4.50520
19741.4 6.04137
19741.9 8.48681
19742.3 12.2231
19742.8 18.1985
19743.3 27.2742
19743.7 40.1219
19744.1 57.0232
19745.0 91.8803
19745.4 97.4681
19745.9 92.9210
19746.7 72.0776
19747.7 52.2060
19748.7 39.9047
19749.7 32.2889
19750.7 27.3157
19751.7 23.8868
19752.7 21.4107
19754.7 18.1167
19756.6 16.0512
19758.6 14.6473
19762.6 12.8785
19766.5 11.8118
19770.5 11.1028
19774.5 10.5983
19778.4 10.2222
19786.3 9.69622
19794.2 9.34722
19802.2 9.09787
19810.1 8.91090
19825.9 8.64776
19841.7 8.47038
19857.6 8.34167
19873.4 8.24324
19905.0 8.10036
19936.7 7.99924
20000.0 7.85888
20048.2 7.78056
20096.3 7.71517
20192.7 7.60511
20385.3 7.41656
20578.0 7.23134
20674.4 7.13257
20722.5 7.08085
20746.6 7.05756
20758.6 7.06465
20764.7 7.15072
20766.2 7.24536
20767.7 7.50326
20768.4 7.84149
20769.2 8.66931
20769.6 9.64059
20769.9 11.6525
20770.1 13.6595
20770.3 17.1678
20770.5 23.8488
20770.7 36.8285
20770.8 54.6731
20771.0 67.3130
20771.2 55.2249
20771.3 37.5119
20771.4 29.0585
20771.5 23.0645
20771.7 16.5222
20772.0 13.0901
20772.2 11.2738
20772.6 9.40632
20773.0 8.54787
20773.9 7.80731
20774.8 7.50431
20776.5 7.26143
20778.2 7.16636
20785.1 7.05862
20798.8 7.01278
20826.3 6.97096
20881.3 6.90066
20991.4 6.75365
21211.4 6.39563
21321.5 6.16807
21431.5 5.89121
21541.5 5.54307
21569.0 5.44116
21596.5 5.33264
21624.0 5.22427
21637.8 5.21247
21641.2 5.25243
21644.7 5.39626
21646.4 5.60470
21648.1 6.16740
21649.0 6.87271
21649.4 7.50824
21649.8 8.53836
21650.2 10.3547
21650.7 13.9521
21650.9 17.2757
21651.1 22.3161
21651.3 30.6011
21651.5 44.4264
21651.8 68.4381
21652.0 84.7874
21652.2 69.2548
21652.5 45.4465
21652.7 29.1546
21653.0 20.4077
21653.3 15.5244
21653.5 12.6923
21654.0 9.57008
21654.5 8.03432
21655.0 7.17166
21655.6 6.63972
21656.6 6.04393
21658.6 5.55001
21660.7 5.34929
21664.7 5.17927
21668.8 5.10142
21677.0 5.01483
21685.2 4.95467
21717.8 4.75311
21750.5 4.54615
21783.2 4.31783
21848.5 3.77105
21913.9 3.05569
21979.3 2.09432
22011.9 1.49942
22044.6 0.846034
22077.3 0.254989
22085.5 0.160877
22093.6 0.115540
22101.8 0.144695
22105.9 0.198540
22110.0 0.286814
22114.0 0.417958
22118.1 0.601403
22122.2 0.850697
22126.3 1.18048
22134.5 2.17007
22142.6 3.80610
22150.8 6.47626
22159.0 10.8229
22167.1 17.8962
22175.3 29.2785
22182.5 44.3907
22189.7 64.8332
22204.0 107.189
22211.2 114.503
22218.4 109.662
22232.7 85.3657
22249.1 61.6452
22265.4 46.8207
22281.8 37.5835
22298.1 31.5220
22314.5 27.3236
22330.8 24.2829
22363.5 20.2172
22396.2 17.6491
22428.9 15.8909
22494.3 13.6435
22559.7 12.2623
22625.2 11.3178
22756.0 10.0768
22886.8 9.25075
23017.6 8.60935
23083.0 8.32215
23148.4 8.04516
23213.8 7.77667
23230.2 7.71777
23246.5 7.68390
23254.7 7.70449
23258.8 7.74519
23262.9 7.83659
23267.0 8.05546
23269.0 8.28178
23271.0 8.69162
23273.1 9.54069
23274.1 10.3359
23275.1 11.6805
23276.2 14.2005
23276.7 16.3639
23277.2 19.7040
23277.7 25.2022
23278.2 35.0199
23278.7 54.3386
23279.0 71.3802
23279.2 95.2599
23279.6 149.913
23280.0 186.068
23280.4 150.436
23280.8 97.7259
23281.2 62.3770
23281.6 42.9403
23282.0 31.8856
23282.4 25.1857
23282.8 20.8742
23283.3 17.9552
23284.1 14.3885
23284.9 12.3822
23285.7 11.1443
23287.3 9.76394
23289.0 9.04047
23290.6 8.61427
23293.9 8.15310
23297.2 7.91497
23300.4 7.77249
23307.0 7.60805
23313.5 7.51173
23320.1 7.44385
23333.2 7.34391
23359.4 7.19168
23385.6 7.05617
23438.0 6.78881
23490.4 6.50761
23595.2 5.86250
23700.0 5.03735
23804.7 3.90289
23857.1 3.15524
23909.5 2.24463
23961.9 1.17210
23988.1 0.625747
24001.2 0.382669
24014.3 0.190310
24020.9 0.125285
24027.4 0.0906416
24034.0 0.0962921
24040.5 0.155223
24047.1 0.284545
24053.6 0.506937
24060.2 0.852651
24066.7 1.36137
24073.3 2.08941
24079.8 3.11058
24086.4 4.52636
24092.9 6.47518
24099.5 9.14511
24106.0 12.7883
24119.1 24.3688
24128.8 38.2920
24138.6 57.6274
24158.0 99.8535
24167.7 108.679
24177.5 105.792
24196.9 84.6195
24216.6 64.6753
24236.2 51.1301
24255.9 42.1595
24275.6 36.0192
24295.3 31.6399
24314.9 28.3965
24354.3 23.9654
24393.6 21.1110
24432.9 19.1324
24472.3 17.6855
24482.1 17.3843
24492.0 17.1080
24501.8 16.8919
24504.2 16.8831
24506.7 16.9768
24507.9 17.1559
24509.2 17.6718
24509.8 18.3317
24510.4 19.8417
24510.7 21.4723
24511.0 24.4686
24511.2 27.2302
24511.3 31.1944
24511.5 37.3800
24511.6 47.0823
24511.8 66.2451
24512.0 78.4627
24512.2 65.9326
24512.4 47.9546
24512.6 37.1922
24512.7 30.6697
24512.9 26.6627
24513.1 24.0939
24513.4 21.1686
24513.7 19.6840
24514.4 18.2236
24515.1 17.5818
24516.4 17.0197
24517.8 16.7752
24520.5 16.5434
24523.2 16.4156
24528.6 16.2420
24534.0 16.1034
24544.8 15.8605
24555.6 15.6402
24577.2 15.2420
24598.8 14.8876
24685.2 13.7762
24771.5 12.9874
24857.9 12.3951
25030.7 11.5567
25203.4 10.9812
25376.2 10.5517
25549.0 10.2099
25721.7 9.92247
25808.1 9.79189
25851.3 9.73074
25872.9 9.71607
25878.3 9.72894
25883.7 9.78435
25886.4 9.87062
25889.1 10.1177
25890.4 10.4455
25891.8 11.2767
25892.5 12.2696
25893.1 14.4161
25893.5 16.6017
25893.8 20.3859
25894.2 28.0635
25894.3 34.7228
25894.5 43.7848
25894.7 64.6906
25895.0 78.9925
25895.3 65.5645
25895.5 44.8773
25895.7 33.5213
25895.9 26.6468
25896.1 22.2000
25896.3 19.2329
25896.7 15.6537
25897.1 13.7854
25898.0 11.9446
25898.8 11.1169
25900.4 10.4116
25902.0 10.1243
25905.2 9.89224
25908.5 9.79939
25914.9 9.72077
25921.4 9.68465
25934.4 9.64509
25947.3 9.61867
25999.1 9.53855
26102.6 9.39829
26309.7 9.12686
26516.8 8.84097
26723.9 8.50660
26827.4 8.30341
26931.0 8.05893
27034.5 7.74893
27138.0 7.32828
27189.8 7.05016
27241.6 6.70115
27293.4 6.24608
27345.1 5.62283
27371.0 5.21445
27396.9 4.71187
27422.8 4.07919
27448.7 3.26615
27474.6 2.21193
27487.5 1.59032
27500.4 0.947393
27506.9 0.656837
27513.4 0.439409
27516.6 0.381671
27519.9 0.378504
27523.1 0.453103
27526.3 0.637730
27529.6 0.980446
27532.8 1.54648
27536.0 2.43761
27539.3 3.79154
27542.5 5.82749
27545.7 8.83861
27549.0 13.2796
27552.2 19.7027
27556.2 31.2278
27560.1 47.4203
27568.0 83.4713
27572.0 91.4315
27575.9 89.4898
27583.8 72.2274
27592.4 54.5454
27601.0 42.8490
27609.7 35.2764
27618.3 30.1687
27626.9 26.5573
27635.5 23.8939
27652.8 20.2553
27670.0 17.8905
27687.2 16.2178
27721.7 13.9327
27756.2 12.2662
27773.4 11.4791
27790.7 10.6177
27807.9 9.53798
27816.5 8.82851
27825.1 7.90915
27833.8 6.62967
27838.1 5.77230
27842.4 4.70161
27846.7 3.36776
27851.0 1.87322
27853.2 1.34348
27854.2 1.32073
27855.3 1.64974
27856.4 2.63477
27856.9 3.53125
27857.5 4.80122
27858.0 6.63475
27858.5 9.20513
27859.1 12.7648
27859.6 17.5235
27860.5 28.6024
27861.3 44.6996
27863.0 82.5313
27863.9 92.4539
27864.7 92.3205
27866.4 77.2054
27867.5 66.7814
27868.5 58.1892
27870.6 46.0090
27872.7 38.3460
27874.8 33.2754
27876.9 29.7205
27879.0 27.1357
27883.2 23.6374
27887.4 21.3895
27891.6 19.8338
27900.0 17.8144
27908.4 16.5535
27916.8 15.6864
27933.6 14.5539
27950.5 13.8322
27967.3 13.3212
28000.9 12.6265
28034.5 12.1603
28068.1 11.8169
28084.9 11.6764
28101.7 11.5560
28110.2 11.5088
28118.6 11.4903
28122.8 11.5188
28127.0 11.6517
28129.1 11.8541
28131.2 12.4049
28132.2 13.0911
28132.7 13.7108
28133.3 14.6854
28133.8 16.4090
28134.3 19.6662
28134.6 22.6265
28134.8 27.0457
28135.1 34.0964
28135.4 45.4487
28135.7 66.3670
28136.0 80.6865
28136.3 67.2612
28136.6 46.5646
28136.8 37.3392
28137.0 31.1456
28137.4 23.5925
28137.8 19.4581
28138.2 17.1245
28138.6 15.6287
28139.0 14.6636
28139.7 13.5013
28140.5 12.8488
28141.2 12.4547
28142.8 12.0109
28145.8 11.6389
28148.9 11.4829
28155.0 11.3397
28161.2 11.2648
28173.4 11.1690
28185.7 11.0969
28210.2 10.9776
28234.7 10.8751
28283.7 10.6999
28332.7 10.5527
28430.7 10.3146
28528.7 10.1272
28724.7 9.84352
28773.7 9.78516
28822.7 9.73035
28871.7 9.67894
28896.2 9.65759
28908.4 9.66383
28914.6 9.73610
28917.6 10.0245
28918.4 10.2969
28919.1 10.9560
28919.5 11.7341
28919.9 13.3463
28920.3 17.5666
28920.5 22.5167
28920.7 32.1772
28920.8 46.2939
28921.0 55.0898
28921.2 45.7037
28921.3 32.5415
28921.5 22.4930
28921.7 17.6590
28922.1 13.4826
28922.5 11.8309
28922.9 11.0633
28923.6 10.3714
28924.4 10.0857
28927.5 9.76029
28933.6 9.65823
28945.8 9.61852
28970.3 9.58832
28994.8 9.58262
29001.0 9.60205
29007.1 9.67518
29010.1 9.78560
29013.2 10.0969
29014.7 10.5037
29016.3 11.5119
29017.0 12.6805
29017.8 15.1132
29018.2 17.5172
29018.6 21.5276
29018.9 28.8716
29019.3 43.1989
29019.7 64.1444
29020.0 78.3286
29020.3 65.3197
29020.7 44.6752
29021.0 32.5060
29021.3 25.1032
29021.6 20.6218
29021.9 17.8552
29022.5 14.6173
29023.1 12.9789
29023.8 12.0161
29024.4 11.4211
29025.6 10.7366
29028.1 10.1603
29030.5 9.92649
29035.4 9.73659
29040.4 9.65927
29050.2 9.59237
29060.0 9.56068
29079.7 9.52506
29099.4 9.50106
29138.7 9.46311
29178.1 9.43015
29256.8 9.37031
29335.5 9.31498
29492.8 9.21204
29571.5 9.16273
29610.9 9.14513
29620.7 9.15012
29630.5 9.18189
29635.5 9.23665
29640.4 9.40298
29642.8 9.63291
29644.1 9.85495
29645.3 10.2400
29646.5 10.9870
29647.2 11.6566
29647.8 12.7068
29648.4 14.5445
29649.0 17.9848
29649.3 20.9918
29649.6 25.4042
29649.9 32.5474
29650.2 43.4252
29650.6 64.9150
29651.0 79.2768
29651.4 65.5839
29651.8 44.9727
29652.2 30.0784
29652.7 22.4233
29653.1 18.1120
29653.6 15.6152
29654.0 13.9959
29654.5 12.9356
29655.3 11.6460
29656.2 10.9164
29657.1 10.4687
29658.9 9.97116
29660.7 9.71111
29662.4 9.55871
29666.0 9.39303
29673.1 9.25827
29680.2 9.20267
29694.4 9.15296
29708.6 9.12812
29737.0 9.09828
29765.4 9.07678
29822.1 9.04102
29878.9 9.00874
29992.5 8.94804
30106.0 8.88975
30560.2 8.66239
31014.5 8.41813
31241.6 8.27649
31355.1 8.19667
31411.9 8.15303
31440.3 8.13000
31454.5 8.12349
31461.6 8.15287
31465.1 8.30791
31466.9 8.86935
31467.8 10.4643
31468.2 13.6377
31468.5 17.8347
31468.7 27.5695
31468.8 39.3857
31469.0 47.8953
31469.2 40.0864
31469.3 28.4372
31469.5 20.4854
31469.6 16.2135
31470.0 12.1615
31470.6 9.70475
31471.9 8.65318
31474.6 8.28336
31479.8 8.16219
31490.3 8.11625
31511.4 8.08606
31553.4 8.04532
31637.5 7.96644
31805.6 7.78559
31973.8 7.55346
32142.0 7.23315
32226.0 7.01827
32310.1 6.74511
32394.2 6.38324
32478.3 5.87702
32520.3 5.53855
32562.4 5.11392
32604.4 4.56605
32646.4 3.83569
32688.5 2.82981
32709.5 2.18713
32730.5 1.44514
32751.5 0.666427
32762.1 0.344098
32767.3 0.237185
32772.6 0.196171
32777.8 0.257321
32783.1 0.475680
32785.7 0.669202
32788.3 0.937323
32791.0 1.29824
32793.6 1.77264
32798.8 3.19221
32804.1 5.51419
32809.4 9.24530
32814.6 15.0898
32820.2 24.6531
32825.8 38.3439
32837.0 69.9458
32842.6 77.6982
32848.2 76.9877
32859.4 63.4064
32869.1 51.3345
32878.8 42.3671
32888.5 35.9919
32898.2 31.3988
32917.6 25.4120
32937.0 21.7782
32956.4 19.3768
32975.8 17.6854
33014.6 15.4765
33053.4 14.1043
33092.2 13.1717
33131.0 12.4966
33169.8 11.9850
33247.4 11.2581
33325.0 10.7625
33363.8 10.5677
33402.6 10.3983
33441.4 10.2561
33451.1 10.2333
33460.8 10.2400
33465.6 10.2848
33470.5 10.4465
33472.9 10.6799
33475.3 11.2962
33476.5 12.0466
33477.1 12.7115
33477.7 13.7409
33478.3 15.5091
33478.9 18.7259
33479.3 21.5129
33479.6 25.5216
33479.9 31.5954
33480.2 41.0015
33480.6 60.2224
33481.0 73.3106
33481.4 61.3604
33481.8 42.4280
33482.3 29.5391
33482.8 22.6239
33483.2 18.7179
33483.7 16.3601
33484.1 14.8460
33484.6 13.8218
33485.5 12.5699
33486.4 11.8641
33487.3 11.4271
33489.1 10.9343
33492.7 10.5189
33496.3 10.3465
33503.5 10.1950
33510.7 10.1222
33525.1 10.0382
33539.5 9.98015
33568.3 9.88705
33597.2 9.80605
33654.8 9.65914
33712.5 9.51967
33770.1 9.37317
33827.8 9.18803
33856.6 9.05062
33871.0 8.95430
33885.4 8.82130
33899.8 8.61602
33907.1 8.46060
33914.3 8.23758
33917.9 8.08352
33921.5 7.88488
33925.1 7.61755
33928.7 7.23774
33932.3 6.65365
33934.1 6.22919
33935.9 5.65572
33937.7 4.84955
33939.5 3.69182
33940.4 2.98424
33941.3 2.40521
33942.2 3.14938
33942.6 5.63744
33942.9 8.36200
33943.1 12.7980
33943.3 19.9144
33943.5 30.1540
33944.0 54.3309
33944.2 60.6363
33944.5 60.5730
33944.9 50.8708
33945.5 38.8312
33946.1 31.0420
33946.6 26.1467
33947.2 22.9129
33947.8 20.6594
33948.3 19.0158
33949.5 16.8004
33950.6 15.3890
33951.8 14.4167
33954.0 13.1705
33956.3 12.4086
33958.6 11.8956
33960.9 11.5268
33963.2 11.2489
33967.7 10.8576
33972.3 10.5949
33981.4 10.2630
33990.5 10.0603
33999.6 9.92250
34017.9 9.74471
34036.1 9.63302
34054.3 9.55593
34090.8 9.46175
34109.1 9.43878
34127.3 9.43541
34145.5 9.46287
34163.8 9.55041
34172.9 9.63860
34182.0 9.78341
34191.1 10.0309
34200.2 10.4841
34209.4 11.4159
34213.9 12.2833
34218.5 13.7296
34223.0 16.3746
34225.3 18.5845
34227.6 21.8996
34229.9 27.1385
34232.2 35.9478
34234.4 51.7844
34236.7 81.1768
34238.9 125.851
34241.0 156.850
34243.2 128.752
34245.3 84.8131
34247.8 53.0821
34250.3 36.6611
34252.8 27.7347
34255.3 22.4866
34257.8 19.1777
34260.2 16.9686
34265.2 14.3064
34270.2 12.8196
34275.2 11.9057
34285.1 10.8826
34295.1 10.3461
34305.0 10.0265
34315.0 9.81762
34324.9 9.67202
34344.9 9.48298
34364.8 9.36513
34384.7 9.28340
34404.6 9.22218
34444.4 9.13341
34484.2 9.06868
34563.9 8.97243
34643.5 8.89751
34723.1 8.83344
34882.4 8.72290
35200.9 8.53585
35519.5 8.36799
35838.0 8.20502
36156.6 8.03787
36315.9 7.95007
36475.1 7.85786
36634.4 7.76166
36674.2 7.74005
36714.0 7.72977
36733.9 7.74286
36743.9 7.76459
36753.9 7.81201
36763.8 7.92408
36768.8 8.03900
36773.8 8.24645
36778.7 8.67011
36781.2 9.06340
36783.7 9.71503
36786.2 10.9096
36787.5 11.9123
36788.7 13.4046
36789.9 15.7833
36791.2 19.7529
36792.4 26.8769
36793.7 40.1476
36794.8 60.2081
36796.0 74.0813
36797.2 61.2950
36798.4 41.5913
36799.2 31.2467
36800.1 24.5961
36801.0 20.2480
36801.9 17.3230
36803.6 13.8262
36805.4 11.9258
36807.2 10.7888
36808.9 10.0569
36812.4 9.20383
36816.0 8.74343
36819.5 8.46577
36826.5 8.15919
36833.6 8.00001
36840.6 7.90498
36854.7 7.79834
36868.8 7.73954
36882.8 7.70111
36911.0 7.65037
36967.3 7.58484
37023.6 7.53317
37248.9 7.34247
37474.2 7.13336
37586.9 7.01492
37643.2 6.94992
37671.4 6.91697
37685.4 6.91805
37692.5 7.01225
37694.2 7.12109
37696.0 7.42163
37696.9 7.80463
37697.8 8.72010
37698.2 9.72617
37698.6 11.7290
37699.1 16.4089
37699.3 21.2092
37699.5 29.3699
37699.8 43.6809
37700.0 53.1390
37700.3 44.1091
37700.5 30.6602
37700.7 21.5820
37701.0 16.5042
37701.2 13.5781
37701.5 11.7870
37702.0 9.83322
37702.5 8.85800
37703.5 7.95984
37704.5 7.57041
37706.5 7.24353
37708.5 7.10989
37716.5 6.95165
37732.5 6.88322
37764.5 6.82630
37828.4 6.73710
37956.4 6.55360
38212.2 6.10744
38468.1 5.49068
38596.1 5.08017
38660.0 4.84174
38692.0 4.73482
38700.0 4.73068
38708.0 4.78558
38712.0 4.89290
38716.0 5.21241
38718.0 5.63130
38719.0 6.01682
38720.0 6.65219
38721.0 7.79571
38722.0 10.1268
38722.5 12.2817
38723.0 15.8101
38723.5 21.9215
38724.0 32.5042
38724.5 49.6776
38725.0 61.4714
38725.5 50.5019
38726.0 33.5322
38726.4 24.7857
38726.8 19.0730
38727.2 15.3338
38727.5 12.8720
38728.3 9.83640
38729.0 8.20592
38729.8 7.21587
38730.6 6.58667
38732.1 5.84993
38733.6 5.44782
38735.1 5.20424
38738.1 4.93277
38744.1 4.69712
38750.1 4.58729
38762.2 4.46486
38774.3 4.38008
38822.5 4.09743
38870.7 3.81188
38894.8 3.69595
38900.8 3.70646
38906.9 3.81985
38909.9 4.01411
38912.9 4.55890
38914.4 5.24112
38915.2 5.84012
38915.9 6.78407
38916.7 8.40288
38917.4 11.3541
38917.8 13.8448
38918.2 17.4101
38918.5 22.9238
38918.9 31.1378
38919.5 48.6064
38920.0 60.7826
38920.5 50.2167
38921.1 33.1518
38921.6 22.6390
38922.1 16.3900
38922.6 12.6504
38923.1 10.3345
38924.1 7.69637
38925.1 6.33847
38926.1 5.55051
38927.2 5.05175
38929.2 4.47516
38931.2 4.16080
38933.2 3.96809
38937.3 3.74357
38945.4 3.52489
38953.4 3.40082
38969.6 3.22602
38985.8 3.07840
39050.5 2.50202
39115.2 1.86356
39179.9 1.15737
39244.6 0.460932
39260.8 0.316311
39277.0 0.200021
39293.1 0.126474
39309.3 0.116541
39317.4 0.144302
39325.5 0.200098
39333.6 0.289781
39341.7 0.420220
39349.7 0.600252
39357.8 0.840041
39374.0 1.55078
39390.2 2.68744
39406.4 4.44294
39422.5 7.09502
39438.7 11.0103
39459.8 18.7398
39480.9 30.0722
39523.0 57.3559
39544.1 64.7605
39565.2 65.0512
39607.3 54.7525
39637.5 46.5161
39667.6 39.8640
39697.7 34.7689
39727.9 30.8817
39788.2 25.5159
39803.2 24.5310
39818.3 23.6818
39825.9 23.3412
39829.6 23.2183
39833.4 23.1644
39837.2 23.2670
39839.0 23.4512
39840.9 23.8280
39842.8 24.6212
39843.8 25.3304
39844.7 26.4439
39845.6 28.2887
39846.6 31.5654
39847.5 37.8849
39848.0 43.2000
39848.5 50.7859
39849.2 68.7034
39850.0 80.9668
39850.8 69.7686
39851.6 52.1818
39852.2 42.8512
39852.8 36.9042
39853.4 32.9641
39853.9 30.3624
39855.1 27.2142
39856.3 25.4977
39857.5 24.4417
39858.7 23.7449
39861.1 22.8942
39863.4 22.3873
39865.8 22.0445
39870.6 21.5812
39875.3 21.2524
39880.0 20.9863
39889.5 20.5425
39908.5 19.8129
39927.5 19.1898
40003.4 17.2643
40079.4 15.8989
40155.3 14.8752
40307.2 13.4351
40345.1 13.1580
40383.1 12.9050
40421.1 12.6822
40430.6 12.6421
40440.0 12.6377
40444.8 12.6848
40449.5 12.8673
40451.9 13.1320
40454.3 13.8177
40455.5 14.6343
40456.7 16.3907
40457.3 18.1565
40457.8 21.2112
40458.4 27.0405
40458.7 32.0108
40459.0 38.8392
40459.5 55.1767
40460.0 66.4959
40460.5 56.1988
40461.0 40.1136
40461.4 30.6542
40461.8 25.0267
40462.3 21.4684
40462.7 19.2326
40463.5 16.6383
40464.4 15.2976
40465.2 14.5040
40466.1 14.0064
40467.8 13.4280
40471.1 12.9274
40474.5 12.7130
40481.3 12.5186
40488.0 12.4204
40501.6 12.2996
40515.1 12.2100
40542.2 12.0619
40555.7 12.0431
40559.1 12.0941
40562.5 12.2833
40564.2 12.5567
40565.8 13.2689
40566.7 14.1145
40567.5 15.8992
40568.0 17.6671
40568.4 20.6235
40568.8 26.0196
40569.2 36.2839
40569.6 51.8561
40570.0 63.0536
40570.4 53.8117
40570.8 38.7262
40571.1 30.4158
40571.4 25.0964
40571.7 21.6754
40572.0 19.4627
40572.6 16.7763
40573.2 15.3182
40574.5 13.8704
40575.7 13.2087
40578.1 12.6208
40580.6 12.3668
40585.5 12.1419
40590.4 12.0363
40600.2 11.9232
40610.0 11.8518
40629.6 11.7449
40649.2 11.6554
40688.4 11.4960
40727.5 11.3503
40805.9 11.0815
40845.1 10.9531
40864.7 10.9030
40874.5 10.9705
40877.0 11.0773
40879.4 11.3918
40880.6 11.8065
40881.9 12.8019
40882.5 13.8969
40883.1 16.0655
40883.4 18.0424
40883.7 21.0597
40884.0 26.1947
40884.3 34.4853
40884.7 49.7278
40885.0 60.2045
40885.4 50.9542
40885.7 36.5735
40886.1 26.5099
40886.5 21.0054
40886.9 17.8857
40887.2 16.0357
40888.0 13.9882
40888.7 12.9649
40890.2 12.0127
40891.7 11.5980
40894.7 11.2403
40897.8 11.0877
40903.8 10.9512
40909.8 10.8848
40921.8 10.8089
40933.9 10.7572
40958.0 10.6746
40982.0 10.6017
41030.2 10.4661
41078.4 10.3363
41271.0 9.81400
41367.3 9.50571
41463.6 9.07627
41511.8 8.73888
41535.9 8.49853
41560.0 8.16624
41584.0 7.65976
41596.1 7.28441
41608.1 6.75974
41620.2 5.96977
41626.2 5.40323
41632.2 4.64848
41638.2 3.60818
41641.2 2.94063
41644.2 2.16136
41647.2 1.31128
41650.3 0.644429
41651.8 0.669386
41653.3 1.39370
41654.0 2.26605
41654.8 3.71570
41655.5 6.02658
41656.3 9.59406
41657.2 16.5902
41658.1 26.9712
41660.0 53.0356
41660.9 60.7087
41661.9 61.6851
41663.7 52.9620
41665.2 45.1654
41666.6 38.8561
41668.0 34.0543
41669.4 30.4127
41672.2 25.4146
41675.0 22.2400
41677.8 20.0667
41680.7 18.5032
41686.3 16.4216
41691.9 15.1019
41697.6 14.1959
41708.8 13.0302
41720.1 12.3116
41731.4 11.8221
41753.9 11.1919
41776.4 10.7965
41799.0 10.5191
41844.1 10.1416
41889.1 9.88144
41934.2 9.67849
42024.4 9.35235
42204.7 8.78486
42249.8 8.63669
42294.9 8.48248
42317.4 8.40707
42339.9 8.35033
42351.2 8.35426
42356.8 8.38318
42362.5 8.45697
42368.1 8.64097
42370.9 8.83019
42373.7 9.16552
42376.6 9.82610
42378.0 10.4127
42379.4 11.3342
42380.8 12.9069
42382.2 15.8267
42382.9 18.2918
42383.6 21.8903
42384.3 27.3339
42385.0 35.5759
42386.0 52.8454
42387.0 65.0391
42388.0 54.4730
42389.0 37.6064
42389.8 28.1403
42390.6 22.1891
42391.5 18.4192
42392.3 15.9438
42393.9 13.0530
42395.6 11.5132
42397.2 10.6012
42398.8 10.0163
42402.1 9.33322
42405.4 8.96007
42408.7 8.73035
42415.2 8.46614
42421.8 8.31874
42428.4 8.22402
42441.5 8.11377
42454.6 8.08575
42461.2 8.12220
42467.7 8.23489
42474.3 8.53087
42477.6 8.84098
42480.8 9.39975
42484.1 10.5146
42485.8 11.5198
42487.4 13.1388
42489.0 15.9519
42490.7 21.3668
42491.5 26.0719
42492.3 33.2976
42493.1 44.7801
42493.9 62.8891
42495.0 97.3642
42496.0 121.485
42497.0 100.084
42498.1 66.2831
42498.9 47.9859
42499.7 36.2789
42500.5 28.7513
42501.3 23.8034
42502.9 17.9040
42504.5 14.7249
42506.1 12.8206
42507.7 11.6046
42511.0 10.1822
42514.2 9.40467
42517.4 8.92981
42523.9 8.38761
42530.3 8.08651
42536.7 7.89090
42549.6 7.63490
42562.5 7.45449
42575.4 7.30375
42601.2 7.02981
42627.0 6.75383
42652.8 6.45404
42704.3 5.72230
42755.9 4.69174
42781.7 3.99446
42807.5 3.11973
42833.3 2.02383
42859.0 0.770105
42865.5 0.487995
42871.9 0.268203
42878.4 0.167717
42881.6 0.191107
42884.8 0.286434
42888.1 0.478722
42891.3 0.799025
42894.5 1.29044
42897.7 2.00938
42900.9 3.03379
42904.2 4.45388
42907.4 6.39459
42910.6 9.00483
42916.5 16.0080
42922.3 26.5765
42934.0 53.2330
42939.9 61.1994
42945.7 62.4022
42957.4 53.7642
42966.8 45.4334
42976.2 38.7964
42985.6 33.8325
42995.0 30.1321
43004.4 27.3528
43009.1 26.2489
43013.8 25.3427
43018.5 24.7066
43020.8 24.5699
43023.2 24.6789
43025.5 25.3148
43026.7 26.0554
43027.9 27.3605
43029.0 29.8013
43030.2 34.6647
43030.8 39.0220
43031.4 45.6738
43032.0 56.5413
43032.5 73.8132
43033.3 106.678
43034.0 130.085
43034.7 110.151
43035.5 78.0117
43036.1 58.6893
43036.8 47.1081
43037.4 39.8355
43038.0 35.2079
43039.3 29.8019
43040.6 26.9094
43041.9 25.1594
43043.2 23.9980
43045.8 22.5461
43048.4 21.6509
43050.9 21.0178
43056.1 20.1251
43061.3 19.4715
43066.4 18.9414
43076.7 18.0881
43087.0 17.4014
43097.4 16.8252
43118.0 15.8969
43159.2 14.5936
43200.5 13.7133
43241.7 13.0748
43283.0 12.5882
43365.5 11.8890
43448.0 11.4028
43530.5 11.0371
43571.8 10.8836
43613.0 10.7456
43633.6 10.6840
43654.3 10.6374
43664.6 10.6352
43674.9 10.6964
43680.0 10.8140
43682.6 10.9382
43685.2 11.1633
43687.8 11.6203
43689.1 12.0381
43690.4 12.7202
43691.6 13.9272
43692.9 16.3134
43693.6 18.4635
43694.2 21.8005
43694.9 27.2644
43695.5 36.3352
43696.3 52.5835
43697.0 64.0491
43697.8 54.1005
43698.5 38.2298
43699.3 27.1601
43700.1 21.1967
43701.0 17.8559
43701.8 15.8686
43702.6 14.5767
43703.4 13.7041
43705.0 12.6422
43706.7 12.0375
43708.3 11.6634
43711.6 11.2368
43714.8 11.0077
43718.1 10.8684
43724.6 10.7082
43737.7 10.5576
43750.8 10.4773
43776.9 10.3740
43803.0 10.2957
43855.2 10.1599
43881.4 10.0931
43894.4 10.0705
43901.0 10.1454
43904.2 10.5491
43905.0 10.9387
43905.9 11.8521
43906.3 12.8487
43906.7 14.7821
43907.1 19.0730
43907.3 23.0914
43907.5 29.4630
43907.7 41.9290
43908.0 50.9273
43908.3 43.5784
43908.5 31.5242
43908.8 23.1395
43909.1 18.6773
43909.6 14.4750
43910.2 12.7430
43910.7 11.8765
43911.8 11.0720
43912.9 10.7198
43915.1 10.4134
43917.3 10.2836
43926.1 10.1161
43943.6 10.0259
43978.8 9.93412
44049.0 9.78831
44189.5 9.51229
44259.7 9.36770
44329.9 9.21061
44365.0 9.12454
44400.1 9.03102
44435.3 8.92732
44452.8 8.88199
44461.6 8.93619
44463.8 9.02633
44466.0 9.29299
44467.1 9.64570
44468.2 10.4929
44468.7 11.4371
44469.3 13.3236
44469.8 17.7302
44470.1 22.1267
44470.4 29.6640
44470.7 43.0106
44471.0 52.3310
44471.3 44.4755
44471.6 31.5028
44471.8 25.4576
44472.0 21.1871
44472.5 16.3166
44472.9 13.7552
44473.3 12.3392
44474.1 10.8712
44474.9 10.1829
44476.6 9.55926
44478.2 9.29297
44481.6 9.06325
44484.9 8.96244
44491.5 8.86533
44498.1 8.81126
44524.6 8.67514
44577.5 8.42977
44630.4 8.12748
44683.3 7.71367
44709.8 7.43739
44736.3 7.08832
44762.7 6.62993
44789.2 5.99861
44815.7 5.07157
44828.9 4.42717
44842.1 3.59862
44855.4 2.52201
44862.0 1.87904
44868.6 1.19192
44875.2 0.558081
44878.5 0.348054
44881.8 0.317295
44885.1 0.634244
44886.8 1.01445
44888.4 1.61392
44890.1 2.52254
44891.8 3.83944
44893.4 5.71286
44895.1 8.32354
44897.8 14.8531
44900.5 24.7733
44906.0 50.0045
44908.7 57.7186
44911.5 59.0602
44917.0 51.2049
44920.4 45.0311
44923.8 39.7425
44930.7 32.0683
44937.6 27.1423
44944.4 23.8494
44951.3 21.5277
44958.1 19.8224
44971.9 17.4987
44985.6 16.0003
44999.3 14.9571
45026.8 13.5998
45054.3 12.7512
45081.7 12.1641
45109.2 11.7270
45136.6 11.3814
45191.6 10.8372
45219.0 10.5947
45246.5 10.3414
45273.9 10.0369
45287.7 9.83869
45301.4 9.57667
45308.3 9.40471
45315.1 9.18862
45322.0 8.90326
45328.9 8.50367
45332.3 8.23356
45335.7 7.89205
45339.2 7.44396
45342.6 6.82988
45346.0 5.93757
45347.7 5.32813
45349.5 4.56668
45351.2 3.60953
45352.9 2.52463
45354.6 2.05699
45355.5 3.34396
45355.9 5.15594
45356.3 8.37162
45356.7 13.9558
45357.2 22.3478
45358.0 44.0504
45358.4 51.0524
45358.9 52.4822
45359.7 46.2422
45360.7 37.0900
45361.7 30.6824
45362.7 26.4521
45363.7 23.5657
45364.7 21.5078
45365.7 19.9810
45367.7 17.8939
45369.7 16.5317
45371.7 15.5851
45375.7 14.3502
45379.7 13.5818
45383.7 13.0594
45387.6 12.6796
45391.6 12.3904
45399.6 11.9768
45407.6 11.6937
45415.6 11.4855
45423.6 11.3249
45439.5 11.0895
45455.5 10.9220
45487.5 10.6909
45519.4 10.5315
45551.3 10.4097
45615.2 10.2265
45679.1 10.0879
45743.0 9.97698
45774.9 9.93466
45806.9 9.92173
45822.8 9.95681
45830.8 10.0075
45838.8 10.1123
45846.8 10.3484
45850.8 10.5801
45854.8 10.9814
45858.8 11.7497
45860.8 12.4159
45862.8 13.4420
45864.8 15.1379
45866.7 18.1290
45868.7 23.9477
45869.7 28.8743
45870.7 35.8662
45872.4 52.4660
45874.0 64.2199
45875.6 54.2660
45877.3 38.1679
45878.7 28.9244
45880.0 23.2080
45881.4 19.6077
45882.8 17.2532
45885.5 14.5058
45888.3 13.0533
45891.0 12.1913
45893.8 11.6414
45899.2 10.9999
45904.7 10.6502
45910.2 10.4366
45921.2 10.1940
45932.2 10.0616
45943.1 9.97793
45965.1 9.87507
45987.0 9.81017
46009.0 9.76210
46052.8 9.68855
46096.7 9.62848
46140.6 9.57554
46162.6 9.55485
46184.5 9.55622
46195.5 9.59362
46201.0 9.64372
46206.5 9.74753
46211.9 9.98736
46214.7 10.2301
46217.4 10.6652
46220.2 11.5423
46221.5 12.3393
46222.9 13.6378
46224.3 15.9309
46225.7 20.4525
46226.3 24.5134
46227.0 30.8047
46227.7 41.2685
46228.4 58.3985
46229.2 89.6522
46230.0 111.547
46230.8 92.5425
46231.6 62.5168
46232.4 43.2127
46233.2 32.1671
46233.9 25.5292
46234.7 21.4325
46235.5 18.6961
46236.3 16.8323
46237.8 14.4875
46239.4 13.1366
46240.9 12.2871
46244.0 11.3148
46247.1 10.7963
46250.2 10.4844
46256.4 10.1386
46262.6 9.95689
46268.8 9.84695
46281.2 9.72138
46293.6 9.65095
46306.0 9.60466
46330.8 9.54429
46380.4 9.47101
46430.0 9.41908
46529.2 9.33577
46628.4 9.26345
46826.7 9.13153
47025.1 9.00566
47223.5 8.87878
47421.8 8.74461
47521.0 8.67197
47620.2 8.59255
47669.8 8.54858
47719.4 8.50019
47769.0 8.45622
47781.4 8.46320
47793.8 8.53098
47800.0 8.65659
47803.1 8.79244
47806.2 9.04709
47809.3 9.58416
47810.8 10.0943
47812.4 10.9584
47813.9 12.5660
47814.7 13.9381
47815.5 15.9922
47816.3 19.3235
47817.0 24.9367
47817.8 35.1810
47818.6 54.8552
47819.3 84.5574
47820.0 105.629
47820.7 88.0469
47821.4 59.2275
47822.1 40.5217
47822.8 29.8672
47823.5 23.5213
47824.2 19.6386
47825.0 17.0550
47825.7 15.3038
47827.1 13.1061
47828.5 11.8432
47829.9 11.0499
47832.7 10.1443
47835.5 9.65864
47838.3 9.36687
47844.0 9.04148
47849.6 8.86964
47855.2 8.76508
47866.5 8.64474
47889.0 8.53089
47911.5 8.47014
47956.6 8.39205
48001.6 8.33154
48091.7 8.22089
48181.8 8.10715
48362.0 7.84132
48542.2 7.48273
48722.4 6.94351
48812.4 6.54752
48902.5 5.99848
48992.6 5.18160
49037.7 4.60356
49082.7 3.84483
49127.8 2.82273
49150.3 2.18427
49172.8 1.46031
49195.3 0.706948
49206.6 0.381935
49212.2 0.258477
49217.9 0.179913
49223.5 0.167886
49229.1 0.253176
49234.8 0.479670
49240.4 0.909996
49246.0 1.63329
49251.6 2.77523
49257.3 4.50916
49262.9 7.06377
49271.2 12.8928
49279.5 21.8203
49296.0 44.9158
49304.3 52.1501
49312.6 53.6076
49329.1 46.7821
49339.6 41.2224
49350.1 36.4296
49371.0 29.4630
49392.0 24.9964
49413.0 22.0070
49433.9 19.9008
49454.9 18.3520
49496.8 16.2420
49538.8 14.8814
49580.7 13.9344
49664.6 12.7046
49748.4 11.9395
49832.3 11.4151
49916.1 11.0307
50000.0 10.7344
50000.0 12.8500
60000.0 12.5180
70000.0 12.2220
80000.0 11.9520
90000.0 11.7020
100000 11.4690
121936 11.0000
128026 10.8780
150000 10.4640
200000 9.63870
250000 8.93300
282958 8.51970
300000 8.32010
301881 8.29860
330894 7.98040
350000 7.78360
397381 7.33610
400000 7.31290
408435 7.23930
415912 7.17560
450000 6.89980
455537 6.85730
471978 6.73480
500000 6.53800
550000 6.22210
600000 5.94760
650000 5.71040
700000 5.50720
750000 5.33470
800000 5.19030
850000 5.07130
900000 4.97550
903617 4.96940
903618 4.96940
950000 4.90090
1.00000E+06 4.84560
1.10000E+06 4.78630
1.20000E+06 4.78580
1.21004E+06 4.79020
1.22008E+06 4.79461
1.23011E+06 4.79903
1.24015E+06 4.80345
1.26023E+06 4.81231
1.28030E+06 4.82120
1.28030E+06 4.82120
1.30000E+06 4.83410
1.31446E+06 4.84581
1.32893E+06 4.85753
1.34339E+06 4.86926
1.35785E+06 4.88100
1.35785E+06 4.88100
1.37893E+06 4.90189
1.40000E+06 4.92280
1.41250E+06 4.93795
1.42500E+06 4.95311
1.43750E+06 4.96827
1.45000E+06 4.98343
1.46250E+06 4.99859
1.47500E+06 5.01376
1.48750E+06 5.02893
1.50000E+06 5.04410
1.51775E+06 5.06959
1.53550E+06 5.09509
1.55325E+06 5.12059
1.57100E+06 5.14610
1.57100E+06 5.14610
1.59033E+06 5.17580
1.59059E+06 5.17620
1.60000E+06 5.19100
1.61270E+06 5.21110
1.62790E+06 5.23616
1.64311E+06 5.26124
1.65831E+06 5.28632
1.67351E+06 5.31140
1.67352E+06 5.31141
1.68951E+06 5.33870
1.68952E+06 5.33871
1.70000E+06 5.35680
1.72067E+06 5.39290
1.73852E+06 5.42450
1.73853E+06 5.42451
1.75416E+06 5.45255
1.76979E+06 5.48060
1.78490E+06 5.50810
1.80000E+06 5.53560
1.82644E+06 5.58430
1.85391E+06 5.63540
1.88137E+06 5.68650
1.90000E+06 5.72140
1.92143E+06 5.76165
1.94285E+06 5.80190
1.94285E+06 5.80190
1.95798E+06 5.83030
1.95799E+06 5.83031
1.97005E+06 5.85300
1.97006E+06 5.85301
2.00000E+06 5.90910
2.01885E+06 5.94410
2.03771E+06 5.97910
2.05656E+06 6.01410
2.07541E+06 6.04910
2.07541E+06 6.04911
2.10000E+06 6.09410
2.11589E+06 6.12300
2.11589E+06 6.12301
2.14225E+06 6.17025
2.16860E+06 6.21750
2.16860E+06 6.21750
2.19660E+06 6.26670
2.20000E+06 6.27260
2.22500E+06 6.31490
2.25000E+06 6.35720
2.27500E+06 6.39950
2.30000E+06 6.44180
2.32500E+06 6.48122
2.35000E+06 6.52065
2.37500E+06 6.56007
2.40000E+06 6.59950
2.42500E+06 6.63567
2.45000E+06 6.67185
2.47500E+06 6.70802
2.50000E+06 6.74420
2.52500E+06 6.77693
2.55000E+06 6.80965
2.57500E+06 6.84237
2.60000E+06 6.87510
2.65000E+06 6.93355
2.70000E+06 6.99200
2.75000E+06 7.04340
2.80000E+06 7.09480
2.85000E+06 7.13930
2.90000E+06 7.18380
2.95000E+06 7.22160
3.00000E+06 7.25940
3.05000E+06 7.29080
3.10000E+06 7.32220
3.12792E+06 7.33750
3.20000E+06 7.37280
3.25000E+06 7.39245
3.30000E+06 7.41210
3.36190E+06 7.43110
3.40000E+06 7.44090
3.40625E+06 7.44209
3.41250E+06 7.44329
3.41875E+06 7.44448
3.42500E+06 7.44568
3.43125E+06 7.44687
3.43750E+06 7.44806
3.44375E+06 7.44926
3.45000E+06 7.45045
3.45625E+06 7.45164
3.46250E+06 7.45284
3.46875E+06 7.45403
3.47500E+06 7.45523
3.48125E+06 7.45642
3.48750E+06 7.45761
3.49375E+06 7.45881
3.50000E+06 7.46000
3.50957E+06 7.46130
3.51914E+06 7.46260
3.52925E+06 7.46358
3.53936E+06 7.46455
3.54946E+06 7.46553
3.55957E+06 7.46650
3.56968E+06 7.46748
3.57979E+06 7.46845
3.58989E+06 7.46943
3.60000E+06 7.47040
3.62500E+06 7.47100
3.65000E+06 7.47160
3.67500E+06 7.47220
3.70000E+06 7.47280
3.72706E+06 7.47220
3.74530E+06 7.47118
3.76353E+06 7.47015
3.78177E+06 7.46913
3.80000E+06 7.46810
3.85000E+06 7.46255
3.90000E+06 7.45700
3.95000E+06 7.44865
4.00000E+06 7.44030
4.10000E+06 7.41600
4.20000E+06 7.39170
4.27068E+06 7.36920
4.34135E+06 7.34670
4.40000E+06 7.32570
4.41974E+06 7.31830
4.43448E+06 7.31270
4.50722E+06 7.28380
4.60000E+06 7.24420
4.64421E+06 7.22420
4.71506E+06 7.19080
4.80000E+06 7.14860
4.85282E+06 7.12110
4.91874E+06 7.08500
4.98465E+06 7.04890
5.00000E+06 7.04010
5.08594E+06 6.99000
5.11836E+06 6.97060
5.20000E+06 6.92060
5.25818E+06 6.88410
5.32909E+06 6.83820
5.40000E+06 6.79230
5.48378E+06 6.73660
5.50517E+06 6.72220
5.51215E+06 6.71750
5.59748E+06 6.65960
5.60000E+06 6.65790
5.60890E+06 6.65180
5.75471E+06 6.55150
5.76961E+06 6.54130
5.80000E+06 6.52020
5.83230E+06 6.49790
5.96226E+06 6.40820
6.00000E+06 6.38220
6.03425E+06 6.35870
6.08643E+06 6.32300
6.08643E+06 6.32300
6.20000E+06 6.24620
6.22318E+06 6.23070
6.35080E+06 6.14650
6.37810E+06 6.12870
6.38698E+06 6.12300
6.40000E+06 6.11460
6.52714E+06 6.03390
6.60000E+06 5.98890
6.62154E+06 5.97588
6.66435E+06 5.95000
6.67005E+06 5.94650
6.67986E+06 5.94070
6.80000E+06 5.87050
6.82115E+06 5.85850
7.00000E+06 5.76040
7.20000E+06 5.65910
7.40000E+06 5.56690
7.60000E+06 5.48360
7.80000E+06 5.40900
8.00000E+06 5.34250
8.21791E+06 5.28280
8.43581E+06 5.22310
8.43581E+06 5.22310
8.50000E+06 5.20820
9.00000E+06 5.11070
9.26509E+06 5.07396
9.50000E+06 5.04140
9.94039E+06 4.99940
1.00000E+07 4.99500
1.00279E+07 4.99300
1.01649E+07 4.98420
1.04382E+07 4.97110
1.05000E+07 4.96890
1.06295E+07 4.96540
1.07981E+07 4.96260
1.10000E+07 4.96210
1.11410E+07 4.96350
1.13336E+07 4.96770
1.13974E+07 4.96970
1.15000E+07 4.97340
1.15656E+07 4.97620
1.16693E+07 4.98120
1.20000E+07 5.00190
1.21012E+07 5.00950
1.22634E+07 5.02310
1.23224E+07 5.02840
1.24004E+07 5.03570
1.24369E+07 5.03920
1.25000E+07 5.04540
1.27835E+07 5.07590
1.29196E+07 5.09180
1.29224E+07 5.09210
1.29409E+07 5.09430
1.30000E+07 5.10150
1.33766E+07 5.15010
1.34802E+07 5.16410
1.35000E+07 5.16680
1.37500E+07 5.20222
1.40000E+07 5.23770
1.41753E+07 5.26310
1.45000E+07 5.31020
1.45580E+07 5.31860
1.45749E+07 5.32100
1.48507E+07 5.36030
1.49734E+07 5.37750
1.50000E+07 5.38120
1.53862E+07 5.43300
1.53940E+07 5.43400
1.53941E+07 5.43400
1.54824E+07 5.44540
1.55000E+07 5.44759
1.55998E+07 5.46020
1.56947E+07 5.47190
1.57219E+07 5.47520
1.60000E+07 5.50780
1.65000E+07 5.56039
1.66462E+07 5.57439
1.70000E+07 5.60530
1.72090E+07 5.62179
1.74745E+07 5.64078
1.75000E+07 5.64258
1.75191E+07 5.64378
1.75746E+07 5.64740
1.76218E+07 5.65048
1.76856E+07 5.65459
1.77531E+07 5.65869
1.79103E+07 5.66779
1.79303E+07 5.66890
1.79313E+07 5.66900
1.79575E+07 5.67050
1.79765E+07 5.67150
1.80000E+07 5.67280
1.81796E+07 5.68198
1.83513E+07 5.69007
1.84402E+07 5.69396
1.85000E+07 5.69656
1.86979E+07 5.70437
1.90000E+07 5.71470
1.90009E+07 5.71470
1.92291E+07 5.72126
1.93993E+07 5.72544
1.95000E+07 5.72764
1.95083E+07 5.72784
1.96030E+07 5.72974
1.96085E+07 5.72984
1.96476E+07 5.73055
1.97443E+07 5.73225
2.00000E+07 5.73600
2.00000E+07 5.73604
2.10000E+07 5.73950
2.20000E+07 5.72590
2.30000E+07 5.69420
2.40000E+07 5.64280
2.50000E+07 5.57200
2.60000E+07 5.48380
2.70000E+07 5.38380
2.80000E+07 5.27780
2.90000E+07 5.17110
3.00000E+07 5.06730
3.10000E+07 4.96840
3.20000E+07 4.87480
3.30000E+07 4.78630
3.40000E+07 4.70290
3.50000E+07 4.62480
3.60000E+07 4.55310
3.70000E+07 4.48870
3.80000E+07 4.43250
3.90000E+07 4.38500
4.00000E+07 4.34600
4.10000E+07 4.31550
4.20000E+07 4.29240
4.30000E+07 4.27630
4.40000E+07 4.26630
4.50000E+07 4.26200
4.60000E+07 4.26280
4.70000E+07 4.26820
4.80000E+07 4.27800
4.90000E+07 4.29150
5.00000E+07 4.30830
5.10000E+07 4.32810
5.20000E+07 4.35010
5.30000E+07 4.37410
5.40000E+07 4.39940
5.50000E+07 4.42590
5.60000E+07 4.45280
5.70000E+07 4.48010
5.80000E+07 4.50750
5.90000E+07 4.53460
6.00000E+07 4.56140
6.10000E+07 4.58750
6.20000E+07 4.61280
6.30000E+07 4.63700
6.40000E+07 4.66030
6.50000E+07 4.68220
6.60000E+07 4.70280
6.70000E+07 4.72190
6.80000E+07 4.73960
6.90000E+07 4.75570
7.00000E+07 4.77030
7.10000E+07 4.78330
7.20000E+07 4.79470
7.30000E+07 4.80450
7.40000E+07 4.81270
7.50000E+07 4.81930
7.60000E+07 4.82440
7.70000E+07 4.82800
7.80000E+07 4.83010
7.90000E+07 4.83070
8.00000E+07 4.82990
8.10000E+07 4.82770
8.20000E+07 4.82420
8.30000E+07 4.81950
8.40000E+07 4.81350
8.50000E+07 4.80640
8.60000E+07 4.79810
8.70000E+07 4.78880
8.80000E+07 4.77840
8.90000E+07 4.76700
9.00000E+07 4.75480
9.10000E+07 4.74170
9.20000E+07 4.72770
9.30000E+07 4.71310
9.40000E+07 4.69770
9.50000E+07 4.68150
9.60000E+07 4.66470
9.70000E+07 4.64740
9.80000E+07 4.62950
9.90000E+07 4.61110
1.00000E+08 4.59220
1.02000E+08 4.55320
1.04000E+08 4.51280
1.06000E+08 4.47110
1.08000E+08 4.42870
1.10000E+08 4.38540
1.12000E+08 4.34160
1.14000E+08 4.29750
1.16000E+08 4.25330
1.18000E+08 4.20910
1.20000E+08 4.16480
1.22000E+08 4.12090
1.24000E+08 4.07740
1.26000E+08 4.03420
1.28000E+08 3.99170
1.30000E+08 3.94970
1.32000E+08 3.90810
1.34000E+08 3.86750
1.36000E+08 3.82760
1.38000E+08 3.78840
1.40000E+08 3.75000
1.42000E+08 3.71240
1.44000E+08 3.67570
1.46000E+08 3.63980
1.48000E+08 3.60490
1.50000E+08 3.57060
1.52000E+08 3.53740
1.54000E+08 3.50500
1.56000E+08 3.47360
1.58000E+08 3.44280
1.60000E+08 3.41300
1.62000E+08 3.38410
1.64000E+08 3.35610
1.66000E+08 3.32860
1.68000E+08 3.30220
1.70000E+08 3.27650
1.72000E+08 3.25160
1.74000E+08 3.22750
1.76000E+08 3.20390
1.78000E+08 3.18120
1.80000E+08 3.15930
1.82000E+08 3.13810
1.84000E+08 3.11750
1.86000E+08 3.09750
1.88000E+08 3.07830
1.90000E+08 3.05960
1.92000E+08 3.04160
1.94000E+08 3.02410
1.96000E+08 3.00730
1.98000E+08 2.99100
2.00000E+08 2.97530