As-75(n,tot) ENDF/B-VII.1
Energy(eV) XS(b)
1.00000E-05 231.691
1.25000E-05 207.804
1.50000E-05 190.172
2.00000E-05 165.421
2.75000E-05 141.871
3.50000E-05 126.372
4.25000E-05 115.183
5.00000E-05 106.617
6.25000E-05 95.9347
7.50000E-05 88.0492
0.000100000 76.9804
0.000125000 69.4267
0.000150000 63.8508
0.000200000 56.0239
0.000275000 48.5768
0.000350000 43.6756
0.000425000 40.1374
0.000500000 37.4287
0.000625000 34.0506
0.000750000 31.5570
0.00100000 28.0568
0.00125000 25.6681
0.00150000 23.9049
0.00200000 21.4299
0.00275000 19.0749
0.00350000 17.5251
0.00425000 16.4063
0.00500000 15.5497
0.00625000 14.4815
0.00750000 13.6930
0.0100000 12.5863
0.0125000 11.8310
0.0150000 11.2735
0.0200000 10.4909
0.0253000 9.92997
0.0314750 9.46475
0.0376500 9.11931
0.0500000 8.63179
0.0625000 8.29407
0.0750000 8.04477
0.100000 7.69482
0.125000 7.45598
0.150000 7.27963
0.200000 7.03202
0.275000 6.79623
0.350000 6.64084
0.500000 6.44232
0.750000 6.25466
1.00000 6.14174
1.50000 6.00555
2.00000 5.92203
2.75000 5.83928
3.50000 5.78167
5.00000 5.70137
7.50000 5.61170
10.0000 5.54465
15.0000 5.43657
20.0000 5.34311
26.7136 5.23322
30.0704 5.19374
33.4272 5.18849
36.7840 5.29235
38.4624 5.46278
40.1408 5.85117
40.9800 6.22121
41.8192 6.82976
42.6584 7.89483
43.4976 9.93749
43.9172 11.7082
44.3368 14.4525
44.7564 18.9893
45.1760 27.1920
45.3858 33.9850
45.5956 44.1277
45.8054 60.1645
46.0152 87.5500
46.1201 109.067
46.2250 139.688
46.3299 185.193
46.4348 256.636
46.5397 377.041
46.5922 470.033
46.6446 599.634
46.6971 785.826
46.7495 1061.83
46.8020 1481.69
46.8544 2121.39
46.9272 3417.67
47.0000 4303.54
47.0728 3470.09
47.1456 2187.39
47.1902 1625.36
47.2348 1228.74
47.3240 752.301
47.4132 500.885
47.5024 356.113
47.5916 266.211
47.6808 206.893
47.8592 136.229
48.0376 97.4337
48.2160 73.8770
48.5728 47.8900
48.9296 34.5784
49.2864 26.8253
49.6432 21.8959
50.0000 18.5555
50.6604 14.6561
51.3207 12.3293
51.9811 10.8181
52.6414 9.77425
53.9621 8.45031
55.2828 7.66116
56.6035 7.14434
57.9242 6.78206
60.5656 6.30894
63.2070 6.01171
65.8484 5.80415
71.1312 5.52147
76.4139 5.32174
79.0553 5.23749
81.6967 5.16244
84.3381 5.10792
85.6588 5.10376
86.9795 5.14583
87.6399 5.20619
88.3002 5.32201
88.9606 5.54693
89.6209 6.01113
89.9511 6.42947
90.2813 7.09202
90.6114 8.20636
90.9416 10.2458
91.2718 14.4782
91.4369 18.4750
91.6020 25.2436
91.7671 37.9091
91.8496 48.7322
91.9321 65.3292
92.0147 92.3473
92.0972 139.693
92.1385 177.201
92.1798 230.026
92.2210 305.498
92.2623 412.797
92.3312 667.531
92.4000 845.742
92.4689 687.579
92.5377 437.880
92.5960 294.647
92.6543 206.171
92.7126 150.954
92.7709 115.121
92.8875 73.7956
93.0041 52.0826
93.1207 39.3612
93.2373 31.2854
93.4705 21.9883
93.7037 17.0241
93.9369 14.0502
94.1701 12.1193
94.4033 10.7889
94.8697 9.11224
95.3361 8.12457
95.8025 7.48689
96.2689 7.04704
97.2016 6.48760
98.1344 6.15096
99.0672 5.92747
100.000 5.76827
101.563 5.58319
103.125 5.45590
106.250 5.28673
109.375 5.17334
112.500 5.08724
118.750 4.95536
125.000 4.85017
150.000 4.51671
175.000 4.21510
200.000 3.89418
213.136 3.70302
226.271 3.48168
232.839 3.35354
236.123 3.28458
239.407 3.21504
242.690 3.15780
244.332 3.14942
245.974 3.18522
246.795 3.24154
247.616 3.35253
248.437 3.57162
249.258 4.02868
249.669 4.44307
250.079 5.10198
250.490 6.21471
250.900 8.26066
251.311 12.5368
251.516 16.6048
251.721 23.5443
251.926 36.6872
252.029 48.0502
252.132 65.6893
252.234 94.8947
252.337 147.374
252.388 189.985
252.439 251.366
252.491 341.464
252.542 473.368
252.621 765.796
252.700 969.437
252.779 787.030
252.858 499.947
252.922 341.125
252.986 240.990
253.050 177.231
253.113 135.342
253.241 86.3240
253.369 60.2611
253.496 44.8611
253.624 35.0451
253.879 23.6928
254.135 17.6132
254.390 13.9667
254.645 11.5983
254.901 9.96682
255.411 7.91226
255.922 6.70350
256.432 5.92395
256.943 5.38663
257.964 4.70310
258.985 4.29062
261.028 3.81659
263.070 3.54477
265.113 3.35971
269.197 3.10103
277.367 2.72739
285.537 2.38698
293.706 2.04562
297.791 1.90332
301.876 1.85963
305.961 2.16559
308.003 2.70652
309.024 3.19950
310.045 3.95501
311.067 5.14087
312.088 7.07324
313.109 10.4012
313.620 12.9929
314.130 16.6206
314.641 21.8705
315.151 29.7965
315.662 42.4411
316.173 64.1682
316.428 81.2767
316.683 105.615
316.939 141.698
317.194 198.031
317.449 291.972
317.704 462.378
317.832 602.026
317.960 804.598
318.087 1104.96
318.215 1548.90
318.408 2519.99
318.600 3203.53
318.793 2608.27
318.985 1660.19
319.212 961.776
319.440 603.246
319.667 409.514
319.894 296.085
320.122 224.810
320.349 177.400
320.803 120.638
321.258 89.6620
321.712 71.4657
322.622 54.4994
323.531 53.9251
323.985 60.5457
324.440 75.1773
324.894 105.415
325.122 131.847
325.349 172.221
325.576 236.763
325.804 345.799
326.031 541.496
326.258 904.318
326.479 1474.65
326.700 1886.91
326.922 1550.95
327.143 998.911
327.393 601.025
327.644 389.571
327.894 272.084
328.144 201.764
328.395 156.717
328.645 126.230
329.146 88.7405
329.646 67.3187
330.147 53.8316
331.148 38.2135
332.150 29.6679
333.151 24.3692
335.153 18.2314
337.156 14.8172
339.159 12.6530
343.164 10.0686
347.169 8.57603
351.174 7.59918
359.185 6.38360
367.195 5.63906
375.205 5.11936
391.226 4.39853
407.247 3.86934
423.268 3.41089
431.278 3.18563
439.288 2.94800
443.294 2.81763
447.299 2.67665
449.301 2.61243
450.303 2.59512
451.304 2.61246
452.305 2.73576
452.806 2.90695
453.307 3.26815
453.807 4.10715
454.058 4.95489
454.308 6.45858
454.558 9.40886
454.683 12.0241
454.808 16.1497
454.871 19.1464
454.934 23.1043
454.996 28.4458
455.059 35.8165
455.121 46.2878
455.184 61.5322
455.247 84.1706
455.309 117.679
455.357 152.328
455.405 192.688
455.500 247.792
455.548 237.059
455.596 205.140
455.691 133.260
455.773 90.6867
455.855 64.2886
455.938 47.7650
456.020 37.0157
456.184 24.5335
456.348 17.9104
456.513 13.9890
456.677 11.4726
457.006 8.53048
457.334 6.92459
457.663 5.94198
458.320 4.83179
458.977 4.23641
459.635 3.87081
460.949 3.44753
462.264 3.20802
463.578 3.05083
466.207 2.84935
468.836 2.71942
471.465 2.63217
472.780 2.61348
474.094 2.66055
474.751 2.77988
475.080 2.91564
475.409 3.17494
475.737 3.72589
475.902 4.24752
476.066 5.12289
476.230 6.72189
476.394 10.0110
476.477 13.0554
476.559 18.0102
476.641 26.5156
476.682 32.9547
476.723 41.4210
476.767 53.1679
476.812 66.8756
476.900 85.6779
476.989 71.2745
477.077 46.9204
477.140 34.6006
477.202 26.2773
477.265 20.6507
477.327 16.7724
477.452 11.9959
477.577 9.31717
477.703 7.67526
477.828 6.59749
478.078 5.31303
478.328 4.60165
478.578 4.16450
479.078 3.67423
479.579 3.41923
480.079 3.27166
481.080 3.12658
483.081 3.09240
485.083 3.26327
487.084 3.73247
488.085 4.20594
489.085 5.04571
490.086 6.74658
490.586 8.34872
491.087 11.1042
491.587 16.4888
491.837 21.3675
492.087 29.3861
492.338 43.9487
492.463 56.1231
492.588 74.4711
492.713 103.832
492.838 154.283
492.963 248.321
493.088 432.917
493.194 686.814
493.300 852.568
493.406 678.795
493.512 422.921
493.613 265.061
493.715 174.764
493.816 121.867
493.918 89.2102
494.019 67.9167
494.120 53.3992
494.323 35.5914
494.526 25.5731
494.729 19.4281
495.134 12.6344
495.540 9.19135
495.945 7.22733
496.756 5.21865
497.567 4.29628
498.378 3.82632
500.000 3.46002
501.994 3.45402
503.989 3.69169
507.978 4.75107
511.966 6.90802
513.961 8.70055
515.955 11.3000
517.949 15.1811
519.944 21.2075
521.938 31.0730
523.933 48.4362
524.930 62.3327
525.927 82.3221
526.924 112.283
527.921 159.578
528.919 239.348
529.916 385.834
530.414 506.981
530.913 684.199
531.412 949.005
531.910 1344.35
532.655 2210.65
533.400 2837.65
534.145 2330.98
534.890 1496.90
535.397 1091.06
535.903 813.017
536.409 623.152
536.916 490.898
537.929 326.657
538.942 233.803
539.954 176.627
540.967 139.004
542.993 94.0811
545.019 69.1827
547.045 53.8593
549.070 43.6978
551.096 36.5733
555.147 27.4078
559.199 21.8765
563.250 18.2316
567.302 15.6712
575.405 12.3354
583.508 10.2608
591.611 8.83390
599.714 7.77467
615.919 6.23735
632.125 5.04615
640.228 4.48033
644.280 4.19144
648.331 3.89957
652.383 3.63182
654.408 3.54543
656.434 3.57021
658.460 3.93635
659.473 4.47342
660.486 5.62718
661.499 8.33912
662.005 11.1005
662.511 16.0308
662.765 20.0183
663.018 25.7948
663.271 34.5237
663.524 48.4328
663.777 72.1682
664.031 116.444
664.157 153.607
664.284 208.706
664.410 292.394
664.537 419.673
664.719 689.859
664.900 887.239
665.082 731.737
665.263 472.118
665.394 338.606
665.526 249.263
665.657 189.558
665.789 148.668
666.051 98.7861
666.314 71.0608
666.577 54.1585
666.840 43.1123
667.365 29.9858
667.891 22.7318
668.416 18.2660
669.467 13.2089
670.518 10.5016
671.569 8.84567
673.671 6.94053
675.773 5.86865
677.875 5.16455
682.079 4.24479
686.283 3.61039
690.487 3.09673
698.896 2.21850
707.304 1.48599
711.508 1.27176
713.610 1.26543
714.661 1.30571
715.712 1.38656
716.763 1.52041
717.814 1.72409
718.865 2.02078
719.916 2.44292
720.967 3.03685
722.018 3.87039
723.069 5.04560
724.120 6.72156
725.171 9.15724
726.222 12.7964
727.273 18.4577
728.324 27.7990
729.375 44.6556
729.901 58.6709
730.426 79.8145
730.952 113.933
731.477 174.160
731.740 222.874
732.003 293.330
732.265 398.030
732.528 554.353
732.914 893.886
733.300 1158.38
733.686 1007.03
734.072 732.040
734.347 604.378
734.622 535.714
735.172 527.427
735.722 666.646
736.272 996.345
736.836 1578.37
737.400 2017.95
737.964 1677.89
738.528 1098.62
739.059 728.023
739.590 506.537
740.121 371.619
740.652 285.273
741.714 186.237
742.776 133.864
743.837 102.686
744.899 82.4931
747.023 58.5120
749.147 45.1205
751.271 36.7466
755.518 27.0370
759.766 21.6775
764.013 18.3186
768.261 16.0279
772.508 14.3684
781.003 12.1225
789.498 10.6633
797.993 9.62673
806.488 8.84038
823.478 7.68714
840.468 6.81745
857.458 6.03831
865.953 5.62245
868.077 5.50840
870.200 5.38932
871.262 5.33156
871.793 5.30715
872.324 5.29260
872.855 5.30656
873.120 5.34157
873.386 5.42280
873.651 5.61380
873.784 5.80185
873.917 6.12222
874.050 6.71131
874.182 7.91585
874.249 9.01745
874.315 10.7820
874.381 13.7432
874.448 18.7828
874.524 27.8848
874.600 34.7454
874.676 29.7779
874.752 21.1419
874.833 15.1427
874.913 11.7780
874.993 9.83180
875.073 8.63264
875.153 7.84793
875.233 7.30750
875.393 6.63051
875.553 6.23478
875.714 5.98060
876.034 5.67773
876.354 5.50375
876.675 5.38914
877.315 5.24072
878.596 5.06124
879.878 4.92908
882.440 4.69160
885.003 4.44399
887.566 4.17044
888.847 4.03173
890.128 3.92158
891.409 3.94552
892.050 4.12086
892.691 4.60595
893.331 5.91478
893.652 7.33422
893.972 9.95443
894.292 15.2729
894.453 20.0831
894.613 27.7714
894.773 40.8829
894.933 65.1082
895.013 85.1940
895.093 114.563
895.173 158.363
895.253 223.544
895.377 372.858
895.500 487.197
895.623 408.478
895.747 268.227
895.874 171.282
896.002 116.199
896.130 84.0314
896.257 64.0812
896.385 50.9703
896.512 41.9182
896.768 30.5639
897.023 23.9516
897.278 19.7371
897.788 14.8110
898.299 12.0998
898.809 10.4164
899.830 8.46545
900.851 7.37370
901.871 6.67004
903.913 5.78897
905.954 5.22358
907.996 4.79860
912.079 4.14611
914.121 3.89418
916.162 3.72345
918.204 3.72928
920.245 4.18054
921.266 4.78786
922.287 5.92823
923.307 8.09522
924.328 12.4240
924.838 16.1901
925.349 21.9364
925.859 31.1007
926.370 46.5962
926.880 74.9809
927.135 98.4492
927.390 133.048
927.646 186.148
927.901 271.399
928.156 414.347
928.411 658.052
928.706 1101.89
929.000 1441.78
929.295 1207.55
929.590 790.098
929.865 523.613
930.140 363.630
930.415 265.999
930.690 203.563
931.240 132.178
931.790 94.6862
932.341 72.5468
932.891 58.3231
933.991 41.6120
935.091 32.4049
936.191 26.7123
937.291 22.9001
938.391 20.1947
940.592 16.6463
942.792 14.4448
944.992 12.9552
947.193 11.8832
951.593 10.4439
955.994 9.51910
960.394 8.87044
964.795 8.38649
973.596 7.70257
982.398 7.23123
1000.00 6.59513
1027.44 5.95633
1054.87 5.47975
1068.59 5.25677
1082.31 5.01455
1089.17 4.86867
1092.60 4.78201
1096.03 4.68022
1097.74 4.62159
1099.46 4.55693
1101.17 4.48712
1102.89 4.41927
1103.74 4.39405
1104.60 4.38743
1105.46 4.42565
1106.32 4.57696
1106.75 4.74821
1107.17 5.05096
1107.60 5.60385
1108.03 6.67389
1108.46 8.97616
1108.67 11.1567
1108.89 14.8026
1109.10 21.4377
1109.21 26.8499
1109.32 34.7612
1109.42 46.7797
1109.53 65.8326
1109.64 97.2788
1109.75 149.928
1109.87 248.343
1110.00 322.392
1110.13 269.500
1110.26 177.376
1110.35 129.339
1110.44 97.2156
1110.53 75.3134
1110.62 60.3632
1110.80 41.8351
1110.99 31.4622
1111.17 25.0386
1111.35 20.8243
1111.72 15.7453
1112.08 12.8950
1112.45 11.1265
1112.81 9.94001
1113.18 9.09862
1113.91 7.99809
1114.64 7.32145
1115.37 6.86677
1116.10 6.54261
1117.56 6.11158
1119.02 5.83782
1120.48 5.64729
1121.94 5.50573
1124.87 5.30561
1127.79 5.16635
1133.63 4.97298
1139.47 4.83270
1145.32 4.71709
1157.00 4.51915
1180.38 4.16100
1203.75 3.78509
1227.13 3.34407
1238.82 3.08764
1250.50 2.81276
1256.35 2.68127
1262.19 2.57736
1268.03 2.55266
1273.88 2.74688
1276.80 3.03666
1279.72 3.59797
1282.64 4.68345
1285.56 6.87170
1287.02 8.78184
1288.49 11.6976
1289.95 16.3427
1291.41 24.1759
1292.87 38.4442
1293.60 50.1794
1294.33 67.3516
1295.06 93.5299
1295.79 135.042
1296.52 203.617
1297.25 318.510
1298.13 534.432
1299.00 700.589
1299.88 587.721
1300.75 385.329
1301.56 256.727
1302.37 179.051
1303.18 131.445
1303.99 100.879
1305.60 65.8028
1307.22 47.2976
1308.84 36.3264
1310.46 29.2486
1313.69 20.8759
1316.93 16.1984
1320.16 13.2467
1323.40 11.2071
1326.64 9.69109
1333.11 7.46416
1336.34 6.53373
1339.58 5.61949
1342.81 4.65281
1344.43 4.14347
1346.05 3.65946
1347.67 3.39643
1348.48 3.57160
1349.29 4.35274
1349.69 5.23147
1350.09 6.74269
1350.50 9.39830
1350.90 14.2269
1351.11 18.1263
1351.31 23.6433
1351.51 31.6883
1351.71 43.7937
1351.91 62.6949
1352.12 93.4566
1352.32 145.548
1352.52 235.068
1352.76 406.976
1353.00 551.186
1353.24 480.640
1353.48 327.640
1353.65 243.811
1353.83 186.125
1354.00 146.480
1354.17 118.672
1354.52 83.6659
1354.87 63.5618
1355.21 50.8858
1355.56 42.3860
1356.25 31.8976
1356.95 25.8284
1357.64 21.9362
1359.02 17.3003
1360.41 14.6612
1361.80 12.9630
1364.57 10.8974
1367.34 9.66910
1370.11 8.83880
1375.65 7.75073
1381.20 7.03296
1386.74 6.49502
1397.83 5.67408
1408.91 4.99477
1414.46 4.67796
1420.00 4.39257
1422.77 4.28599
1425.54 4.24309
1428.31 4.34492
1431.08 4.80188
1432.47 5.32608
1433.86 6.25405
1435.24 7.94612
1436.63 11.2179
1437.32 14.0115
1438.01 18.2204
1438.71 24.8496
1439.40 35.9176
1440.09 55.9026
1440.44 72.2638
1440.79 96.0845
1441.13 132.338
1441.48 189.573
1441.82 283.858
1442.17 441.461
1442.59 737.182
1443.00 961.975
1443.42 801.201
1443.83 521.377
1444.11 386.300
1444.38 292.468
1444.93 182.086
1445.49 124.596
1446.04 91.6596
1446.59 71.0900
1447.14 57.4343
1448.24 40.8937
1449.35 31.5746
1450.45 25.7549
1452.65 19.0695
1454.86 15.4371
1457.07 13.1963
1459.27 11.6882
1461.48 10.6065
1465.89 9.14780
1470.30 8.17600
1472.51 7.77736
1473.61 7.58787
1474.71 7.40251
1475.81 7.22790
1476.37 7.15757
1476.92 7.12712
1477.47 7.21908
1477.74 7.39057
1478.02 7.77246
1478.30 8.66385
1478.43 9.53956
1478.57 11.0118
1478.71 13.7047
1478.85 19.0984
1478.92 23.8982
1478.98 31.3759
1479.05 43.4097
1479.12 62.5828
1479.17 80.5814
1479.21 102.022
1479.30 132.950
1479.39 113.666
1479.48 77.6875
1479.58 51.0049
1479.68 36.2627
1479.78 27.8293
1479.87 22.7054
1479.97 19.3202
1480.07 17.0113
1480.27 14.0947
1480.47 12.3869
1480.66 11.2892
1481.06 9.98659
1481.45 9.25146
1481.84 8.78207
1482.63 8.21414
1483.42 7.87530
1484.21 7.64347
1485.79 7.33055
1487.36 7.11439
1488.94 6.94655
1492.09 6.68635
1498.40 6.30979
1504.70 6.02614
1517.31 5.59328
1529.92 5.25436
1555.14 4.69867
1580.36 4.19010
1605.58 3.64507
1618.19 3.33844
1630.80 3.00914
1637.11 2.84752
1643.41 2.71143
1649.72 2.65466
1656.02 2.82685
1659.17 3.11950
1662.33 3.70816
1665.48 4.87671
1668.63 7.28314
1670.21 9.41469
1671.78 12.7011
1673.36 17.9975
1674.94 27.0520
1676.51 43.8496
1677.30 57.8700
1678.09 78.7160
1678.88 111.041
1679.66 163.616
1680.45 253.257
1681.24 409.280
1682.12 687.394
1683.00 901.837
1683.88 756.982
1684.76 496.480
1685.61 325.984
1686.45 224.973
1687.30 164.018
1688.14 125.320
1688.99 99.4574
1689.83 81.3805
1691.52 58.4259
1693.21 44.9035
1694.90 36.2227
1698.28 26.0203
1701.66 20.3838
1705.04 16.8847
1708.42 14.5293
1711.80 12.8468
1718.56 10.6107
1725.32 9.18477
1732.08 8.16273
1733.77 7.93861
1735.46 7.71696
1736.30 7.60831
1736.73 7.55877
1737.15 7.52154
1737.57 7.52263
1737.78 7.56238
1737.99 7.66760
1738.20 7.92648
1738.31 8.18375
1738.41 8.61101
1738.52 9.37533
1738.63 10.8199
1738.73 13.8765
1738.78 16.6355
1738.84 20.7075
1738.92 30.4458
1739.00 38.4719
1739.08 34.1513
1739.16 25.3332
1739.23 20.1529
1739.30 16.7509
1739.36 14.5170
1739.43 13.0040
1739.56 11.1686
1739.69 10.1491
1739.82 9.51271
1739.95 9.09067
1740.22 8.56740
1740.48 8.25949
1740.74 8.05603
1741.27 7.79853
1741.80 7.63516
1742.32 7.51605
1743.37 7.34092
1745.48 7.09225
1747.58 6.89584
1756.00 6.27838
1764.42 5.76828
1772.83 5.29135
1781.25 4.79256
1785.46 4.51204
1789.67 4.19218
1793.88 3.81681
1795.98 3.61153
1798.08 3.42209
1799.14 3.36021
1800.19 3.36096
1801.24 3.50453
1802.29 3.99174
1803.34 5.40316
1803.87 6.96383
1804.40 9.84514
1804.92 15.6095
1805.18 20.7098
1805.45 28.6565
1805.71 41.6772
1805.97 64.3478
1806.24 106.530
1806.37 140.893
1806.50 188.272
1806.75 320.556
1807.00 426.525
1807.25 363.804
1807.50 243.011
1807.80 148.690
1808.09 98.6623
1808.39 70.7139
1808.69 53.9556
1808.98 43.1084
1809.28 35.7284
1809.87 26.5373
1810.47 21.1894
1811.06 17.7727
1812.24 13.7498
1813.43 11.5015
1814.61 10.0854
1816.99 8.40947
1819.36 7.44782
1821.73 6.81543
1826.47 6.00772
1831.21 5.48010
1835.95 5.07695
1838.32 4.89970
1840.69 4.73334
1841.88 4.65812
1842.47 4.62740
1843.06 4.60984
1843.66 4.62852
1843.95 4.67297
1844.25 4.77514
1844.55 5.01553
1844.69 5.25178
1844.84 5.65489
1844.99 6.39788
1845.14 7.92729
1845.21 9.33428
1845.29 11.6076
1845.36 15.4539
1845.43 22.0875
1845.52 33.8340
1845.60 42.6647
1845.68 36.2320
1845.77 25.0781
1845.82 19.6160
1845.88 15.8932
1845.99 11.4664
1846.10 9.16946
1846.21 7.86126
1846.32 7.03636
1846.43 6.49115
1846.65 5.82400
1846.87 5.44228
1847.09 5.20115
1847.54 4.91460
1847.98 4.74841
1848.42 4.63751
1849.31 4.49022
1851.08 4.30640
1852.85 4.17116
1859.93 3.73586
1867.00 3.34311
1874.08 3.00375
1877.62 2.89829
1881.16 2.90670
1884.70 3.17053
1888.24 4.04599
1890.01 4.97964
1891.78 6.57104
1893.55 9.36734
1895.32 14.5459
1896.21 18.7990
1897.09 24.9836
1897.98 34.2905
1898.86 48.9086
1899.75 73.1277
1900.63 115.967
1901.52 197.500
1901.96 264.903
1902.40 359.980
1903.20 611.501
1904.00 811.688
1904.80 690.719
1905.60 459.326
1906.34 309.982
1907.08 218.832
1907.81 162.385
1908.55 125.927
1910.03 83.6993
1911.50 61.2029
1912.98 47.7621
1914.45 39.0388
1917.40 28.6604
1920.35 22.8536
1923.30 19.2141
1926.25 16.7473
1929.20 14.9769
1935.10 12.6205
1941.00 11.1303
1946.90 10.1035
1952.80 9.35119
1964.60 8.31359
1976.40 7.61723
1988.20 7.09899
2000.00 6.67334
2005.23 6.49625
2010.47 6.31360
2013.08 6.21350
2014.39 6.15869
2015.70 6.09873
2017.01 6.03166
2017.66 5.99558
2018.32 5.96021
2018.97 5.93605
2019.30 5.94011
2019.63 5.97659
2019.95 6.10057
2020.12 6.24391
2020.28 6.51002
2020.44 7.04677
2020.53 7.52026
2020.61 8.24240
2020.69 9.42427
2020.77 11.4474
2020.85 15.1167
2020.93 21.8753
2021.02 33.6141
2021.10 43.1066
2021.18 37.7250
2021.27 27.1788
2021.32 22.0192
2021.38 18.3405
2021.48 13.9047
2021.59 11.5097
2021.70 10.0945
2021.80 9.18414
2021.91 8.57283
2022.13 7.81352
2022.34 7.36962
2022.55 7.08531
2022.98 6.74443
2023.41 6.54736
2023.84 6.41798
2024.70 6.25372
2025.56 6.14734
2026.41 6.06754
2028.13 5.94314
2031.56 5.73698
2034.98 5.52400
2038.41 5.26314
2040.13 5.10171
2041.84 4.91517
2042.70 4.81583
2043.56 4.72236
2044.41 4.65899
2045.27 4.69634
2045.70 4.81085
2046.13 5.06590
2046.56 5.59807
2046.99 6.71734
2047.42 9.24953
2047.63 11.6921
2047.84 15.7850
2048.06 23.1606
2048.27 37.5539
2048.38 50.0713
2048.49 69.1393
2048.59 98.9695
2048.70 145.853
2048.85 247.312
2049.00 329.606
2049.15 282.486
2049.30 189.827
2049.44 129.888
2049.58 93.3326
2049.71 70.5847
2049.85 55.7955
2050.12 38.5359
2050.40 29.3237
2050.67 23.7742
2050.95 20.1726
2051.50 15.8598
2052.05 13.4353
2052.59 11.9101
2053.14 10.8735
2053.69 10.1280
2054.79 9.13386
2055.89 8.50445
2056.99 8.07103
2058.08 7.75414
2060.28 7.31995
2062.48 7.03361
2066.87 6.67081
2071.26 6.44178
2075.65 6.27743
2084.44 6.04443
2102.00 5.74034
2119.57 5.52317
2154.70 5.18840
2172.27 5.03931
2176.66 4.99992
2181.05 4.95599
2183.25 4.93015
2185.45 4.89933
2186.54 4.88238
2187.64 4.87242
2188.19 4.88524
2188.47 4.90849
2188.74 4.96094
2189.02 5.08605
2189.15 5.21083
2189.29 5.42604
2189.43 5.82601
2189.56 6.65154
2189.63 7.41486
2189.70 8.62014
2189.77 10.6615
2189.84 14.0668
2189.92 20.5715
2190.00 25.6583
2190.08 22.5001
2190.16 16.5825
2190.25 12.4767
2190.33 10.1019
2190.41 8.66399
2190.49 7.76752
2190.57 7.16261
2190.65 6.74543
2190.82 6.21149
2190.98 5.89591
2191.14 5.69231
2191.47 5.45145
2191.79 5.31607
2192.12 5.23101
2192.77 5.13044
2194.07 5.03523
2195.37 4.98735
2197.98 4.93346
2200.58 4.89866
2205.79 4.84658
2211.00 4.80285
2221.42 4.72415
2226.63 4.69192
2227.93 4.68916
2229.24 4.69864
2229.89 4.71921
2230.54 4.78056
2230.86 4.86040
2231.19 5.05246
2231.35 5.26694
2231.51 5.70383
2231.60 6.11170
2231.68 6.77421
2231.76 7.92671
2231.84 9.99046
2231.92 13.2114
2232.00 15.3201
2232.08 13.1699
2232.16 9.99064
2232.25 7.70936
2232.35 6.54607
2232.44 5.90891
2232.53 5.54004
2232.72 5.15209
2232.90 4.96638
2233.27 4.80100
2233.64 4.73095
2234.38 4.67163
2235.12 4.64537
2236.60 4.61806
2238.08 4.60027
2244.00 4.54169
2246.96 4.50961
2249.92 4.47056
2251.40 4.44678
2252.88 4.42309
2253.62 4.42092
2253.99 4.43135
2254.36 4.46405
2254.73 4.55622
2254.91 4.65730
2255.10 4.84372
2255.28 5.21803
2255.37 5.55361
2255.47 6.07497
2255.56 6.94940
2255.65 8.48286
2255.74 11.4034
2255.84 17.2426
2255.92 26.2470
2256.00 33.2415
2256.08 28.8010
2256.17 20.5790
2256.23 16.0591
2256.29 13.0317
2256.35 11.0092
2256.41 9.62277
2256.54 7.92529
2256.66 6.97961
2256.78 6.39162
2256.91 6.00301
2257.16 5.53517
2257.40 5.26925
2257.65 5.10241
2258.15 4.90715
2258.64 4.79837
2259.14 4.72938
2260.12 4.64642
2262.10 4.56323
2264.08 4.51691
2268.04 4.45638
2272.00 4.40863
2275.96 4.36193
2277.94 4.33661
2279.92 4.30829
2281.89 4.27497
2283.87 4.23533
2284.86 4.21768
2285.36 4.21544
2285.85 4.22867
2286.35 4.28827
2286.60 4.36464
2286.84 4.51742
2287.09 4.85247
2287.21 5.17150
2287.34 5.69700
2287.46 6.64028
2287.58 8.46676
2287.65 10.0688
2287.71 12.5203
2287.77 16.3813
2287.83 22.3745
2287.92 35.2082
2288.00 45.2101
2288.09 38.7975
2288.17 27.0465
2288.25 19.1914
2288.33 14.5869
2288.41 11.7676
2288.50 9.99594
2288.58 8.79412
2288.66 7.96236
2288.82 6.89469
2288.98 6.26260
2289.15 5.85486
2289.47 5.37345
2289.80 5.10424
2290.12 4.93624
2290.77 4.73998
2291.43 4.63011
2292.08 4.55984
2293.38 4.47398
2294.68 4.42180
2295.98 4.38518
2298.59 4.33374
2301.19 4.29583
2303.80 4.26420
2309.00 4.20914
2314.21 4.15763
2319.42 4.10428
2322.03 4.07473
2324.63 4.04108
2325.93 4.02249
2327.23 4.00712
2327.88 4.01004
2328.54 4.05343
2328.86 4.13381
2329.02 4.21781
2329.19 4.36645
2329.35 4.65550
2329.43 4.90715
2329.51 5.28746
2329.59 5.90568
2329.68 6.94284
2329.76 8.80621
2329.84 12.2636
2329.92 18.0379
2330.00 22.4933
2330.08 19.5897
2330.16 14.2944
2330.23 11.1408
2330.30 9.12808
2330.37 7.83768
2330.43 6.99113
2330.57 5.96957
2330.71 5.41715
2330.84 5.08033
2330.98 4.86169
2331.25 4.59942
2331.79 4.35767
2332.33 4.24793
2333.41 4.14476
2334.49 4.09316
2336.66 4.03443
2338.82 3.99497
2343.16 3.93037
2347.49 3.86636
2351.82 3.79150
2353.98 3.74562
2356.15 3.69010
2357.23 3.65732
2358.31 3.62048
2359.39 3.57967
2360.48 3.53827
2361.02 3.52137
2361.56 3.51376
2362.10 3.52923
2362.64 3.60396
2362.91 3.69167
2363.18 3.84845
2363.45 4.13579
2363.72 4.68871
2364.00 5.86302
2364.13 6.95300
2364.27 8.73524
2364.40 11.8817
2364.54 17.8584
2364.60 23.0021
2364.67 30.6018
2364.74 42.4600
2364.81 60.4591
2364.86 78.7003
2364.90 99.8784
2365.00 130.726
2365.10 110.910
2365.19 74.2560
2365.31 45.8208
2365.43 30.8928
2365.54 22.6708
2365.66 17.7655
2365.77 14.6237
2365.89 12.4919
2366.12 9.86724
2366.35 8.34941
2366.58 7.39130
2367.05 6.27104
2367.51 5.65420
2367.97 5.27060
2368.44 5.01149
2368.90 4.82567
2369.83 4.57763
2370.75 4.41994
2371.68 4.31019
2372.60 4.22878
2374.46 4.11404
2376.31 4.03463
2380.01 3.92438
2383.72 3.84236
2387.42 3.76872
2389.28 3.73081
2391.13 3.69166
2392.06 3.67648
2392.52 3.67547
2392.98 3.68828
2393.45 3.74031
2393.68 3.80454
2393.91 3.93006
2394.14 4.19916
2394.26 4.45104
2394.37 4.85986
2394.49 5.58169
2394.60 6.96438
2394.66 8.14673
2394.72 9.92357
2394.78 12.6605
2394.83 16.7969
2394.92 25.9029
2395.00 33.0293
2395.08 28.4392
2395.17 19.9663
2395.23 15.5104
2395.29 12.4882
2395.35 10.4456
2395.41 9.03278
2395.53 7.28716
2395.65 6.30061
2395.77 5.69037
2395.89 5.28579
2396.13 4.79759
2396.37 4.51965
2396.60 4.34524
2397.08 4.14118
2397.56 4.02771
2398.04 3.95613
2399.00 3.87203
2399.96 3.82838
2400.92 3.81817
2401.39 3.83829
2401.87 3.91329
2402.11 4.01181
2402.35 4.23646
2402.47 4.46905
2402.59 4.89744
2402.71 5.77905
2402.77 6.57200
2402.83 7.74458
2402.92 10.1831
2403.00 11.7854
2403.09 10.1504
2403.17 7.73911
2403.24 6.45289
2403.30 5.64465
2403.43 4.77796
2403.56 4.36935
2403.69 4.14990
2403.95 3.93506
2404.21 3.83707
2404.73 3.74910
2405.25 3.70866
2406.30 3.66681
2407.34 3.64117
2411.50 3.57193
2419.84 3.46131
2436.50 3.24131
2453.17 2.97694
2457.34 2.89662
2461.50 2.80600
2463.59 2.75510
2465.67 2.70032
2466.71 2.67469
2467.75 2.66630
2468.27 2.69298
2468.53 2.73239
2468.79 2.81438
2469.06 2.99784
2469.19 3.17347
2469.32 3.46757
2469.45 3.99694
2469.58 5.04925
2469.64 5.98294
2469.71 7.43722
2469.77 9.78136
2469.84 13.5965
2469.92 21.1396
2470.00 26.8581
2470.08 22.8970
2470.17 15.9074
2470.24 11.3150
2470.32 8.61702
2470.40 6.97760
2470.48 5.93105
2470.63 4.73584
2470.79 4.10728
2470.95 3.73475
2471.10 3.49404
2471.41 3.20792
2471.73 3.04624
2472.04 2.94353
2472.66 2.81885
2473.91 2.68986
2475.16 2.61284
2477.66 2.50075
2480.16 2.40310
2485.15 2.20496
2490.15 1.98437
2492.65 1.86666
2495.14 1.75273
2497.64 1.66601
2500.14 1.67569
2502.64 2.01052
2503.89 2.52133
2505.14 3.61934
2505.76 4.60585
2506.38 6.12772
2507.01 8.57054
2507.63 12.6762
2508.26 20.0757
2508.57 26.0420
2508.88 34.6131
2509.19 47.3040
2509.51 66.7019
2509.82 97.1752
2510.13 145.315
2510.57 249.501
2511.00 334.497
2511.44 286.108
2511.87 190.990
2512.38 117.605
2512.89 78.1932
2513.39 56.0963
2513.90 42.7515
2514.41 34.0887
2514.92 28.1663
2515.93 20.7594
2516.95 16.4411
2517.96 13.6734
2519.99 10.4019
2522.02 8.56875
2524.05 7.41133
2528.11 6.03943
2532.17 5.25042
2536.23 4.73046
2544.35 4.06220
2552.47 3.61925
2560.59 3.27459
2568.72 2.97847
2570.75 2.91122
2572.78 2.85283
2573.79 2.83562
2574.81 2.85339
2575.31 2.90934
2575.57 2.97220
2575.82 3.08806
2576.07 3.32378
2576.20 3.53765
2576.33 3.88259
2576.46 4.48100
2576.58 5.62617
2576.65 6.62303
2576.71 8.11690
2576.77 10.4552
2576.84 14.1353
2576.92 21.3757
2577.00 26.4156
2577.08 21.9866
2577.17 15.0104
2577.24 10.7791
2577.31 8.25799
2577.39 6.69094
2577.46 5.70070
2577.61 4.56179
2577.75 3.97080
2577.90 3.62183
2578.05 3.40070
2578.34 3.14159
2578.63 2.99915
2578.92 2.91027
2579.51 2.80501
2580.68 2.69964
2581.85 2.63894
2586.54 2.50216
2591.23 2.46066
2595.92 2.59911
2598.26 2.81820
2600.61 3.24491
2602.95 4.06969
2605.29 5.73045
2606.47 7.17905
2607.64 9.39156
2608.81 12.9226
2609.98 18.8993
2611.15 29.8604
2611.74 38.9374
2612.33 52.3432
2612.91 72.9700
2613.50 106.205
2614.08 162.206
2614.67 258.266
2615.34 430.059
2616.00 560.387
2616.67 467.857
2617.34 305.154
2617.80 224.553
2618.26 169.059
2618.71 131.018
2619.17 104.457
2620.09 71.2249
2621.00 52.2667
2621.92 40.4788
2622.83 32.6627
2624.66 23.2116
2626.49 17.8783
2628.32 14.5402
2631.98 10.6789
2635.65 8.55496
2639.31 7.22176
2646.63 5.62864
2653.95 4.67567
2661.27 3.99905
2668.59 3.44285
2672.26 3.15891
2673.17 3.07554
2674.09 2.98068
2674.54 2.93250
2675.00 2.91404
2675.23 2.96677
2675.34 3.04824
2675.46 3.21995
2675.57 3.60962
2675.63 3.98042
2675.69 4.59543
2675.74 5.68132
2675.80 7.76443
2675.86 12.1984
2675.89 16.3552
2675.92 22.7004
2675.94 29.2631
2675.96 37.0065
2676.00 48.5017
2676.04 41.9199
2676.08 28.8517
2676.11 22.4413
2676.14 17.9961
2676.19 12.5811
2676.25 9.62098
2676.30 7.91374
2676.36 6.80805
2676.41 6.07403
2676.52 5.15725
2676.63 4.62691
2676.74 4.28756
2676.96 3.88598
2677.39 3.50817
2677.83 3.32543
2678.70 3.13219
2679.57 3.01736
2683.05 2.73490
2690.02 2.33070
2696.98 1.99930
2703.95 1.79948
2707.43 1.82147
2710.91 2.02723
2714.40 2.60581
2716.14 3.15548
2717.88 4.00319
2719.62 5.32422
2721.36 7.42461
2723.10 10.8839
2724.85 16.8638
2726.59 27.9636
2727.46 37.1638
2728.33 50.6663
2729.20 71.2388
2730.07 103.733
2730.94 157.032
2731.81 245.247
2732.91 420.835
2734.00 563.399
2735.10 482.104
2736.19 321.922
2737.11 225.728
2738.02 164.014
2738.94 124.195
2739.85 97.6547
2741.68 65.9499
2743.51 48.5444
2745.35 37.9273
2747.18 30.9121
2749.01 25.9471
2749.92 23.9475
2750.15 23.5098
2750.38 23.1683
2750.50 23.1042
2750.61 23.2430
2750.72 23.9183
2750.78 24.7262
2750.84 26.1497
2750.92 29.7050
2751.00 33.3523
2751.08 32.6031
2751.16 29.5717
2751.22 27.7609
2751.28 26.4447
2751.39 24.7430
2751.51 23.7341
2751.62 23.0650
2751.85 22.1730
2752.08 21.5593
2753.00 19.9235
2754.83 17.6999
2758.50 14.6499
2762.17 12.5496
2764.01 11.6979
2764.46 11.4997
2764.92 11.3219
2765.15 11.2628
2765.38 11.2847
2765.50 11.3849
2765.61 11.6463
2765.73 12.3303
2765.78 13.0245
2765.84 14.1663
2765.92 16.8331
2766.00 19.2740
2766.08 18.4407
2766.16 16.1757
2766.21 14.9771
2766.27 14.0983
2766.37 13.0013
2766.48 12.3780
2766.58 11.9878
2766.79 11.5275
2767.00 11.2565
2767.42 10.9214
2767.84 10.6943
2769.52 10.0670
2772.89 9.15676
2779.61 7.81672
2786.34 6.82722
2793.06 6.07718
2799.79 5.62786
2803.15 5.64745
2806.51 6.07797
2809.87 7.53621
2811.56 9.16891
2813.24 12.1317
2814.92 17.8417
2815.76 22.6931
2816.60 29.9353
2817.44 41.1697
2818.28 59.2699
2819.12 89.6474
2819.96 141.236
2820.98 242.145
2822.00 326.113
2823.02 282.211
2824.04 191.324
2825.03 129.434
2826.02 92.2129
2827.00 69.4560
2827.99 54.8336
2828.98 44.9483
2829.96 37.9609
2831.94 28.9464
2833.91 23.5119
2835.89 19.9375
2837.86 17.4256
2838.35 16.9306
2838.85 16.5472
2839.09 16.4739
2839.34 16.6731
2839.47 17.0560
2839.59 17.9342
2839.65 18.7664
2839.71 20.0678
2839.77 22.2191
2839.83 25.6660
2839.92 33.0933
2840.00 39.3158
2840.08 36.0449
2840.17 29.2554
2840.23 25.4308
2840.29 22.8720
2840.35 21.1290
2840.42 19.9087
2840.54 18.3534
2840.66 17.4398
2840.79 16.8339
2840.91 16.4049
2841.16 15.8170
2841.66 15.0993
2842.16 14.6166
2843.15 13.8985
2844.15 13.3302
2848.12 11.6912
2852.10 10.5848
2856.08 9.77264
2864.04 8.64541
2871.99 7.88473
2879.95 7.32054
2887.90 6.86467
2891.88 6.65495
2895.86 6.43722
2897.85 6.31281
2898.84 6.24147
2899.84 6.16017
2900.83 6.06519
2901.33 6.01324
2901.83 5.96405
2902.32 5.94055
2902.57 5.96350
2902.82 6.05213
2903.07 6.30960
2903.19 6.58355
2903.32 7.06522
2903.44 7.96750
2903.57 9.76126
2903.63 11.3311
2903.69 13.7203
2903.75 17.4386
2903.82 23.2427
2903.86 29.4880
2903.91 36.9733
2904.00 48.8863
2904.09 43.7220
2904.19 31.8456
2904.25 25.1878
2904.32 20.5967
2904.39 17.4536
2904.46 15.2811
2904.59 12.5225
2904.73 10.9253
2904.86 9.90911
2905.00 9.22730
2905.27 8.37918
2905.54 7.88011
2905.81 7.55696
2906.35 7.16394
2906.89 6.93269
2907.43 6.77878
2908.51 6.58132
2909.59 6.45359
2910.67 6.35933
2912.84 6.21897
2917.16 6.01541
2921.49 5.84655
2925.81 5.68185
2927.98 5.59330
2930.14 5.49399
2932.30 5.37373
2933.38 5.30008
2934.46 5.21282
2935.55 5.10938
2936.09 5.05508
2936.63 5.01159
2937.17 5.02152
2937.44 5.09021
2937.71 5.27384
2937.98 5.74266
2938.11 6.21637
2938.25 7.02534
2938.38 8.48418
2938.52 11.3170
2938.65 17.3502
2938.72 22.8930
2938.79 31.1990
2938.84 40.3619
2938.90 51.5219
2939.00 68.9127
2939.11 61.0628
2939.21 43.3765
2939.30 32.3983
2939.39 25.2198
2939.48 20.5290
2939.56 17.3628
2939.74 13.5314
2939.92 11.3940
2940.09 10.0738
2940.27 9.19432
2940.62 8.11895
2940.97 7.49435
2941.32 7.09264
2942.02 6.60764
2942.73 6.32854
2943.43 6.16579
2943.78 6.13819
2944.13 6.21177
2944.31 6.35988
2944.49 6.73549
2944.57 7.12802
2944.66 7.82876
2944.75 9.16334
2944.84 11.7692
2944.92 15.9685
2945.00 19.3027
2945.08 17.2969
2945.16 13.4802
2945.23 11.3225
2945.29 9.90747
2945.35 8.96201
2945.41 8.31261
2945.54 7.50817
2945.66 7.05612
2945.91 6.58027
2946.16 6.34113
2946.66 6.09944
2947.15 5.97310
2948.15 5.82972
2949.14 5.74068
2951.13 5.62092
2953.12 5.53484
2957.10 5.40518
2961.08 5.30257
2977.00 4.98812
2992.92 4.72802
3000.88 4.60114
3004.86 4.53275
3005.85 4.51539
3006.85 4.50330
3007.35 4.50790
3007.84 4.54685
3008.09 4.61180
3008.34 4.78383
3008.47 4.98227
3008.59 5.37590
3008.71 6.26657
3008.78 7.13505
3008.84 8.53915
3008.92 11.3916
3009.00 13.6500
3009.08 12.2373
3009.16 9.59337
3009.23 7.94873
3009.31 6.92998
3009.38 6.29249
3009.45 5.87649
3009.59 5.39071
3009.74 5.12950
3010.03 4.86939
3010.31 4.74577
3010.89 4.62891
3011.46 4.57239
3012.61 4.51278
3013.76 4.47693
3018.36 4.38457
3027.56 4.23799
3045.97 3.94246
3055.17 3.77363
3064.37 3.56746
3068.97 3.43298
3071.27 3.34958
3073.57 3.24743
3075.87 3.11399
3077.02 3.02894
3078.17 2.92713
3079.32 2.81049
3079.90 2.75633
3080.47 2.73019
3081.05 2.81043
3081.33 2.96758
3081.62 3.32554
3081.91 4.16814
3082.05 4.99139
3082.20 6.35627
3082.34 8.78417
3082.41 10.7059
3082.48 13.4112
3082.56 17.3107
3082.63 23.0641
3082.70 31.7060
3082.77 44.4582
3082.83 58.8567
3082.89 75.9997
3083.00 102.816
3083.06 101.020
3083.12 89.9503
3083.23 61.9050
3083.35 41.4652
3083.47 29.5617
3083.59 22.4758
3083.71 18.0061
3083.83 15.0226
3083.95 12.9326
3084.19 10.2684
3084.43 8.66974
3084.67 7.63168
3085.15 6.38018
3085.63 5.66591
3086.11 5.21052
3087.06 4.66495
3088.02 4.34849
3088.98 4.13995
3090.90 3.87449
3092.82 3.70434
3094.73 3.57887
3098.57 3.39049
3106.23 3.10690
3113.90 2.87053
3117.73 2.77509
3121.57 2.71849
3125.40 2.75354
3129.24 3.01963
3133.07 3.94026
3134.99 5.03364
3136.90 7.14993
3137.86 8.94455
3138.82 11.6179
3139.78 15.7654
3140.74 22.5126
3141.70 34.2467
3142.65 56.3942
3143.13 75.0752
3143.61 102.794
3144.09 144.837
3144.57 208.678
3145.29 352.395
3146.00 465.558
3146.72 394.070
3147.43 260.816
3148.06 178.789
3148.68 127.649
3149.31 95.4924
3149.94 74.4709
3151.19 49.8463
3152.44 36.6075
3153.70 28.6625
3154.95 23.4953
3157.46 17.3422
3159.96 13.9004
3162.47 11.7448
3164.97 10.2840
3167.48 9.23495
3172.49 7.83415
3177.50 6.94025
3182.52 6.31376
3187.53 5.84201
3197.55 5.14468
3202.57 4.85683
3207.58 4.57833
3212.59 4.28234
3215.10 4.11602
3217.60 3.92954
3218.86 3.82804
3220.11 3.72374
3221.36 3.62648
3222.61 3.56890
3223.24 3.58376
3223.87 3.66742
3224.49 3.89384
3225.12 4.43705
3225.75 5.77718
3226.06 7.14049
3226.37 9.51735
3226.69 13.9955
3226.84 17.7531
3227.00 23.2951
3227.16 31.8958
3227.31 45.6387
3227.47 68.8039
3227.63 107.945
3227.81 182.959
3228.00 243.749
3228.19 208.731
3228.37 140.143
3228.57 91.5761
3228.76 63.7356
3228.95 47.2698
3229.15 36.9456
3229.34 30.0649
3229.53 25.3008
3229.92 19.2548
3230.31 15.6745
3230.69 13.3699
3231.47 10.6301
3232.24 9.09419
3233.01 8.12636
3233.79 7.46563
3234.56 6.98802
3236.10 6.34281
3237.65 5.92637
3239.20 5.63310
3240.74 5.41344
3243.83 5.10030
3246.92 4.88165
3253.11 4.58005
3259.29 4.36617
3265.47 4.19435
3271.66 4.04215
3274.75 3.96743
3275.52 3.95118
3276.29 3.94658
3276.68 3.96315
3277.07 4.03332
3277.26 4.13312
3277.45 4.37199
3277.55 4.62311
3277.65 5.07531
3277.74 5.97971
3277.84 7.85971
3277.92 10.6366
3278.00 12.8395
3278.08 11.4744
3278.16 8.90403
3278.22 7.53833
3278.28 6.62549
3278.40 5.57335
3278.51 5.03302
3278.63 4.72821
3278.86 4.40964
3279.09 4.25365
3279.56 4.10405
3280.02 4.03218
3280.96 3.95812
3281.89 3.91541
3285.61 3.81246
3293.05 3.65887
3300.50 3.49369
3302.36 3.43695
3304.22 3.35624
3305.15 3.29420
3306.08 3.19666
3306.55 3.12138
3307.01 3.02078
3307.24 2.97512
3307.48 3.01888
3307.59 3.20838
3307.71 3.88640
3307.77 4.80895
3307.83 6.93397
3307.85 9.06096
3307.88 12.7461
3307.91 19.5198
3307.93 25.1659
3307.94 32.8424
3307.97 55.4080
3308.00 74.2409
3308.02 72.7483
3308.03 64.9973
3308.06 44.8656
3308.09 30.9592
3308.12 22.5622
3308.15 17.4761
3308.17 14.3214
3308.23 10.6005
3308.29 8.61342
3308.40 6.63819
3308.52 5.69893
3308.74 4.82680
3308.97 4.42613
3309.43 4.05406
3309.88 3.87856
3310.80 3.70656
3311.71 3.61810
3313.53 3.51910
3315.36 3.45742
3322.66 3.30045
3337.25 3.06684
3366.45 2.63809
3381.05 2.43048
3395.64 2.24423
3410.24 2.13824
3417.54 2.17296
3421.19 2.24754
3423.01 2.34091
3423.47 2.39510
3423.93 2.50610
3424.15 2.62343
3424.38 2.86699
3424.50 3.10581
3424.61 3.53231
3424.72 4.38533
3424.78 5.13748
3424.84 6.25624
3424.92 8.51353
3425.00 9.92944
3425.08 8.29351
3425.16 5.98644
3425.23 4.73435
3425.30 3.97967
3425.43 3.20959
3425.56 2.86599
3425.69 2.69338
3425.96 2.53906
3426.22 2.48090
3426.75 2.45060
3427.28 2.45754
3429.40 2.57000
3433.63 2.97227
3437.86 3.69947
3442.09 5.07389
3446.32 7.94149
3448.44 10.6201
3450.56 15.0819
3452.67 23.2168
3453.73 29.9919
3454.79 40.1290
3455.85 56.1048
3456.90 82.8974
3457.96 130.949
3459.02 220.452
3460.01 353.961
3461.00 443.877
3461.99 356.144
3462.98 223.181
3463.62 162.810
3464.25 121.090
3465.52 72.1239
3466.79 46.8824
3468.06 32.5879
3469.33 23.7968
3470.60 18.0415
3473.14 11.2271
3475.68 7.51155
3478.23 5.29041
3480.77 3.90676
3483.31 3.07509
3485.85 2.69015
3488.39 2.77181
3490.93 3.47710
3493.47 5.19680
3494.74 6.68849
3496.01 8.85482
3497.28 12.0537
3498.55 16.9208
3499.82 24.7759
3501.09 38.9494
3501.73 51.4125
3502.36 72.9185
3502.68 91.3002
3503.00 121.209
3503.16 144.467
3503.32 177.519
3503.47 226.105
3503.63 296.636
3503.82 397.930
3504.00 421.218
3504.18 295.716
3504.37 174.193
3504.54 114.992
3504.71 87.5195
3504.88 75.8510
3505.05 72.1810
3505.39 76.0640
3505.73 87.1614
3506.42 121.179
3507.10 169.264
3508.55 321.530
3510.00 460.072
3510.73 459.494
3511.45 412.877
3512.90 285.859
3513.79 223.789
3514.68 177.719
3516.46 119.217
3518.24 86.2511
3520.02 66.1737
3521.80 53.0578
3523.58 44.0013
3527.13 32.5433
3530.69 25.7417
3534.25 21.3091
3541.37 15.9490
3548.49 12.8542
3555.60 10.8381
3562.72 9.39613
3566.28 8.78408
3567.17 8.62982
3568.06 8.47170
3568.50 8.39710
3568.95 8.35689
3569.17 8.39355
3569.39 8.57867
3569.50 8.82907
3569.61 9.35904
3569.73 10.5779
3569.78 11.7636
3569.84 13.6103
3569.92 18.0180
3570.00 22.0322
3570.08 20.5781
3570.16 16.7923
3570.23 14.3870
3570.30 12.8007
3570.37 11.7560
3570.44 11.0449
3570.58 10.1723
3570.72 9.67406
3570.99 9.14016
3571.27 8.85899
3571.82 8.55504
3572.37 8.37761
3573.47 8.14354
3574.58 7.96916
3578.99 7.43827
3587.82 6.63082
3605.47 5.43473
3623.12 4.50559
3640.77 3.68177
3658.42 2.87658
3667.24 2.47733
3676.07 2.12180
3684.90 1.98005
3689.31 2.17443
3693.72 2.86850
3695.93 3.60873
3698.13 4.85409
3700.34 6.99605
3702.55 10.8397
3704.75 18.2189
3705.86 24.4806
3706.96 33.8519
3708.06 48.4096
3709.16 71.9886
3710.27 111.741
3711.37 179.802
3712.69 310.600
3714.00 418.756
3715.32 360.896
3716.64 242.537
3717.53 182.750
3718.41 140.587
3719.30 111.094
3720.19 90.1030
3721.96 63.3249
3723.74 47.6486
3725.51 37.6638
3727.28 30.8323
3729.06 25.7780
3729.50 24.6685
3729.95 23.6109
3730.17 23.1407
3730.39 22.8567
3730.50 22.9389
3730.61 23.4540
3730.72 25.1056
3730.78 26.8839
3730.83 29.8777
3730.92 37.8580
3731.00 46.4105
3731.08 45.4065
3731.17 39.0863
3731.24 34.7539
3731.31 31.7077
3731.38 29.5882
3731.44 28.0897
3731.58 26.0871
3731.72 24.8365
3731.99 23.2919
3732.27 22.3114
3732.82 20.9717
3733.37 19.9837
3735.56 17.1842
3739.96 13.5604
3742.16 12.1860
3744.35 10.9087
3745.45 10.2526
3746.00 9.91156
3746.55 9.57186
3747.10 9.28438
3747.38 9.22086
3747.65 9.31545
3747.93 9.81511
3748.06 10.4083
3748.20 11.4773
3748.34 13.4669
3748.47 17.2823
3748.61 25.0866
3748.68 31.9134
3748.75 41.7299
3748.81 54.3415
3748.87 70.1336
3749.00 97.1002
3749.13 89.3944
3749.25 65.7589
3749.38 47.8877
3749.51 37.0335
3749.64 30.2623
3749.76 25.8897
3749.89 22.8676
3750.02 20.7164
3750.27 17.8748
3750.53 16.0999
3750.78 14.9017
3751.29 13.3761
3751.80 12.4344
3752.31 11.7838
3753.33 10.9091
3754.35 10.3150
3755.36 9.86258
3757.40 9.17630
3761.47 8.20733
3765.55 7.48852
3773.69 6.40558
3777.77 5.97679
3778.78 5.88616
3779.80 5.81961
3780.31 5.81447
3780.82 5.87788
3781.08 5.98855
3781.33 6.26819
3781.46 6.57596
3781.58 7.16348
3781.71 8.44071
3781.78 9.66255
3781.84 11.5591
3781.92 15.1485
3782.00 17.5388
3782.08 15.1381
3782.16 11.5347
3782.24 9.28363
3782.32 8.00451
3782.40 7.23927
3782.47 6.76828
3782.63 6.23933
3782.78 5.96860
3783.09 5.70387
3783.40 5.57468
3784.02 5.43615
3784.64 5.34869
3787.11 5.09790
3792.06 4.67276
3801.95 3.87087
3806.90 3.46179
3811.84 3.02445
3814.32 2.79048
3815.56 2.67343
3816.79 2.56810
3818.03 2.51388
3818.65 2.54764
3819.27 2.69465
3819.88 3.13922
3820.19 3.63318
3820.50 4.54729
3820.81 6.38744
3820.97 8.03768
3821.12 10.6231
3821.28 14.9694
3821.43 22.7141
3821.51 29.0297
3821.58 37.9090
3821.66 50.7092
3821.74 69.0948
3821.87 114.912
3822.00 150.344
3822.13 126.549
3822.26 83.6172
3822.38 56.1581
3822.51 39.7304
3822.63 29.5844
3822.75 23.1264
3822.99 15.6769
3823.23 11.7431
3823.48 9.40690
3823.72 7.89646
3824.21 6.10527
3824.69 5.09702
3825.18 4.45856
3826.15 3.69588
3827.12 3.24686
3828.09 2.94191
3830.03 2.53226
3833.92 2.05264
3837.81 1.87299
3839.75 1.96079
3841.69 2.28362
3843.64 3.05262
3844.61 3.73470
3845.58 4.74380
3846.55 6.25595
3847.52 8.56206
3848.49 12.1904
3849.46 18.1196
3850.44 28.3599
3851.41 47.2593
3851.89 62.7768
3852.38 85.1529
3852.87 117.887
3853.35 165.513
3854.18 287.219
3855.00 388.864
3855.83 336.411
3856.66 226.754
3857.22 171.236
3857.77 132.060
3858.89 85.0027
3860.00 59.9581
3861.11 45.2721
3862.22 35.9293
3863.33 29.5919
3865.56 21.7116
3867.78 17.0980
3870.01 14.1026
3874.45 10.4541
3878.90 8.28334
3883.35 6.79635
3892.25 4.74357
3901.14 3.21155
3905.59 2.54548
3910.04 1.96583
3914.49 1.58705
3916.71 1.57114
3918.93 1.79622
3921.16 2.47249
3922.27 3.10362
3923.38 4.05030
3924.49 5.47429
3925.61 7.67590
3926.72 11.4877
3927.00 13.0698
3927.27 15.4095
3927.41 17.2126
3927.55 19.9864
3927.69 24.9590
3927.76 29.1857
3927.83 35.2478
3927.92 45.0014
3928.00 48.7618
3928.09 39.0067
3928.17 28.6033
3928.25 23.0701
3928.34 20.4748
3928.50 18.9617
3928.67 19.2137
3928.84 20.0782
3929.50 25.6705
3930.83 44.4394
3931.49 59.5787
3932.15 80.9812
3932.82 111.648
3933.48 155.285
3934.74 281.775
3936.00 396.618
3937.26 355.038
3938.52 246.899
3939.75 169.675
3940.98 122.218
3942.21 92.7600
3943.44 73.5963
3945.89 51.1083
3948.35 38.8489
3950.81 31.3350
3953.26 26.3318
3958.18 20.1475
3963.09 16.4845
3968.01 14.0389
3972.92 12.2325
3975.38 11.4248
3975.99 11.2108
3976.61 10.9887
3976.91 10.8897
3977.22 10.8630
3977.38 10.9561
3977.53 11.2901
3977.61 11.6831
3977.68 12.4146
3977.76 13.8250
3977.84 16.5450
3977.92 21.9047
3978.00 27.1253
3978.08 25.9516
3978.17 21.6604
3978.26 18.0561
3978.35 15.9393
3978.44 14.6549
3978.53 13.8265
3978.71 12.8469
3978.90 12.3023
3979.26 11.7081
3979.62 11.3784
3980.35 10.9858
3981.08 10.7287
3984.00 10.0849
3985.46 9.86954
3986.91 9.70278
3987.64 9.63255
3988.37 9.57309
3988.74 9.56792
3989.10 9.66851
3989.28 9.87547
3989.47 10.4554
3989.56 11.1109
3989.65 12.3511
3989.74 14.8556
3989.83 20.1430
3989.92 29.3064
3990.00 38.1523
3990.09 35.9436
3990.17 28.4857
3990.25 23.1726
3990.33 19.8077
3990.41 17.6479
3990.48 16.2110
3990.64 14.5020
3990.80 13.5744
3991.11 12.6783
3991.42 12.3205
3992.05 12.2038
3992.67 12.4661
3993.92 13.7609
3995.17 16.3334
3996.42 21.2129
3997.67 30.9720
3998.30 39.4811
3998.92 52.3894
3999.55 72.4106
4000.17 103.519
4001.09 173.984
4002.00 232.908
4002.92 202.562
4003.84 139.015
4004.58 101.494
4005.33 76.8818
4006.07 60.6861
4006.81 49.7199
4008.30 36.3769
4009.78 28.9002
4011.26 24.2564
4012.75 21.1466
4015.72 17.3010
4018.69 15.0360
4021.66 13.5453
4027.60 11.6839
4033.54 10.5416
4039.47 9.74686
4051.35 8.66796
4063.23 7.92578
4075.11 7.34461
4081.05 7.08241
4086.99 6.81705
4089.96 6.67000
4092.92 6.49175
4094.41 6.37533
4095.15 6.30400
4095.89 6.21936
4096.64 6.11786
4097.38 6.01096
4097.75 5.99113
4097.94 6.02149
4098.12 6.12571
4098.31 6.41611
4098.40 6.72058
4098.49 7.24322
4098.58 8.21107
4098.68 10.1319
4098.77 14.3482
4098.82 18.2446
4098.86 24.2853
4098.93 38.4599
4099.00 50.7418
4099.07 45.2001
4099.14 32.7489
4099.18 26.6566
4099.23 22.3539
4099.31 17.0253
4099.40 14.2484
4099.49 12.8396
4099.57 12.3217
4099.66 12.6836
4099.75 14.3328
4099.83 18.2556
4099.92 25.4790
4100.00 31.8191
4100.09 28.8671
4100.17 22.2178
4100.26 17.0300
4100.36 14.0233
4100.45 12.2242
4100.54 11.0829
4100.73 9.73047
4100.91 8.98363
4101.28 8.18572
4101.65 7.76707
4102.39 7.32534
4103.14 7.08894
4103.88 6.93613
4104.62 6.82605
4106.10 6.67031
4109.07 6.46769
4112.03 6.31965
4117.97 6.07481
4123.90 5.84440
4129.83 5.59408
4132.79 5.44848
4135.76 5.27690
4138.73 5.06269
4140.21 4.93290
4141.69 4.78799
4142.43 4.71446
4143.18 4.64990
4143.92 4.61577
4144.66 4.67071
4145.40 4.99418
4145.77 5.41879
4146.14 6.25922
4146.51 8.02919
4146.70 9.62745
4146.88 12.1412
4147.07 16.3037
4147.25 23.4976
4147.44 36.7176
4147.62 61.8182
4147.81 105.659
4148.00 142.992
4148.19 125.320
4148.38 86.6651
4148.57 59.2435
4148.75 42.9886
4148.94 33.0797
4149.13 26.7812
4149.32 22.5143
4149.51 19.5205
4149.89 15.6536
4150.26 13.3297
4150.64 11.8082
4151.39 9.97341
4152.15 8.92252
4152.90 8.25007
4153.65 7.78359
4154.41 7.44195
4155.91 6.97233
4157.42 6.66240
4160.44 6.26841
4163.45 6.01718
4166.46 5.83399
4172.49 5.56531
4184.55 5.18207
4196.61 4.86617
4208.67 4.56267
4220.72 4.24131
4226.75 4.06248
4232.78 3.86010
4235.79 3.74422
4238.81 3.61183
4240.32 3.53601
4241.82 3.45103
4242.58 3.40620
4243.33 3.37101
4243.71 3.37556
4244.08 3.45120
4244.27 3.57911
4244.46 3.90258
4244.55 4.24824
4244.65 4.88216
4244.74 6.13543
4244.84 8.74643
4244.92 12.7692
4245.00 16.1184
4245.08 14.3834
4245.16 10.7603
4245.25 8.19797
4245.33 6.70016
4245.41 5.79372
4245.49 5.21473
4245.66 4.54843
4245.82 4.19125
4246.15 3.82899
4246.48 3.64732
4247.13 3.45681
4247.79 3.34611
4249.10 3.19452
4250.42 3.07961
4251.73 3.01556
4252.39 3.03998
4253.04 3.17247
4253.70 3.59364
4254.03 4.06840
4254.36 4.94768
4254.68 6.70714
4254.85 8.24939
4255.01 10.6317
4255.18 14.4861
4255.34 21.0762
4255.50 33.0210
4255.67 55.3902
4255.83 93.2940
4256.00 124.152
4256.17 106.655
4256.33 72.0748
4256.46 52.6273
4256.59 39.6850
4256.72 31.0861
4256.84 25.2132
4257.10 18.0390
4257.36 14.0170
4257.61 11.5342
4257.87 9.88592
4258.38 7.88002
4258.89 6.73078
4259.40 5.99641
4260.43 5.11847
4261.45 4.60930
4262.48 4.27060
4264.52 3.82819
4266.57 3.52686
4268.62 3.28632
4272.71 2.87444
4276.81 2.49381
4278.86 2.32800
4280.91 2.23467
4282.95 2.38998
4283.98 2.73096
4285.00 3.51559
4285.51 4.23249
4286.02 5.33927
4286.54 7.09335
4287.05 9.97839
4287.56 14.9660
4288.07 24.1597
4288.33 31.6641
4288.58 42.4221
4288.84 58.0428
4289.10 80.5444
4289.55 141.000
4290.00 193.019
4290.45 169.277
4290.91 116.045
4291.41 74.7273
4291.92 51.5652
4292.43 38.1628
4292.94 29.8629
4293.45 24.3869
4293.96 20.5783
4294.98 15.7332
4296.00 12.8452
4297.01 10.9574
4299.05 8.66696
4301.09 7.33591
4303.12 6.46208
4307.19 5.36187
4311.26 4.66423
4315.34 4.15135
4323.48 3.37603
4331.62 2.78979
4335.69 2.61109
4339.76 2.65476
4343.84 3.34081
4345.87 4.31009
4347.91 6.28146
4348.93 7.97653
4349.94 10.5016
4350.96 14.3729
4351.98 20.5343
4353.00 30.8180
4354.02 49.0143
4355.03 83.3519
4355.54 111.456
4356.05 150.671
4357.03 261.984
4358.00 355.978
4358.98 309.469
4359.96 209.851
4360.58 161.773
4361.20 126.957
4362.43 83.9095
4363.67 60.3214
4364.90 46.2291
4366.14 37.1522
4367.38 30.9412
4369.85 23.1460
4372.32 18.5218
4374.79 15.4495
4376.03 14.2566
4376.65 13.7322
4377.26 13.2757
4377.88 12.9635
4378.19 12.9381
4378.50 13.1229
4378.81 13.7930
4378.96 14.5245
4379.12 15.7806
4379.27 18.0435
4379.43 22.2978
4379.58 30.9297
4379.74 49.3836
4379.87 78.1334
4380.00 102.580
4380.13 91.0723
4380.27 65.7436
4380.39 48.4926
4380.51 37.9191
4380.64 31.3018
4380.76 26.9665
4381.01 21.8455
4381.26 19.0252
4381.51 17.2750
4381.75 16.0899
4382.25 14.5813
4382.75 13.6431
4383.24 12.9845
4384.23 12.0789
4385.23 11.4459
4386.22 10.9541
4388.20 10.1979
4392.17 9.13841
4396.14 8.38441
4404.08 7.33144
4412.02 6.60157
4419.96 6.04569
4427.89 5.59585
4431.86 5.40244
4435.83 5.24000
4437.82 5.18829
4439.80 5.21008
4440.79 5.31464
4441.29 5.43510
4441.79 5.66080
4442.28 6.12629
4442.53 6.55775
4442.78 7.27274
4443.03 8.57047
4443.15 9.64836
4443.27 11.2587
4443.40 13.7937
4443.52 18.0425
4443.65 25.6635
4443.77 39.8708
4443.89 61.0443
4444.00 75.0245
4444.12 60.8738
4444.23 39.8944
4444.34 27.3222
4444.44 19.9582
4444.54 15.5125
4444.65 12.7007
4444.86 9.53312
4445.07 7.92400
4445.27 6.99518
4445.48 6.41661
4445.90 5.75760
4446.32 5.40636
4446.73 5.19441
4447.56 4.95245
4448.40 4.81522
4449.23 4.72203
4450.90 4.59086
4454.23 4.40096
4457.56 4.23522
4460.89 4.07001
4464.22 3.89078
4465.89 3.78781
4467.56 3.66600
4468.39 3.59562
4469.22 3.53302
4469.64 3.53850
4470.06 3.69199
4470.26 3.98715
4470.37 4.29610
4470.47 4.84658
4470.58 5.90602
4470.68 8.18998
4470.73 10.3687
4470.78 13.9983
4470.84 20.3682
4470.89 32.0825
4470.94 52.1974
4471.00 68.5913
4471.06 58.7188
4471.11 40.1942
4471.18 25.7101
4471.24 18.0816
4471.31 13.7637
4471.37 11.2052
4471.50 8.40147
4471.63 6.99397
4471.90 5.64105
4472.16 5.01975
4472.68 4.44681
4473.20 4.17856
4474.25 3.90917
4475.29 3.75960
4477.38 3.56538
4479.47 3.41672
4483.66 3.14733
4485.75 3.00954
4486.27 2.98132
4486.79 2.98131
4487.05 3.02357
4487.31 3.17405
4487.45 3.36741
4487.58 3.77515
4487.71 4.76356
4487.77 5.76481
4487.84 7.43968
4487.92 10.8297
4488.00 13.6779
4488.08 12.2286
4488.16 9.18013
4488.22 7.68070
4488.27 6.60470
4488.38 5.29741
4488.48 4.57936
4488.59 4.15568
4488.80 3.69240
4489.01 3.45377
4489.43 3.21412
4489.85 3.09103
4490.70 2.95385
4491.54 2.86726
4494.92 2.64446
4498.29 2.51021
4501.67 2.52459
4505.04 2.95933
4506.73 3.58221
4508.42 4.84395
4510.11 7.50414
4510.95 9.90085
4511.80 13.6427
4512.64 19.7233
4513.48 30.0851
4514.33 48.6300
4515.17 82.5888
4516.09 144.661
4517.00 198.449
4517.92 174.433
4518.84 119.682
4519.78 80.1939
4520.72 56.8447
4521.66 42.7423
4522.59 33.7617
4523.53 27.7081
4524.47 23.4397
4526.35 17.9272
4528.22 14.5912
4530.10 12.3877
4533.85 9.68231
4537.61 8.08276
4541.36 7.01120
4548.87 5.60480
4556.38 4.64314
4560.13 4.25533
4563.88 3.94954
4567.64 3.85692
4569.51 4.03399
4571.39 4.60645
4573.27 6.17222
4574.20 7.82524
4575.14 10.7561
4576.08 16.3338
4576.55 21.0402
4577.02 28.0647
4577.49 38.9572
4577.96 56.5891
4578.43 86.3388
4578.90 137.369
4579.45 234.083
4580.00 312.528
4580.55 267.807
4581.11 179.729
4581.46 136.999
4581.82 106.565
4582.53 69.5264
4583.24 49.5840
4583.95 37.8291
4584.66 30.3323
4585.37 25.2606
4586.79 18.9788
4588.21 15.3304
4589.63 12.9904
4592.47 10.1977
4595.31 8.59857
4598.15 7.55712
4603.83 6.25254
4609.51 5.42734
4615.20 4.82050
4626.56 3.89326
4637.92 3.12119
4643.60 2.77735
4649.28 2.51394
4654.97 2.52773
4657.81 2.84034
4660.65 3.69211
4662.07 4.52646
4663.49 5.86830
4664.91 8.08674
4666.33 11.9060
4667.75 18.9051
4668.46 24.6090
4669.17 32.8498
4669.88 45.1091
4670.59 63.9148
4671.30 93.5305
4672.01 140.383
4673.01 242.694
4674.00 327.954
4675.00 283.599
4676.00 191.342
4676.66 145.078
4677.33 112.266
4678.66 72.7154
4679.98 51.5978
4681.31 39.1927
4682.64 31.2939
4683.97 25.9340
4686.62 19.2693
4689.28 15.3698
4691.94 12.8406
4697.25 9.76589
4702.56 7.94139
4707.87 6.69365
4718.50 4.96366
4729.12 3.62897
4734.43 3.01306
4739.74 2.44460
4745.06 2.07739
4747.71 2.14994
4750.37 2.71156
4751.70 3.37561
4753.02 4.52698
4754.35 6.52697
4755.68 10.0902
4757.01 16.7474
4757.67 22.2119
4758.34 30.1063
4759.00 41.7987
4759.66 59.5664
4760.33 87.1403
4760.99 129.937
4762.00 232.198
4763.00 323.126
4764.01 286.784
4765.01 198.146
4766.00 135.239
4766.98 96.9561
4767.97 73.3222
4768.95 58.0299
4769.94 47.5998
4770.92 40.1776
4772.89 30.4931
4774.86 24.5569
4776.83 20.5783
4777.82 19.0455
4778.81 17.7841
4779.30 17.3293
4779.54 17.2120
4779.79 17.2589
4780.04 17.6711
4780.28 19.0288
4780.41 20.5802
4780.53 23.4737
4780.65 29.1880
4780.78 40.9193
4780.89 59.9833
4781.00 76.0125
4781.11 67.9734
4781.23 50.9610
4781.30 42.4845
4781.37 36.3866
4781.52 28.8914
4781.66 24.7829
4781.81 22.3171
4781.95 20.6868
4782.10 19.5438
4782.39 18.0481
4782.68 17.0906
4782.97 16.4102
4783.56 15.4567
4784.14 14.7766
4784.72 14.2363
4785.89 13.3806
4788.22 12.1178
4790.55 11.1674
4795.22 9.76576
4799.88 8.75136
4809.20 7.32434
4818.53 6.30565
4827.86 5.47686
4837.18 4.72415
4846.51 3.96065
4851.17 3.53579
4852.34 3.41831
4853.50 3.29505
4854.09 3.23610
4854.67 3.20230
4854.96 3.22822
4855.25 3.37246
4855.40 3.58018
4855.54 4.04835
4855.69 5.26923
4855.76 6.60172
4855.83 8.92775
4855.92 13.3494
4856.00 17.1099
4856.08 15.2826
4856.17 11.3310
4856.22 9.36571
4856.27 7.97664
4856.38 6.25078
4856.49 5.30895
4856.59 4.74571
4856.81 4.12951
4857.02 3.80962
4857.45 3.48053
4857.88 3.30531
4858.73 3.09881
4859.58 2.95842
4863.00 2.54990
4864.71 2.38882
4866.42 2.27718
4867.27 2.25881
4868.13 2.29399
4868.55 2.35549
4868.98 2.50289
4869.19 2.66963
4869.41 3.03056
4869.51 3.39883
4869.62 4.07380
4869.73 5.45198
4869.78 6.66531
4869.83 8.47992
4869.92 12.7816
4870.00 16.3169
4870.08 14.4045
4870.17 10.5549
4870.26 7.72004
4870.35 6.16887
4870.44 5.28974
4870.53 4.76611
4870.71 4.23665
4870.89 4.03071
4871.25 4.01236
4871.61 4.25292
4872.33 5.28311
4873.05 7.24933
4873.77 10.9415
4874.13 13.9537
4874.49 18.2873
4874.85 24.7029
4875.21 34.4016
4875.57 49.4223
4875.93 72.7337
4876.47 126.686
4877.00 172.778
4877.54 150.932
4878.07 102.981
4878.53 73.1463
4878.98 53.8890
4879.44 41.4301
4879.89 33.0801
4880.80 23.0366
4881.71 17.4539
4882.62 14.0021
4883.53 11.6926
4885.35 8.83196
4887.17 7.14372
4888.99 6.03892
4892.63 4.77086
4896.27 4.51421
4898.09 4.99852
4899.91 6.36849
4900.82 7.66797
4901.73 9.68259
4902.64 12.8540
4903.55 17.9870
4904.46 26.6337
4905.37 41.9698
4906.28 70.7748
4906.74 94.1837
4907.19 126.733
4908.10 223.196
4909.00 307.470
4909.91 271.073
4910.82 186.341
4911.49 139.359
4912.15 106.930
4912.81 84.6697
4913.48 69.0534
4914.81 49.3842
4916.13 37.9984
4917.46 30.7826
4918.79 25.8933
4921.45 19.7894
4924.10 16.1818
4926.76 13.8152
4932.07 10.8876
4937.39 9.11262
4942.70 7.87924
4953.33 6.15065
4963.95 4.81541
4974.58 3.54837
4979.89 2.88696
4985.20 2.21550
4987.86 1.90548
4990.52 1.66764
4993.17 1.64921
4993.84 1.74358
4994.50 1.97369
4994.83 2.22566
4995.17 2.76245
4995.33 3.31470
4995.50 4.37960
4995.58 5.32885
4995.66 6.84445
4995.75 9.40341
4995.83 13.8319
4995.92 20.6971
4996.00 24.9778
4996.09 20.0376
4996.17 13.0389
4996.25 8.67930
4996.34 6.26423
4996.42 4.89270
4996.51 4.07965
4996.67 3.22678
4996.84 2.84628
4997.17 2.59616
4997.51 2.60401
4998.85 3.43041
5000.18 5.19740
5001.52 8.46940
5002.19 11.0681
5002.86 14.6903
5003.53 19.8222
5004.20 27.2224
5004.86 38.1610
5005.53 54.6725
5006.20 80.0369
5006.87 118.927
5007.94 217.179
5009.00 307.968
5010.07 277.900
5011.14 194.659
5012.29 129.909
5013.45 91.9639
5014.60 69.2583
5015.76 54.8465
5016.91 45.1363
5018.06 38.2712
5020.37 29.3710
5022.68 23.9422
5024.99 20.3266
5029.60 15.8342
5034.22 13.1684
5036.52 12.2366
5038.83 11.5539
5041.14 11.2567
5042.29 11.4036
5043.45 11.9885
5044.60 13.5444
5045.18 15.0927
5045.75 17.6695
5046.33 22.1668
5046.91 30.5622
5047.48 47.6028
5047.77 62.4763
5048.06 84.3687
5048.53 137.805
5049.00 180.749
5049.47 155.273
5049.94 106.083
5050.25 81.9256
5050.56 64.8747
5051.17 44.3193
5051.79 33.3401
5052.41 26.8856
5053.02 22.7681
5053.64 19.9649
5054.87 16.4517
5056.10 14.3606
5057.33 12.9749
5059.80 11.2223
5062.26 10.1160
5064.73 9.31528
5069.66 8.15014
5074.58 7.30345
5077.05 7.01145
5079.51 6.91593
5081.98 7.32851
5083.21 7.99779
5084.44 9.36383
5085.67 12.1825
5086.91 18.3672
5087.52 24.1532
5088.14 33.4406
5088.75 48.7924
5089.37 74.3730
5090.19 129.633
5091.00 179.563
5091.82 161.033
5092.64 113.462
5093.17 89.5050
5093.69 72.0018
5094.74 50.1665
5095.79 38.0648
5096.84 30.7536
5097.89 25.9926
5098.94 22.7007
5101.04 18.5146
5103.14 16.0010
5105.24 14.3370
5109.44 12.2727
5113.64 11.0328
5117.84 10.1934
5126.24 9.09999
5134.64 8.38908
5143.04 7.86649
5151.44 7.44564
5155.64 7.25010
5157.74 7.14358
5158.79 7.09312
5159.31 7.13822
5159.58 7.36735
5159.71 7.78405
5159.84 9.01355
5159.92 10.6118
5160.00 12.0783
5160.08 11.5498
5160.16 10.1795
5160.26 9.03189
5160.35 8.40076
5160.55 7.81110
5160.93 7.42123
5161.70 7.20404
5163.24 7.06220
5166.33 6.91158
5172.49 6.66845
5175.58 6.54326
5178.66 6.39653
5180.20 6.30277
5181.74 6.17900
5182.51 6.10062
5183.28 6.02755
5183.67 6.03442
5184.05 6.21294
5184.25 6.53520
5184.44 7.37964
5184.54 8.30942
5184.63 10.0110
5184.73 13.3676
5184.82 20.2954
5184.91 31.8391
5185.00 42.0348
5185.09 38.0436
5185.18 28.2165
5185.25 22.3485
5185.32 18.3671
5185.38 15.6832
5185.45 13.8272
5185.59 11.5240
5185.73 10.2068
5186.01 8.82108
5186.28 8.12827
5186.83 7.45724
5187.39 7.13457
5188.49 6.81711
5189.59 6.65318
5191.80 6.46716
5194.01 6.34703
5198.42 6.15677
5200.63 6.05166
5201.18 6.02298
5201.73 6.00714
5202.01 6.02598
5202.28 6.12508
5202.42 6.26864
5202.56 6.59771
5202.70 7.45203
5202.77 8.37730
5202.84 10.0006
5202.92 13.2431
5203.00 16.1455
5203.08 15.0369
5203.16 12.2386
5203.26 9.91801
5203.36 8.65622
5203.56 7.48996
5203.76 6.99547
5203.95 6.73731
5204.34 6.47755
5204.74 6.34865
5206.31 6.14558
5207.88 6.05838
5209.45 5.99801
5212.60 5.90392
5215.74 5.82396
5228.32 5.54877
5253.47 5.05976
5266.05 4.81723
5278.62 4.55798
5284.91 4.41229
5291.20 4.24063
5294.34 4.13419
5295.91 4.07118
5297.49 3.99798
5299.06 3.91095
5300.63 3.81445
5301.42 3.78633
5301.81 3.80104
5302.20 3.87335
5302.60 4.09959
5302.79 4.35362
5302.99 4.81698
5303.19 5.72937
5303.38 7.69601
5303.48 9.58225
5303.58 12.6597
5303.68 17.9452
5303.77 27.1939
5303.89 44.6169
5304.00 59.2101
5304.11 51.8142
5304.23 36.1957
5304.31 27.7995
5304.39 22.0572
5304.47 18.0583
5304.55 15.2866
5304.71 11.7769
5304.87 9.76261
5305.03 8.48582
5305.19 7.63140
5305.51 6.57315
5305.83 5.95913
5306.15 5.56392
5306.80 5.08953
5307.44 4.81463
5308.08 4.63373
5309.36 4.40243
5310.65 4.25092
5311.93 4.13479
5314.50 3.94271
5317.07 3.75346
5318.35 3.64555
5319.64 3.51944
5320.92 3.36709
5321.57 3.28188
5322.21 3.20125
5322.85 3.16898
5323.17 3.21899
5323.49 3.39670
5323.81 3.90388
5323.97 4.44915
5324.13 5.40924
5324.29 7.22231
5324.37 8.71527
5324.45 10.8923
5324.54 14.2098
5324.62 19.2932
5324.70 27.3708
5324.78 40.2754
5324.83 53.4294
5324.89 69.1867
5325.00 94.0219
5325.06 92.7344
5325.11 82.8600
5325.23 57.6832
5325.35 38.1938
5325.48 27.1722
5325.60 20.7541
5325.73 16.7627
5325.85 14.1219
5325.98 12.2820
5326.23 9.93875
5326.48 8.54229
5326.73 7.63132
5327.23 6.53233
5327.73 5.90192
5328.23 5.49576
5329.23 5.00309
5330.23 4.71214
5331.23 4.51638
5333.23 4.26021
5335.23 4.08966
5337.23 3.95957
5341.22 3.75614
5349.22 3.42965
5357.22 3.12445
5365.22 2.82241
5369.22 2.69421
5373.22 2.63753
5377.22 2.81867
5379.22 3.15571
5381.22 3.90253
5383.22 5.59782
5384.22 7.20837
5385.22 9.83665
5386.22 14.3459
5387.22 22.5919
5387.72 29.2812
5388.22 38.8239
5388.72 52.6042
5389.22 72.3805
5390.11 125.336
5391.00 170.441
5391.90 148.853
5392.79 101.673
5393.69 68.1973
5394.60 48.3947
5395.50 36.4397
5396.40 28.8196
5397.31 23.6882
5398.21 20.0752
5400.02 15.4208
5401.82 12.6153
5403.63 10.7715
5407.24 8.52278
5410.86 7.20921
5414.47 6.34109
5421.69 5.22670
5428.92 4.47485
5432.53 4.15123
5436.15 3.83287
5439.76 3.49691
5441.57 3.31520
5443.37 3.12582
5445.18 2.95476
5446.08 2.91258
5446.98 2.97188
5447.89 3.33007
5448.34 3.80179
5448.79 4.74104
5449.24 6.74256
5449.47 8.58353
5449.69 11.5160
5449.92 16.4823
5450.15 25.4312
5450.26 32.6195
5450.37 42.8049
5450.48 57.4131
5450.60 78.0612
5450.80 133.358
5451.00 179.116
5451.20 154.652
5451.40 104.661
5451.56 76.9074
5451.71 58.2777
5451.86 45.6529
5452.01 36.9982
5452.31 26.2671
5452.62 20.1842
5452.92 16.4006
5453.22 13.8749
5453.83 10.7846
5454.43 9.00556
5455.04 7.86613
5456.25 6.50486
5457.46 5.71831
5458.67 5.20008
5461.10 4.53269
5463.52 4.08182
5465.94 3.70541
5467.16 3.52188
5467.76 3.43300
5468.37 3.35784
5468.97 3.33718
5469.28 3.38981
5469.58 3.55594
5469.88 4.00465
5470.03 4.47442
5470.19 5.28855
5470.34 6.80691
5470.49 9.84819
5470.56 12.5629
5470.64 16.6958
5470.72 23.3375
5470.79 33.7851
5470.84 44.2805
5470.90 56.7402
5471.00 76.1148
5471.05 74.6504
5471.11 66.4567
5471.21 45.9116
5471.28 35.1493
5471.36 27.6267
5471.43 22.4098
5471.50 18.7653
5471.65 14.0757
5471.79 11.3660
5471.94 9.63816
5472.08 8.47780
5472.37 7.03307
5472.67 6.18974
5472.96 5.64389
5473.54 4.98440
5474.12 4.59788
5474.70 4.34121
5475.86 4.01039
5477.03 3.79494
5478.19 3.63408
5480.52 3.38965
5482.84 3.19085
5485.17 3.00505
5486.33 2.91112
5487.49 2.82459
5488.08 2.80699
5488.66 2.89025
5488.95 3.07706
5489.24 3.63071
5489.39 4.30502
5489.53 5.70082
5489.60 6.98958
5489.68 9.01567
5489.75 12.4124
5489.82 18.0147
5489.87 23.0727
5489.91 29.1453
5490.00 38.2920
5490.09 33.3265
5490.18 23.2414
5490.27 16.0454
5490.37 11.9009
5490.46 9.40540
5490.55 7.84916
5490.74 6.07316
5490.92 5.14293
5491.29 4.21923
5491.66 3.77885
5492.40 3.35582
5493.14 3.14510
5494.61 2.91481
5496.09 2.77163
5499.05 2.56463
5502.00 2.39388
5507.92 2.07544
5509.39 1.99418
5510.87 1.91536
5511.61 1.88711
5512.35 1.90524
5512.72 1.98409
5513.09 2.24993
5513.27 2.60019
5513.46 3.38845
5513.55 4.18360
5513.64 5.55408
5513.73 8.10034
5513.83 13.0511
5513.91 20.8901
5514.00 27.0919
5514.09 23.1712
5514.17 15.8938
5514.24 11.7768
5514.31 9.05499
5514.38 7.27597
5514.45 6.07678
5514.59 4.63208
5514.73 3.83319
5515.00 3.02134
5515.28 2.62912
5515.83 2.25736
5516.38 2.07767
5517.49 1.88911
5518.59 1.77634
5520.80 1.61674
5523.01 1.48623
5527.42 1.25097
5529.63 1.14963
5530.73 1.15871
5531.01 1.21060
5531.29 1.35941
5531.56 1.89068
5531.70 2.72613
5531.77 3.57237
5531.84 4.97194
5531.92 7.55903
5532.00 9.49492
5532.08 8.03510
5532.16 5.56036
5532.23 4.20381
5532.29 3.31177
5532.42 2.33933
5532.67 1.61221
5532.93 1.34840
5533.18 1.21898
5534.21 1.02137
5536.25 0.873036
5540.33 0.683144
5544.41 0.550752
5548.49 0.509712
5550.53 0.550184
5552.58 0.657536
5554.62 0.865641
5556.66 1.22980
5558.70 1.84590
5560.74 2.90085
5561.76 3.71890
5562.78 4.91521
5563.29 5.80367
5563.80 7.17742
5564.06 8.31188
5564.31 10.2564
5564.44 11.9348
5564.57 14.6500
5564.69 19.6560
5564.76 23.7967
5564.82 29.5267
5564.91 39.9802
5565.00 43.9650
5565.09 33.0964
5565.14 26.5094
5565.18 21.3174
5565.25 15.8211
5565.32 12.6529
5565.45 9.69147
5565.59 8.63775
5565.73 8.31771
5566.00 8.46907
5566.27 9.00565
5566.82 10.4893
5567.36 12.3088
5568.45 17.0402
5569.54 23.8625
5570.63 34.0336
5571.72 49.6959
5572.81 74.4668
5573.90 113.854
5575.45 202.525
5577.00 279.781
5578.55 246.129
5580.10 168.459
5581.04 131.626
5581.98 104.454
5583.87 70.1396
5585.75 50.9764
5587.64 39.4593
5589.52 32.0938
5591.40 27.1953
5595.17 21.7457
5598.94 20.2103
5602.71 23.0455
5604.59 27.4046
5606.47 35.7290
5608.36 51.6895
5610.24 82.4660
5612.12 134.401
5614.00 176.263
5615.88 151.148
5617.76 102.700
5619.16 76.1682
5620.57 58.2354
5621.97 46.1154
5623.37 37.7149
5626.18 27.2297
5628.99 21.1710
5631.80 17.3083
5634.60 14.6524
5640.22 11.2369
5645.83 9.10342
5651.44 7.60703
5662.67 5.56089
5673.90 4.22400
5679.51 3.82755
5685.13 3.78270
5690.74 4.54320
5693.55 5.59342
5696.35 7.57445
5699.16 11.3505
5701.97 18.8938
5703.37 25.4018
5704.77 35.1175
5706.18 49.8613
5707.58 72.1743
5709.79 126.032
5712.00 170.900
5714.21 146.867
5716.42 97.2634
5718.62 62.3371
5720.82 41.1197
5723.02 27.7483
5725.23 18.6930
5727.43 12.2820
5729.63 8.48717
5730.73 8.49649
5731.28 9.51101
5731.83 11.6777
5732.38 15.6593
5732.93 22.5222
5733.48 34.0269
5734.03 52.8340
5734.52 78.5387
5735.02 113.622
5736.00 187.148
5736.49 200.109
5736.99 191.879
5737.97 149.583
5738.63 122.989
5739.29 102.290
5740.61 74.8423
5741.93 58.5474
5743.25 48.0993
5745.89 35.6597
5748.53 28.5369
5751.17 23.9839
5752.49 22.4061
5753.81 21.3915
5755.13 21.3918
5755.79 22.1804
5756.45 24.0623
5757.11 28.1261
5757.77 37.0286
5758.10 45.2184
5758.43 58.1119
5758.76 78.8988
5759.09 112.404
5759.54 186.920
5760.00 251.888
5760.46 223.509
5760.92 157.961
5761.35 112.838
5761.79 84.9851
5762.22 67.5930
5762.65 56.2274
5763.52 42.7475
5764.39 35.2982
5765.26 30.6422
5766.13 27.4733
5767.87 23.4029
5769.61 20.8368
5771.35 18.9942
5772.22 18.2205
5773.09 17.5010
5773.52 17.1614
5773.96 16.8859
5774.17 16.8501
5774.39 17.0861
5774.50 17.4943
5774.61 18.3980
5774.72 20.5150
5774.77 22.5058
5774.83 25.6598
5774.91 33.8165
5775.00 41.6708
5775.09 39.6001
5775.17 32.8242
5775.27 27.1937
5775.37 23.9100
5775.47 21.9480
5775.57 20.6929
5775.77 19.2177
5775.97 18.3852
5776.36 17.4547
5776.76 16.9108
5777.55 16.2187
5778.34 15.7318
5779.92 14.9880
5781.51 14.3902
5787.84 12.6256
5794.17 11.3593
5800.51 10.3508
5813.17 8.72954
5819.51 8.00615
5822.67 7.63994
5824.25 7.45103
5825.05 7.39290
5825.44 7.52096
5825.64 7.90567
5825.74 8.44967
5825.84 9.66429
5825.92 11.5205
5826.00 13.1295
5826.08 12.4203
5826.16 10.7769
5826.24 9.70339
5826.31 9.01729
5826.45 8.28925
5826.74 7.73324
5827.33 7.38845
5828.49 7.13121
5830.82 6.80802
5835.47 6.21563
5840.12 5.57629
5844.78 4.84195
5849.43 3.97304
5851.76 3.49413
5854.08 3.03915
5856.41 2.80252
5857.57 2.95851
5858.74 3.59189
5859.32 4.25142
5859.90 5.30744
5860.48 6.98888
5861.06 9.67892
5861.65 14.0678
5862.23 21.3627
5862.81 33.7969
5863.39 55.0080
5864.20 105.726
5865.00 158.030
5865.40 162.208
5865.81 150.075
5866.61 110.408
5867.22 85.5116
5867.84 67.8369
5868.45 55.4932
5869.06 46.7079
5870.29 35.4392
5871.51 28.7476
5872.74 24.4133
5873.97 21.4131
5876.42 17.5704
5878.87 15.2292
5881.32 13.6538
5886.23 11.6528
5891.13 10.4098
5896.03 9.53913
5900.94 8.87560
5903.39 8.59413
5904.61 8.47015
5905.23 8.44557
5905.53 8.52683
5905.69 8.70956
5905.84 9.32160
5906.00 10.5660
5906.16 9.57783
5906.31 8.90246
5906.45 8.62930
5906.74 8.41927
5907.33 8.27173
5908.49 8.12467
5910.83 7.90283
5915.49 7.51535
5917.82 7.33373
5920.16 7.15598
5921.32 7.07098
5922.49 7.00654
5923.07 7.01153
5923.65 7.13403
5923.95 7.35057
5924.24 7.93599
5924.38 8.61623
5924.53 9.99549
5924.60 11.2381
5924.67 13.1984
5924.75 16.4054
5924.82 21.6661
5924.91 31.9258
5925.00 39.8767
5925.09 34.7084
5925.18 25.1420
5925.25 19.9266
5925.32 16.4408
5925.39 14.1331
5925.46 12.5622
5925.59 10.6517
5925.73 9.59257
5926.01 8.50396
5926.28 7.97638
5926.83 7.47667
5927.38 7.23750
5928.48 6.99018
5929.58 6.84601
5931.79 6.64933
5933.99 6.49574
5942.80 6.00056
5951.60 5.59389
5960.41 5.30071
5969.22 5.31054
5973.62 5.62217
5978.03 6.45101
5982.43 8.50795
5984.63 10.5550
5986.83 14.0096
5989.04 20.1756
5991.24 32.0564
5992.34 42.1771
5993.44 57.2639
5994.54 80.2159
5995.64 115.114
5997.32 196.650
5999.00 264.265
6000.69 228.419
6002.37 154.699
6003.59 115.090
6004.80 87.8897
6006.02 69.3117
6007.24 56.3452
6009.67 40.1040
6012.10 30.7534
6014.54 24.8528
6016.97 20.8431
6019.40 17.9186
6020.62 16.6804
6020.92 16.3869
6021.23 16.1275
6021.53 16.0950
6021.68 16.5589
6021.76 17.2520
6021.84 18.7242
6021.92 21.7330
6022.00 24.8938
6022.08 24.4482
6022.16 22.0259
6022.23 20.3545
6022.30 19.1848
6022.44 17.8000
6022.72 16.5610
6022.99 15.9582
6023.27 15.5608
6023.82 14.9933
6024.37 14.5518
6026.58 13.1964
6030.99 11.2244
6033.20 10.4177
6035.40 9.65805
6036.51 9.27175
6037.61 8.86179
6038.16 8.65276
6038.71 8.50377
6038.99 8.55232
6039.26 8.96184
6039.40 9.57646
6039.54 10.9642
6039.61 12.2782
6039.68 14.3981
6039.75 17.9119
6039.81 23.6768
6039.91 36.6102
6040.00 48.6383
6040.09 44.7345
6040.19 33.7872
6040.25 27.9948
6040.31 23.8479
6040.43 18.6554
6040.56 15.7896
6040.68 14.0572
6040.92 12.1359
6041.17 11.1193
6041.66 10.0656
6042.15 9.50649
6043.14 8.86538
6044.12 8.45449
6046.09 7.85532
6048.05 7.36750
6051.99 6.50235
6055.92 5.68911
6059.85 4.94266
6061.82 4.67514
6063.78 4.65099
6065.75 5.32885
6066.73 6.32720
6067.72 8.32612
6068.70 12.4156
6069.19 15.9701
6069.68 21.3042
6070.18 29.5634
6070.67 42.6861
6071.16 64.1953
6071.65 99.5387
6072.33 179.026
6073.00 252.350
6073.68 227.783
6074.35 160.437
6074.95 115.500
6075.55 86.4570
6076.14 67.6783
6076.74 55.1020
6077.94 39.9089
6079.13 31.4102
6080.33 26.1223
6081.52 22.5657
6083.91 18.1378
6086.30 15.5099
6088.69 13.7713
6093.47 11.5902
6098.25 10.2433
6103.03 9.29685
6112.59 7.97321
6122.16 6.99381
6131.72 6.14258
6141.28 5.31192
6146.06 4.88535
6148.45 4.67242
6149.64 4.58882
6150.24 4.63583
6150.54 4.87555
6150.69 5.30731
6150.84 6.61740
6150.92 8.08630
6151.00 9.22370
6151.08 8.45300
6151.16 7.06510
6151.26 6.00521
6151.35 5.43734
6151.55 4.92910
6151.93 4.60141
6152.70 4.40472
6154.23 4.23059
6157.30 4.00985
6160.37 3.93235
6163.44 4.18274
6166.51 5.31102
6168.04 6.66162
6169.57 9.16069
6171.11 13.9728
6171.88 17.9922
6172.64 23.8676
6173.41 32.6706
6174.18 46.2047
6174.94 67.4647
6175.71 100.942
6176.86 180.706
6178.00 253.379
6179.15 227.516
6180.30 159.329
6181.04 124.735
6181.78 99.4754
6183.25 67.9292
6184.73 50.4473
6186.21 39.8970
6187.68 33.0276
6189.16 28.2843
6192.11 22.2705
6195.07 18.6755
6198.02 16.3106
6203.93 13.4050
6209.83 11.6844
6215.74 10.5349
6227.55 9.05681
6239.37 8.09763
6251.18 7.37276
6262.99 6.72962
6265.95 6.55349
6268.90 6.34164
6270.38 6.20299
6271.85 6.01367
6272.59 5.88570
6273.33 5.73987
6273.70 5.69616
6274.07 5.81240
6274.25 6.10020
6274.44 6.90390
6274.53 7.79648
6274.62 9.40625
6274.72 12.4780
6274.81 18.5687
6274.86 23.6324
6274.90 29.9639
6275.00 40.9133
6275.10 38.0819
6275.19 28.7199
6275.25 23.9786
6275.31 20.4122
6275.43 15.8469
6275.55 13.2494
6275.67 11.6620
6275.91 9.86620
6276.15 8.92201
6276.63 7.96771
6277.11 7.49561
6278.06 7.02263
6279.02 6.77704
6280.94 6.50177
6282.85 6.32961
6286.68 6.08304
6290.51 5.88109
6294.33 5.69055
6298.16 5.49289
6300.08 5.38296
6301.99 5.25636
6302.95 5.18489
6303.90 5.12144
6304.38 5.12285
6304.86 5.24943
6305.10 5.48571
6305.34 6.12918
6305.46 6.86441
6305.58 8.28342
6305.70 11.3557
6305.76 14.1862
6305.82 18.5002
6305.91 28.6066
6306.00 37.2517
6306.09 33.0347
6306.18 24.0183
6306.24 19.4830
6306.30 16.2679
6306.42 12.3158
6306.54 10.1849
6306.66 8.93302
6306.89 7.57246
6307.13 6.88634
6307.61 6.21812
6308.08 5.89746
6309.03 5.57903
6309.98 5.40994
6311.88 5.20534
6313.78 5.06030
6317.57 4.81561
6321.37 4.57480
6325.17 4.30859
6327.07 4.16063
6328.97 4.00651
6330.87 3.87614
6331.82 3.85864
6332.76 3.94786
6333.71 4.34412
6334.19 4.83759
6334.66 5.79728
6335.14 7.80384
6335.38 9.62158
6335.61 12.5022
6335.85 17.3310
6336.09 25.8753
6336.32 42.1395
6336.44 55.6484
6336.56 74.5306
6336.78 126.521
6337.00 169.186
6337.22 145.934
6337.44 99.0738
6337.60 73.4554
6337.76 56.0457
6337.93 44.2674
6338.09 36.1494
6338.41 26.0356
6338.73 20.2765
6339.06 16.6851
6339.38 14.2843
6340.02 11.3444
6340.67 9.65246
6341.32 8.57019
6342.61 7.28064
6343.90 6.54109
6345.19 6.05908
6347.78 5.45452
6350.36 5.07335
6352.95 4.79655
6358.12 4.39002
6368.45 3.81525
6378.79 3.40541
6389.13 3.26949
6394.30 3.46710
6399.47 4.11018
6404.63 5.80997
6407.22 7.54338
6409.80 10.5213
6412.39 15.9907
6413.68 20.4923
6414.97 27.0937
6416.26 37.1625
6417.56 53.2250
6418.85 79.9944
6420.14 125.270
6421.57 201.323
6423.00 251.423
6424.44 199.479
6425.87 122.475
6427.04 80.4747
6428.20 54.2473
6429.37 37.7260
6430.53 26.9645
6431.70 19.7251
6432.86 14.7620
6434.03 11.3853
6435.19 9.23495
6436.36 8.17314
6437.52 8.24988
6438.69 9.72471
6439.85 13.1540
6441.02 19.5793
6442.18 30.8840
6443.35 50.3919
6444.51 83.4965
6445.38 121.121
6446.26 170.362
6448.00 264.499
6448.88 274.980
6449.75 256.681
6451.50 190.591
6453.29 135.975
6455.08 101.259
6456.88 79.2109
6458.67 64.5650
6462.25 46.8991
6465.83 36.9214
6469.42 30.6124
6473.00 26.2958
6480.17 20.7868
6487.34 17.4051
6494.50 15.0828
6501.67 13.3469
6505.25 12.6268
6507.05 12.3340
6507.94 12.3310
6508.17 12.4266
6508.39 12.6856
6508.61 13.4946
6508.73 14.5763
6508.84 16.9527
6508.92 19.9459
6509.00 21.9535
6509.08 19.9250
6509.16 16.9045
6509.25 14.9291
6509.33 13.8321
6509.50 12.8013
6509.66 12.3636
6509.83 12.1344
6510.16 11.8934
6510.50 11.7583
6511.83 11.4402
6514.50 10.9620
6519.83 10.0723
6525.17 9.17349
6530.50 8.19056
6535.84 7.01472
6538.50 6.30509
6541.17 5.48850
6543.84 4.60097
6545.17 4.21517
6546.51 4.05153
6547.84 4.59495
6548.51 5.54135
6549.17 7.48889
6549.84 11.4502
6550.17 14.8205
6550.51 19.7317
6550.84 27.0427
6551.17 38.0321
6551.51 54.7852
6551.84 80.2570
6552.42 152.516
6553.00 225.877
6553.29 230.959
6553.58 212.939
6554.16 155.753
6554.53 125.570
6554.89 102.787
6555.62 73.3926
6556.35 56.4927
6557.08 46.0059
6557.81 39.0356
6558.54 34.1377
6559.99 27.8006
6561.45 23.9277
6562.91 21.3388
6565.83 18.1054
6568.74 16.1631
6571.66 14.8586
6577.49 13.1877
6583.32 12.1269
6589.16 11.3515
6592.07 11.0139
6594.99 10.6722
6596.45 10.4778
6597.91 10.2337
6598.63 10.0719
6599.36 9.86590
6599.73 9.75606
6600.09 9.71918
6600.28 9.83848
6600.46 10.3116
6600.55 10.9005
6600.64 12.0534
6600.73 14.4141
6600.82 19.3942
6600.91 28.7115
6601.00 38.0857
6601.09 36.4457
6601.18 29.1763
6601.26 24.1898
6601.33 20.8109
6601.41 18.5445
6601.48 16.9805
6601.64 15.0344
6601.79 13.9158
6602.09 12.7045
6602.39 12.0796
6603.00 11.4423
6603.61 11.1138
6604.82 10.7575
6606.03 10.5491
6608.46 10.2787
6610.89 10.0843
6615.74 9.78260
6620.59 9.53671
6640.01 8.79245
6659.42 8.22646
6664.27 8.09470
6669.12 7.95725
6671.55 7.88038
6673.98 7.78737
6675.19 7.72668
6676.40 7.64499
6677.01 7.59139
6677.62 7.53475
6677.92 7.52460
6678.22 7.59507
6678.38 7.73914
6678.53 8.11568
6678.68 9.22007
6678.76 10.5193
6678.83 12.9612
6678.92 17.7206
6679.00 22.3580
6679.09 21.1232
6679.17 17.1982
6679.27 13.9067
6679.36 12.0134
6679.46 10.8984
6679.56 10.1970
6679.75 9.39638
6679.95 8.96765
6680.33 8.53193
6680.72 8.31559
6681.50 8.09862
6682.27 7.98651
6683.82 7.86153
6685.37 7.78404
6688.48 7.67444
6691.58 7.58676
6703.98 7.28189
6710.19 7.12384
6716.39 6.93548
6719.49 6.81138
6721.04 6.73282
6722.60 6.63433
6724.15 6.50124
6724.92 6.41309
6725.70 6.30312
6726.47 6.16537
6727.25 6.02096
6727.64 6.01004
6727.83 6.07537
6728.02 6.26588
6728.22 6.75694
6728.41 8.05209
6728.51 9.43659
6728.61 11.9231
6728.70 16.6225
6728.75 20.3991
6728.80 25.6481
6728.85 33.1854
6728.90 42.4266
6729.00 58.2395
6729.10 53.4934
6729.20 39.4742
6729.27 31.9304
6729.34 26.4047
6729.41 22.4758
6729.48 19.6415
6729.62 15.9658
6729.75 13.7839
6729.89 12.3615
6730.03 11.3836
6730.30 10.1512
6730.58 9.41400
6730.85 8.93182
6731.41 8.34084
6731.96 7.99414
6732.51 7.76541
6733.61 7.47809
6734.71 7.29936
6735.81 7.17211
6738.02 6.98903
6742.42 6.70302
6743.53 6.62167
6744.63 6.52279
6745.18 6.46539
6745.73 6.41931
6746.00 6.43291
6746.28 6.56772
6746.42 6.78244
6746.55 7.28592
6746.69 8.61843
6746.76 10.0618
6746.83 12.5737
6746.92 17.8626
6747.00 22.8037
6747.09 21.3091
6747.17 16.8828
6747.24 14.2629
6747.30 12.4360
6747.43 10.3180
6747.56 9.21351
6747.69 8.56884
6747.95 7.87513
6748.20 7.51841
6748.72 7.15907
6749.24 6.97595
6750.27 6.77632
6751.30 6.65392
6755.43 6.29919
6757.50 6.09301
6758.53 5.96362
6759.57 5.80713
6760.60 5.62039
6761.12 5.52409
6761.63 5.45250
6762.15 5.48919
6762.41 5.62807
6762.67 5.97000
6762.92 6.77647
6763.18 8.74906
6763.31 10.7473
6763.44 14.1693
6763.57 20.2661
6763.70 31.3251
6763.85 53.6518
6764.00 74.8146
6764.15 68.6729
6764.30 50.0856
6764.45 36.2571
6764.60 27.8098
6764.75 22.5309
6764.90 19.1151
6765.06 16.7597
6765.21 15.0852
6765.51 12.8815
6765.81 11.5279
6766.11 10.6252
6766.71 9.51255
6767.31 8.85839
6767.91 8.43112
6768.51 8.12945
6769.12 7.90533
6770.32 7.59172
6771.52 7.38066
6773.93 7.10648
6776.34 6.92737
6778.74 6.79391
6783.55 6.59053
6788.37 6.41994
6793.18 6.24299
6795.59 6.13382
6797.99 5.98424
6799.20 5.87731
6800.40 5.73366
6801.00 5.65544
6801.60 5.64195
6801.90 5.76867
6802.20 6.28682
6802.35 6.99618
6802.50 8.55085
6802.58 10.0155
6802.65 12.3842
6802.73 16.3383
6802.80 23.0884
6802.85 29.4430
6802.90 37.4262
6803.00 50.6587
6803.10 46.0191
6803.20 33.8038
6803.26 27.4868
6803.32 22.9294
6803.45 17.2472
6803.57 14.1015
6803.70 12.2039
6803.95 10.1144
6804.21 9.04057
6804.71 7.98119
6805.22 7.47140
6806.23 6.98048
6807.24 6.73967
6809.26 6.49157
6811.28 6.35373
6813.30 6.25790
6815.32 6.18245
6819.35 6.06130
6827.43 5.86603
6835.51 5.69004
6851.67 5.33073
6855.71 5.23052
6859.75 5.11927
6861.77 5.05564
6863.79 4.98090
6865.81 4.88714
6866.32 4.86742
6866.82 4.88093
6867.08 4.94118
6867.33 5.14136
6867.45 5.39283
6867.58 5.92064
6867.71 7.16209
6867.77 8.39808
6867.83 10.4366
6867.92 14.8255
6868.00 18.6192
6868.08 16.9847
6868.17 13.1392
6868.24 10.7165
6868.31 9.13784
6868.46 7.43852
6868.61 6.62098
6868.75 6.16958
6869.04 5.70057
6869.33 5.46892
6869.92 5.24103
6870.50 5.12616
6872.83 4.92113
6877.49 4.69798
6879.82 4.58699
6882.15 4.45593
6883.32 4.37662
6884.48 4.29144
6885.07 4.26557
6885.65 4.32913
6885.94 4.49949
6886.23 5.02852
6886.38 5.68489
6886.52 7.05124
6886.60 8.31185
6886.67 10.3205
6886.74 13.6300
6886.81 19.0432
6886.91 30.3709
6887.00 39.9087
6887.09 35.2883
6887.19 25.3366
6887.26 19.7952
6887.33 15.9985
6887.39 13.4131
6887.46 11.6339
6887.60 9.38717
6887.74 8.09453
6888.01 6.72931
6888.29 6.05156
6888.83 5.39638
6889.38 5.08113
6890.48 4.76487
6891.58 4.59165
6893.78 4.36860
6895.97 4.19041
6898.17 4.01026
6900.36 3.80634
6901.46 3.70378
6902.01 3.66935
6902.56 3.67908
6903.11 3.82473
6903.38 4.03367
6903.66 4.46216
6903.93 5.39585
6904.07 6.26062
6904.21 7.65279
6904.34 10.0121
6904.48 14.2760
6904.62 22.5692
6904.69 29.6078
6904.75 39.5189
6904.88 66.2178
6905.00 88.5738
6905.12 77.2068
6905.25 53.2578
6905.35 38.9949
6905.45 29.6441
6905.55 23.5155
6905.65 19.3716
6905.85 14.3543
6906.05 11.5593
6906.25 9.83720
6906.45 8.69339
6906.85 7.30008
6907.25 6.49485
6907.65 5.97721
6908.44 5.35386
6909.24 4.98829
6910.04 4.74387
6911.64 4.42378
6913.24 4.20844
6914.84 4.04113
6918.04 3.77069
6924.43 3.30553
6927.63 3.05941
6929.23 2.91165
6930.03 2.87139
6930.43 3.07776
6930.63 3.67721
6930.73 4.52786
6930.83 6.42850
6930.92 9.51213
6931.00 12.3907
6931.09 11.5134
6931.17 8.92671
6931.27 6.73810
6931.37 5.51286
6931.58 4.36757
6931.99 3.60544
6932.80 3.18600
6934.43 2.93742
6937.69 2.76270
6940.95 2.79601
6944.21 3.21032
6945.84 3.70915
6947.47 4.57532
6949.10 6.07448
6950.73 8.72133
6952.36 13.5857
6953.99 23.0794
6954.81 31.1510
6955.62 43.0797
6956.44 60.9715
6957.25 87.7659
6958.63 158.571
6960.00 223.696
6961.38 201.551
6962.75 141.450
6964.37 91.5945
6965.99 63.7718
6967.60 47.6833
6969.22 37.6578
6970.84 30.9416
6972.45 26.1392
6973.26 24.2305
6974.07 22.7171
6974.48 22.3094
6974.68 22.3366
6974.88 22.6889
6975.08 23.6854
6975.28 26.0842
6975.49 31.8693
6975.59 37.4720
6975.69 46.3233
6975.84 68.6467
6976.00 89.5599
6976.16 83.0155
6976.31 64.1412
6976.41 54.8227
6976.50 47.8044
6976.69 38.6944
6976.88 33.3940
6977.07 30.0487
6977.26 27.7751
6977.45 26.1329
6977.83 23.9034
6978.21 22.4288
6978.59 21.3509
6979.35 19.8127
6980.87 17.8315
6982.39 16.4767
6985.43 14.5823
6988.47 13.2586
6994.55 11.4750
7000.63 10.3072
7012.79 8.83207
7024.95 7.88946
7037.10 7.17281
7049.26 6.51971
7055.34 6.15993
7058.38 5.95157
7061.42 5.70636
7064.46 5.39574
7065.98 5.19978
7067.50 4.96320
7069.02 4.67716
7069.78 4.52288
7070.54 4.39003
7071.30 4.37684
7071.68 4.51212
7072.06 4.89477
7072.44 5.85240
7072.82 8.30764
7073.01 10.8677
7073.20 15.3554
7073.39 23.5726
7073.58 38.8412
7073.79 68.7728
7074.00 97.0351
7074.21 88.9000
7074.42 64.1614
7074.61 47.7500
7074.79 36.9670
7074.97 29.8628
7075.15 25.0300
7075.51 19.1150
7075.87 15.7620
7076.23 13.6584
7076.60 12.2362
7077.32 10.4587
7078.05 9.40168
7078.77 8.70437
7080.22 7.83449
7081.67 7.30267
7083.11 6.93327
7086.01 6.42463
7091.81 5.75026
7097.60 5.18618
7100.50 4.89551
7103.39 4.58458
7106.29 4.24909
7109.19 3.90381
7112.08 3.64302
7113.53 3.65653
7114.98 3.96529
7116.43 5.04743
7117.15 6.26138
7117.88 8.42793
7118.60 12.4508
7118.97 15.7081
7119.33 20.3480
7119.69 27.0893
7120.05 37.0769
7120.41 52.0923
7120.78 74.6329
7121.39 134.754
7122.00 190.745
7122.61 173.064
7123.23 122.632
7123.77 88.7861
7124.31 66.8683
7124.85 52.6312
7125.39 43.0825
7126.47 31.5302
7127.56 25.0640
7128.64 21.0436
7129.72 18.3446
7131.89 15.0010
7134.05 13.0352
7136.22 11.7514
7138.39 10.8483
7140.55 10.1786
7144.88 9.24753
7149.21 8.62577
7157.88 7.82979
7166.54 7.32266
7175.20 6.95577
7192.52 6.42604
7209.85 6.02529
7227.17 5.67884
7244.50 5.34330
7253.16 5.15316
7255.33 5.09376
7257.49 5.01879
7258.58 4.96887
7259.66 4.90305
7260.20 4.86376
7260.74 4.83608
7261.01 4.85554
7261.28 4.98113
7261.42 5.17091
7261.55 5.60374
7261.69 6.70145
7261.76 7.86227
7261.82 9.83688
7261.91 14.1542
7262.00 18.2201
7262.09 17.0360
7262.18 13.4408
7262.25 11.0230
7262.33 9.45727
7262.49 7.73483
7262.64 6.89231
7262.80 6.41805
7263.11 5.92161
7263.42 5.67236
7264.03 5.42501
7264.65 5.30106
7265.89 5.17052
7267.13 5.09572
7269.61 4.99818
7272.08 4.92494
7281.99 4.67892
7286.95 4.55301
7291.90 4.40911
7294.38 4.32095
7296.85 4.20580
7298.09 4.12659
7299.33 4.01880
7299.95 3.95160
7300.57 3.89764
7300.88 3.91999
7301.19 4.10962
7301.34 4.40920
7301.50 5.11942
7301.65 6.99436
7301.73 9.01123
7301.81 12.5510
7301.90 19.9997
7302.00 27.0666
7302.10 25.0070
7302.19 18.8031
7302.26 15.4751
7302.32 13.0608
7302.45 10.0696
7302.58 8.42285
7302.70 7.43105
7302.96 6.33708
7303.22 5.77128
7303.73 5.20602
7304.24 4.92829
7305.27 4.64994
7306.29 4.50436
7308.34 4.33742
7310.40 4.22886
7314.50 4.06452
7318.60 3.92180
7326.80 3.64266
7335.01 3.34588
7343.21 3.02564
7351.41 2.71689
7355.51 2.61824
7359.61 2.65492
7361.67 2.78728
7363.72 3.06800
7365.77 3.60382
7366.28 3.80392
7366.79 4.07021
7367.05 4.27687
7367.31 4.65629
7367.43 5.03044
7367.56 5.73866
7367.69 7.29784
7367.75 8.79790
7367.82 11.2382
7367.91 16.8691
7368.00 22.1671
7368.09 20.7201
7368.18 16.1775
7368.25 13.5794
7368.32 11.7824
7368.45 9.69073
7368.58 8.64678
7368.71 8.09439
7368.98 7.64965
7369.24 7.60370
7370.30 8.77034
7371.35 11.1761
7372.41 15.0776
7373.47 21.4388
7374.53 32.1791
7375.58 51.1283
7376.64 85.2548
7377.82 148.821
7379.00 203.609
7380.19 178.571
7381.37 122.310
7382.35 87.9867
7383.33 65.5220
7384.31 50.8164
7385.29 40.8720
7387.25 28.8042
7389.21 22.0410
7391.17 17.8379
7393.13 15.0153
7397.05 11.4991
7400.97 9.39177
7404.89 7.95962
7412.73 6.01633
7420.57 4.56179
7424.49 3.89575
7428.41 3.26930
7432.33 2.80810
7434.29 2.79180
7436.25 3.18237
7437.23 3.69104
7438.21 4.58853
7439.19 6.14318
7440.17 8.85801
7441.15 13.7330
7442.13 22.8865
7442.62 30.3705
7443.11 41.0413
7443.60 56.3835
7444.09 78.3423
7445.05 144.908
7446.00 208.795
7446.96 191.693
7447.91 136.783
7448.57 106.522
7449.22 84.6197
7449.88 69.0029
7450.53 57.7214
7451.84 43.0185
7453.15 34.1932
7454.46 28.4592
7455.77 24.4949
7458.38 19.4456
7461.00 16.4029
7463.62 14.3833
7468.86 11.8677
7474.09 10.3448
7479.33 9.29192
7484.57 8.45090
7485.87 8.24014
7487.18 8.00901
7487.84 7.88355
7488.49 7.77709
7488.82 7.78076
7489.15 7.97322
7489.31 8.29994
7489.47 9.08365
7489.56 9.86830
7489.64 11.1917
7489.72 13.5047
7489.80 17.5782
7489.90 26.0027
7490.00 33.8481
7490.10 31.4169
7490.20 24.3403
7490.29 19.3863
7490.38 16.2623
7490.48 14.2518
7490.57 12.9321
7490.75 11.3423
7490.94 10.4598
7491.31 9.53158
7491.68 9.05677
7492.41 8.56620
7493.15 8.30037
7494.63 7.98359
7496.11 7.77214
7499.06 7.45763
7502.01 7.20340
7507.92 6.76073
7510.87 6.53074
7512.35 6.39365
7513.09 6.37999
7513.46 6.65476
7513.64 7.35195
7513.74 8.26482
7513.83 10.1894
7513.91 13.4848
7514.00 16.5509
7514.09 15.5996
7514.17 12.8268
7514.30 10.1763
7514.42 8.85413
7514.66 7.71787
7515.15 7.01201
7516.13 6.62644
7518.09 6.36962
7522.00 6.08822
7525.91 5.83235
7527.87 5.67291
7528.85 5.60526
7529.09 5.63418
7529.34 5.77818
7529.58 6.41361
7529.70 7.44190
7529.83 10.0993
7529.91 13.9693
7530.00 17.5388
7530.09 16.3990
7530.18 13.1842
7530.24 11.2798
7530.31 9.95718
7530.44 8.41645
7530.70 7.13280
7530.96 6.62113
7531.23 6.35620
7532.28 5.94488
7533.33 5.78558
7534.38 5.68500
7536.48 5.53952
7538.58 5.42085
7546.99 5.00839
7563.81 4.17402
7572.22 3.67757
7580.63 3.05222
7584.83 2.64464
7589.04 2.11224
7591.14 1.77634
7592.19 1.59646
7593.24 1.43534
7594.29 1.38546
7594.82 1.49495
7595.35 1.84128
7595.87 2.74832
7596.13 3.65181
7596.40 5.13859
7596.66 7.68897
7596.92 12.2499
7597.05 15.8584
7597.19 20.8187
7597.32 27.7225
7597.45 37.2778
7597.72 68.0106
7598.00 96.7368
7598.14 97.0931
7598.28 87.9659
7598.55 62.3516
7598.76 47.3447
7598.96 36.9025
7599.17 29.6457
7599.38 24.5490
7599.79 18.0649
7600.20 14.2781
7600.61 11.8523
7601.02 10.1956
7601.84 8.11458
7602.66 6.87817
7603.48 6.07163
7605.13 5.10462
7608.41 4.32602
7611.70 4.43547
7614.98 5.73400
7616.63 7.25475
7618.27 9.92127
7619.91 14.6947
7621.56 23.6142
7622.38 30.8895
7623.20 41.2314
7624.02 56.0749
7624.84 77.2781
7626.42 140.113
7628.00 198.804
7629.59 180.407
7631.17 127.523
7632.77 88.0938
7634.38 64.1214
7635.98 49.3557
7637.58 39.7841
7639.19 33.2473
7640.79 28.5757
7644.00 22.4491
7647.20 18.6699
7650.41 16.1296
7656.82 12.9262
7663.23 10.9339
7669.65 9.45275
7672.85 8.76652
7674.46 8.41116
7676.06 8.03645
7677.66 7.64559
7678.46 7.46246
7679.26 7.33351
7680.07 7.39041
7680.47 7.60836
7680.87 8.12643
7681.27 9.29669
7681.67 12.0230
7681.87 14.6671
7682.07 18.9784
7682.27 26.2381
7682.47 38.5648
7682.74 65.9630
7683.00 92.1004
7683.27 84.7800
7683.53 62.0354
7683.76 46.9613
7683.99 37.0016
7684.21 30.4455
7684.44 25.9862
7684.90 20.5231
7685.35 17.4163
7685.81 15.4574
7686.27 14.1243
7687.18 12.4396
7688.09 11.4166
7689.00 10.7239
7690.82 9.82530
7692.65 9.24155
7694.47 8.81007
7698.12 8.16051
7701.77 7.62359
7703.59 7.35760
7705.41 7.07070
7707.24 6.73437
7708.15 6.53345
7709.06 6.30070
7709.97 6.03514
7710.43 5.90363
7710.88 5.81001
7711.34 5.86456
7711.57 6.05009
7711.79 6.49411
7712.02 7.50627
7712.25 9.89945
7712.36 12.2424
7712.48 16.1236
7712.59 22.7499
7712.71 34.0436
7712.78 45.1185
7712.85 59.0481
7713.00 82.9226
7713.07 83.6637
7713.15 76.5742
7713.30 56.1447
7713.46 39.0335
7713.63 29.2367
7713.80 23.4457
7713.97 19.7932
7714.14 17.3315
7714.31 15.6055
7714.64 13.3668
7714.98 11.9966
7715.31 11.0855
7715.99 9.95075
7716.66 9.27278
7717.33 8.81836
7718.68 8.23556
7720.03 7.86346
7721.37 7.59331
7724.06 7.20091
7726.75 6.90131
7729.45 6.63880
7732.14 6.37078
7733.48 6.21351
7734.16 6.18892
7734.49 6.45096
7734.66 7.09575
7734.74 7.90869
7734.83 9.54471
7734.91 12.5415
7735.00 15.4411
7735.09 14.6609
7735.17 12.1802
7735.26 10.3318
7735.34 9.17520
7735.51 7.97562
7735.85 7.09390
7736.53 6.57993
7737.89 6.26410
7740.61 5.97010
7746.05 5.52368
7751.48 5.06882
7756.92 4.54708
7762.36 3.91294
7765.07 3.54833
7767.79 3.18086
7770.51 2.94383
7771.87 3.02122
7773.23 3.47757
7774.59 4.87962
7775.27 6.37240
7775.95 8.93490
7776.63 13.4924
7777.31 21.9613
7777.65 28.8555
7777.99 38.6484
7778.33 52.6744
7778.67 72.6020
7779.33 133.472
7780.00 191.574
7780.67 175.640
7781.34 125.411
7781.77 99.2118
7782.20 79.8595
7783.05 55.4851
7783.91 41.8117
7784.77 33.4947
7785.63 28.0398
7786.49 24.2558
7788.21 19.4246
7789.93 16.5162
7791.65 14.5943
7795.09 12.2274
7798.52 10.8261
7801.96 9.89167
7805.40 9.20573
7807.12 8.90994
7807.98 8.78089
7808.41 8.81221
7808.62 9.06134
7808.73 9.46921
7808.83 10.4901
7808.92 12.0427
7809.00 13.5243
7809.08 13.0768
7809.17 11.7641
7809.33 10.1896
7809.49 9.55499
7809.82 9.07382
7810.47 8.75760
7811.77 8.50037
7814.37 8.18859
7819.58 7.73408
7829.99 7.07831
7840.40 6.55876
7843.00 6.42744
7845.61 6.27954
7846.91 6.19033
7848.21 6.07963
7848.86 6.01349
7849.51 5.95474
7849.84 5.95974
7850.16 6.08767
7850.33 6.30684
7850.49 6.84326
7850.65 8.33329
7850.73 10.0074
7850.81 13.0877
7850.91 19.1473
7851.00 24.8727
7851.09 23.0883
7851.19 17.9969
7851.29 13.9084
7851.39 11.5469
7851.50 10.1293
7851.60 9.24123
7851.81 8.21758
7852.02 7.66804
7852.43 7.10829
7852.84 6.82888
7853.67 6.54454
7854.50 6.39262
7856.15 6.21224
7857.81 6.08910
7864.43 5.69684
7867.74 5.47514
7869.39 5.33977
7871.04 5.17522
7872.70 4.96465
7873.53 4.83619
7874.35 4.69377
7875.18 4.56219
7875.60 4.53380
7876.01 4.59251
7876.42 4.89341
7876.63 5.26231
7876.84 5.94393
7877.04 7.25500
7877.25 9.91302
7877.35 12.2478
7877.46 15.7342
7877.56 21.0660
7877.66 29.2163
7877.83 50.5750
7878.00 70.8561
7878.17 65.0319
7878.34 47.2701
7878.50 34.2860
7878.67 26.2124
7878.83 21.1577
7879.00 17.8443
7879.16 15.5645
7879.33 13.9275
7879.66 11.7785
7879.99 10.4486
7880.32 9.55892
7880.98 8.45790
7881.64 7.80674
7882.30 7.37832
7883.61 6.84469
7884.93 6.51900
7886.25 6.29335
7888.89 5.98565
7891.53 5.76795
7894.16 5.59074
7899.44 5.27969
7904.71 4.95850
7907.35 4.77050
7909.99 4.54551
7912.63 4.26006
7913.95 4.08630
7915.26 3.89416
7916.58 3.71886
7917.24 3.68546
7917.90 3.77969
7918.56 4.23644
7918.89 4.80008
7919.22 5.86122
7919.55 7.95565
7919.71 9.73969
7919.88 12.3702
7920.04 16.4061
7920.21 22.7526
7920.37 32.9953
7920.54 49.4935
7920.77 87.2779
7921.00 121.594
7921.12 121.280
7921.23 109.381
7921.46 77.3134
7921.73 51.1806
7922.00 36.4818
7922.26 27.9562
7922.53 22.6580
7922.80 19.1478
7923.07 16.6956
7923.60 13.5569
7924.13 11.6716
7924.67 10.4318
7925.74 8.91945
7926.80 8.03910
7927.87 7.46419
7928.94 7.05810
7930.01 6.75437
7932.14 6.32523
7934.28 6.03002
7938.55 5.63168
7942.82 5.35505
7947.09 5.13531
7955.64 4.77053
7964.18 4.43807
7972.72 4.09489
7981.27 3.69381
7983.40 3.56941
7985.54 3.41878
7986.61 3.32442
7987.68 3.20855
7988.21 3.14546
7988.74 3.11172
7989.01 3.15818
7989.28 3.38919
7989.41 3.71303
7989.54 4.41525
7989.68 6.09117
7989.74 7.77106
7989.81 10.5012
7989.91 16.8253
7990.00 22.8318
7990.10 21.0172
7990.19 15.7228
7990.26 12.5704
7990.33 10.3990
7990.48 7.83339
7990.62 6.49422
7990.76 5.71638
7991.05 4.87371
7991.33 4.43922
7991.90 4.00005
7992.47 3.77513
7993.61 3.52911
7994.75 3.37941
7997.04 3.16865
7999.32 2.99828
8003.88 2.69892
8008.44 2.46555
8013.01 2.46671
8015.29 2.73347
8017.57 3.46319
8018.71 4.16868
8019.85 5.28261
8020.99 7.06905
8022.13 10.0089
8023.27 15.0453
8024.41 24.1057
8025.56 41.3312
8026.13 55.4247
8026.70 75.1330
8027.85 135.682
8029.00 191.345
8030.15 172.455
8031.31 121.153
8032.20 90.5462
8033.09 69.6102
8033.98 55.3846
8034.87 45.4822
8036.65 33.1007
8038.43 25.9582
8040.21 21.4362
8041.99 18.3682
8045.55 14.5245
8049.11 12.2313
8052.67 10.6897
8054.45 10.0721
8056.23 9.50151
8057.12 9.21879
8058.01 8.94023
8058.45 8.83071
8058.90 8.85194
8059.12 9.04780
8059.34 9.66900
8059.46 10.3936
8059.57 11.7504
8059.68 14.4533
8059.79 20.0747
8059.89 29.7730
8060.00 38.8956
8060.11 36.0269
8060.21 27.8514
8060.29 23.2911
8060.36 20.0212
8060.51 16.0797
8060.66 13.9626
8060.81 12.7087
8061.11 11.3201
8061.41 10.5892
8062.01 9.82378
8062.61 9.41037
8063.80 8.92720
8065.00 8.61537
8067.39 8.17359
8069.79 7.83910
8074.58 7.32120
8079.36 6.91780
8088.94 6.30087
8098.52 5.82862
8117.67 5.08820
8127.25 4.75303
8132.04 4.56273
8134.43 4.43165
8135.63 4.35876
8135.93 4.36876
8136.23 4.46464
8136.52 4.98021
8136.67 5.95808
8136.75 7.04091
8136.82 8.95965
8136.91 12.8395
8137.00 16.3960
8137.09 15.2216
8137.18 11.9396
8137.28 9.24782
8137.38 7.73525
8137.59 6.30070
8137.79 5.67851
8138.00 5.34811
8138.82 4.84624
8140.45 4.58016
8143.73 4.38362
8150.28 4.13913
8163.39 3.70694
8176.50 3.25775
8189.60 2.76128
8202.71 2.20604
8209.26 1.92227
8215.82 1.68653
8222.37 1.66763
8225.65 1.90559
8228.92 2.57377
8230.56 3.22586
8232.20 4.26148
8233.84 5.93577
8235.48 8.72614
8237.12 13.5907
8238.75 22.5733
8239.57 29.8928
8240.39 40.3521
8241.21 55.4687
8242.03 77.2304
8243.52 137.088
8245.00 189.709
8246.49 167.564
8247.98 115.196
8249.53 76.5256
8251.08 53.7656
8252.64 40.0880
8254.19 31.3795
8255.74 25.5097
8257.29 21.3541
8260.40 15.9482
8263.50 12.6195
8266.60 10.3564
8269.71 8.67796
8270.48 8.31818
8271.26 7.99502
8271.65 7.87704
8272.04 7.87978
8272.23 8.02696
8272.42 8.48203
8272.62 9.91201
8272.71 11.6840
8272.81 15.1815
8272.91 21.0948
8273.00 26.2548
8273.10 23.8570
8273.19 18.5746
8273.27 15.1682
8273.36 12.9833
8273.52 10.6400
8273.69 9.48747
8273.85 8.83266
8274.18 8.11098
8274.51 7.70702
8275.18 7.21947
8275.84 6.88955
8277.16 6.38706
8278.48 5.97223
8283.78 4.62606
8289.07 3.49411
8294.36 2.45360
8299.66 1.52163
8302.30 1.18956
8303.63 1.11070
8304.95 1.13920
8306.27 1.34491
8307.60 1.84967
8308.26 2.27817
8308.92 2.87682
8309.58 3.70821
8310.24 4.85623
8310.90 6.44967
8311.57 8.67202
8312.23 11.8008
8312.89 16.2512
8313.55 22.6890
8314.21 32.0997
8314.87 46.0244
8315.54 66.4805
8316.77 127.324
8318.00 187.865
8318.62 191.216
8319.23 175.265
8320.47 126.376
8321.80 86.4907
8323.13 62.5408
8324.46 47.9465
8325.79 38.5379
8327.12 32.1191
8328.45 27.5326
8331.12 21.4986
8333.78 17.7607
8336.44 15.2608
8337.77 14.3278
8339.10 13.6132
8339.77 13.4006
8340.43 13.4658
8340.77 13.7956
8341.10 14.7416
8341.27 15.8003
8341.43 17.7999
8341.52 19.4850
8341.60 21.9824
8341.68 25.7657
8341.76 31.4892
8341.88 43.3347
8342.00 51.4052
8342.12 43.6872
8342.24 31.8532
8342.37 23.3619
8342.51 18.9459
8342.64 16.5237
8342.78 15.0802
8343.05 13.5175
8343.32 12.7136
8343.87 11.8887
8344.41 11.4354
8345.50 10.8676
8346.59 10.4641
8348.76 9.85441
8350.94 9.40259
8355.29 8.88090
8359.64 8.95484
8364.00 10.0342
8368.35 13.2911
8370.52 16.6369
8372.70 22.2080
8374.88 31.6319
8377.05 47.5711
8380.03 84.3036
8383.00 119.960
8385.98 110.881
8388.95 80.5370
8390.82 64.9039
8392.69 53.2122
8396.44 38.2126
8400.18 29.6297
8403.92 24.3028
8407.66 20.7454
8411.41 18.2257
8418.89 14.9090
8426.38 12.8117
8433.86 11.3395
8441.35 10.2112
8445.09 9.71050
8446.96 9.45139
8447.90 9.33721
8448.37 9.43415
8448.60 9.88020
8448.72 10.6190
8448.83 12.5319
8448.92 15.2859
8449.00 17.8157
8449.08 16.9672
8449.17 14.6227
8449.27 12.5513
8449.38 11.4441
8449.59 10.4482
8450.02 9.78847
8450.87 9.39422
8452.58 9.08101
8456.00 8.68154
8462.83 8.02046
8469.66 7.40995
8476.49 6.80578
8483.33 6.17574
8490.16 5.49418
8493.57 5.13762
8496.99 4.79794
8500.41 4.55492
8502.11 4.51477
8502.97 4.54069
8503.18 4.59359
8503.40 4.76278
8503.61 5.42399
8503.72 6.43449
8503.82 8.85601
8503.91 12.9381
8504.00 17.2489
8504.09 16.7513
8504.18 13.6653
8504.30 10.5277
8504.42 8.89578
8504.67 7.50576
8504.92 7.00453
8505.16 6.82500
8506.15 7.18393
8507.13 8.46224
8508.12 10.8258
8509.11 15.0710
8510.09 22.9340
8511.08 38.2774
8511.57 51.0962
8512.06 69.2328
8513.03 124.174
8514.00 175.627
8514.97 159.704
8515.94 113.585
8516.69 85.9506
8517.43 66.9013
8518.18 53.8897
8518.92 44.7917
8520.42 33.3524
8521.91 26.7088
8523.40 22.4712
8524.89 19.5730
8527.87 15.8996
8530.86 13.6628
8533.84 12.1191
8536.82 10.8838
8537.57 10.5759
8538.32 10.2496
8538.69 10.0889
8539.06 9.99186
8539.25 10.0521
8539.44 10.3797
8539.62 11.6262
8539.71 13.2847
8539.81 16.7167
8539.90 23.3345
8540.00 30.0708
8540.10 28.9431
8540.19 23.6997
8540.26 20.7623
8540.32 18.5720
8540.45 15.8257
8540.58 14.2729
8540.71 13.3129
8540.97 12.2147
8541.23 11.6075
8541.74 10.9376
8542.26 10.5514
8543.29 10.0633
8544.32 9.71840
8546.39 9.17185
8548.45 8.68619
8550.52 8.18666
8551.55 7.90739
8552.58 7.58780
8553.62 7.20145
8554.65 6.72723
8555.17 6.49421
8555.68 6.47519
8555.94 6.81921
8556.20 8.00751
8556.33 9.39400
8556.46 11.9719
8556.59 16.9305
8556.65 21.0209
8556.71 26.6336
8556.79 35.3361
8556.86 46.3785
8557.00 66.8126
8557.14 63.8361
8557.29 48.4408
8557.43 36.2484
8557.57 28.5985
8557.72 23.7236
8557.86 20.5196
8558.00 18.2782
8558.15 16.6646
8558.43 14.5038
8558.72 13.1460
8559.01 12.2206
8559.58 11.0428
8560.16 10.3204
8560.73 9.82558
8561.88 9.17338
8563.03 8.74225
8564.17 8.41925
8566.47 7.93081
8571.06 7.19474
8575.65 6.52939
8580.25 5.80432
8582.54 5.39103
8584.84 4.94209
8587.13 4.51666
8588.28 4.39606
8589.43 4.49536
8590.58 5.20827
8591.15 6.11728
8591.73 7.82415
8592.30 11.0999
8592.87 17.6988
8593.16 23.4079
8593.45 31.9319
8593.73 44.8334
8594.02 64.2417
8594.51 117.333
8595.00 168.678
8595.49 155.597
8595.98 112.050
8596.40 82.9694
8596.82 63.6656
8597.24 50.9196
8597.66 42.2504
8598.50 31.5960
8599.35 25.5360
8600.19 21.7233
8601.03 19.1394
8602.71 15.9019
8604.39 13.9733
8606.07 12.6993
8609.44 11.1146
8612.80 10.1561
8616.17 9.50216
8622.90 8.63712
8629.63 8.05581
8636.35 7.59928
8639.72 7.38647
8643.08 7.15842
8644.77 7.02245
8646.45 6.84699
8647.29 6.73025
8648.13 6.58757
8648.55 6.52361
8648.97 6.55156
8649.18 6.71691
8649.39 7.25870
8649.50 7.90630
8649.60 9.16922
8649.71 11.7945
8649.81 17.5276
8649.91 27.2579
8650.00 36.5048
8650.09 34.0504
8650.19 26.0328
8650.30 19.4243
8650.40 15.5885
8650.51 13.3289
8650.62 11.9181
8650.83 10.2960
8651.05 9.42628
8651.48 8.54019
8651.91 8.10029
8652.77 7.65940
8653.63 7.43104
8655.35 7.17516
8657.07 7.01500
8660.52 6.78223
8663.96 6.58164
8667.40 6.37016
8669.12 6.24672
8670.84 6.09818
8672.57 5.90338
8673.43 5.77609
8674.29 5.61760
8675.15 5.41677
8676.01 5.18886
8676.44 5.12995
8676.87 5.34474
8677.08 5.81924
8677.30 7.06606
8677.41 8.36202
8677.51 10.5628
8677.62 14.4864
8677.73 21.4989
8677.80 28.1902
8677.86 36.8538
8678.00 52.5087
8678.14 49.6277
8678.27 37.4277
8678.39 29.1324
8678.50 23.5586
8678.62 19.7879
8678.73 17.2102
8678.96 13.9910
8679.19 12.1428
8679.42 10.9631
8679.64 10.1583
8680.10 9.14480
8680.56 8.53599
8681.02 8.13295
8681.93 7.63001
8682.85 7.32623
8683.76 7.11970
8685.59 6.84913
8687.42 6.67147
8689.25 6.53939
8692.91 6.34285
8700.23 6.06172
8707.55 5.83610
8722.19 5.42715
8729.51 5.20458
8733.17 5.05322
8735.00 4.92704
8735.91 4.84379
8736.37 4.92972
8736.60 5.36514
8736.71 6.09825
8736.83 8.00017
8736.91 10.9941
8737.00 13.9757
8737.09 13.4244
8737.17 11.0441
8737.31 8.45932
8737.45 7.22963
8737.73 6.21575
8738.28 5.59741
8739.38 5.26705
8741.59 5.06278
8746.02 4.86062
8750.44 4.68835
8754.86 4.50339
8759.28 4.28280
8761.49 4.14972
8763.70 3.99534
8765.91 3.82140
8767.02 3.73907
8768.12 3.69146
8769.23 3.77672
8769.78 3.96535
8770.33 4.40497
8770.89 5.44535
8771.16 6.45908
8771.44 8.14839
8771.72 11.1333
8771.99 16.7519
8772.13 21.4410
8772.27 28.2974
8772.41 38.4875
8772.54 53.6121
8772.77 91.8016
8773.00 124.561
8773.23 109.268
8773.46 75.4298
8773.68 52.1615
8773.90 38.0278
8774.12 29.3300
8774.34 23.7124
8774.56 19.8987
8774.78 17.1937
8775.22 13.6975
8775.66 11.5792
8776.09 10.1901
8776.97 8.50438
8777.85 7.53590
8778.73 6.91259
8780.49 6.15858
8782.25 5.71463
8784.01 5.41669
8787.52 5.02650
8791.04 4.76509
8794.56 4.56373
8801.59 4.24263
8808.62 3.96576
8815.65 3.69719
8819.17 3.55839
8822.69 3.41735
8824.44 3.35839
8826.20 3.36429
8827.08 3.47669
8827.52 3.62337
8827.96 3.91692
8828.40 4.55645
8828.62 5.16347
8828.84 6.16750
8829.06 7.96983
8829.28 11.5291
8829.39 14.6702
8829.50 19.5395
8829.61 27.3429
8829.72 39.8133
8829.86 64.8353
8830.00 83.8844
8830.14 70.6504
8830.28 47.2967
8830.37 36.6250
8830.46 29.0411
8830.63 19.7018
8830.80 14.6203
8830.97 11.6140
8831.15 9.69114
8831.32 8.40106
8831.66 6.81397
8832.01 5.90162
8832.35 5.32559
8833.04 4.65121
8833.73 4.27463
8834.42 4.03563
8835.79 3.74678
8837.17 3.57313
8838.55 3.45281
8841.30 3.28884
8846.81 3.10628
8852.32 3.07907
8857.83 3.34744
8860.59 3.73546
8863.34 4.50767
8866.10 6.12991
8867.47 7.61984
8868.85 10.0327
8870.23 14.2433
8871.61 22.3751
8872.30 29.4850
8872.98 40.4639
8873.67 58.1228
8874.36 86.7182
8875.18 137.344
8876.00 170.275
8876.82 135.328
8877.64 84.1418
8878.36 54.7595
8879.07 37.1373
8879.78 26.3920
8880.50 19.5548
8881.93 11.8639
8883.35 7.97814
8884.78 5.83727
8886.21 4.63839
8887.64 4.04469
8889.07 3.92897
8890.49 4.28742
8891.92 5.22090
8893.35 6.96390
8894.78 9.96578
8896.21 15.0692
8897.63 23.8792
8899.06 39.4729
8900.49 67.3196
8902.25 126.308
8904.00 183.429
8904.88 185.413
8905.76 168.882
8907.51 120.392
8908.71 93.6492
8909.91 74.2126
8912.30 50.2154
8914.70 37.0218
8917.09 29.0613
8919.49 23.8628
8921.88 20.2493
8926.67 15.6061
8931.46 12.7647
8936.25 10.8370
8941.04 9.41456
8943.44 8.80612
8944.64 8.50491
8945.23 8.39092
8945.53 8.50097
8945.68 8.85361
8945.83 10.1577
8946.00 13.6034
8946.17 11.7996
8946.35 9.94677
8946.52 9.22889
8946.88 8.67562
8947.59 8.27975
8949.02 7.89716
8951.87 7.36287
8957.58 6.50680
8968.99 5.15085
8980.41 4.03273
8986.11 3.51193
8987.54 3.37332
8988.97 3.21681
8990.39 3.01907
8990.75 2.97137
8991.11 2.97346
8991.28 3.05327
8991.46 3.32008
8991.64 4.22037
8991.73 5.38001
8991.82 7.74860
8991.91 12.1585
8992.00 16.5617
8992.09 15.6131
8992.18 12.0526
8992.32 8.37476
8992.45 6.54878
8992.73 5.00233
8993.00 4.37275
8993.27 4.04351
8993.81 3.70398
8994.36 3.52786
8995.44 3.33797
8996.53 3.23224
9000.87 3.10378
9005.22 3.35042
9009.57 4.23238
9013.91 6.46304
9016.09 8.57614
9018.26 11.8960
9020.43 17.2077
9022.60 25.9078
9024.78 40.4799
9026.95 64.9949
9029.98 122.813
9033.00 180.425
9034.51 183.636
9036.03 168.499
9039.05 122.024
9041.97 87.2788
9044.90 65.2064
9047.82 51.1527
9050.74 41.8119
9056.59 30.5815
9062.44 24.2692
9068.28 20.2858
9074.13 17.5443
9079.98 15.4995
9082.90 14.6027
9084.36 14.1352
9085.09 13.9439
9085.46 14.1486
9085.64 14.8701
9085.73 15.8523
9085.82 17.9376
9085.91 21.7382
9086.00 25.4793
9086.09 24.6372
9086.18 21.5325
9086.29 18.6598
9086.41 17.0962
9086.64 15.6370
9087.09 14.6167
9088.00 13.9349
9088.92 13.5779
9089.83 13.3004
9093.48 12.3649
9095.31 11.8814
9096.22 11.6075
9097.13 11.2899
9098.05 10.8938
9098.50 10.6471
9098.96 10.3538
9099.42 10.0054
9099.87 9.66249
9100.10 9.62493
9100.33 10.0497
9100.44 10.7773
9100.56 12.3968
9100.67 16.0583
9100.73 19.4157
9100.79 24.5410
9100.84 31.4733
9100.89 40.6743
9101.00 58.3600
9101.11 57.4771
9101.21 45.5550
9101.29 38.1041
9101.37 32.6299
9101.45 28.6338
9101.52 25.7566
9101.68 21.9391
9101.83 19.6224
9102.14 16.9984
9102.45 15.5931
9102.76 14.7185
9103.07 14.1236
9103.69 13.3548
9104.31 12.8671
9104.93 12.5203
9106.16 12.0377
9107.40 11.6951
9108.64 11.4241
9111.11 10.9925
9116.06 10.3312
9121.01 9.79171
9130.91 8.86055
9133.39 8.63229
9135.86 8.38564
9137.10 8.24351
9138.34 8.07264
9138.95 7.96977
9139.57 7.86369
9139.88 7.83660
9140.19 7.91998
9140.35 8.10610
9140.50 8.58891
9140.66 9.94892
9140.73 11.4591
9140.81 14.1706
9140.91 20.0033
9141.00 25.7046
9141.10 24.4353
9141.19 19.7115
9141.26 16.8118
9141.34 14.7922
9141.48 12.3989
9141.63 11.1430
9141.78 10.4045
9142.07 9.60023
9142.37 9.17973
9142.95 8.74249
9143.54 8.50968
9144.72 8.24175
9145.89 8.06938
9148.24 7.81580
9150.59 7.60611
9159.98 6.85641
9164.68 6.47187
9169.38 6.04201
9171.73 5.78797
9174.08 5.47204
9175.25 5.26651
9176.43 5.00178
9177.01 4.84557
9177.60 4.72702
9177.89 4.77753
9178.19 5.16543
9178.33 5.74121
9178.48 7.01361
9178.63 10.0270
9178.70 12.9402
9178.77 17.6544
9178.83 22.8690
9178.89 29.4712
9179.00 41.2807
9179.11 38.6865
9179.23 29.1302
9179.30 24.0143
9179.37 20.2064
9179.52 15.4017
9179.66 12.6669
9179.81 10.9998
9180.10 9.12028
9180.39 8.12263
9180.97 7.09392
9181.55 6.56591
9182.71 5.99998
9183.88 5.66995
9186.20 5.22962
9188.53 4.88752
9193.18 4.27456
9197.83 3.68766
9202.48 3.21479
9204.81 3.15525
9207.13 3.44728
9209.46 4.62084
9210.62 5.93798
9211.78 8.22676
9212.95 12.2801
9214.11 19.6854
9215.27 33.7458
9215.85 45.1423
9216.44 60.9460
9217.72 115.345
9219.00 170.129
9219.64 173.640
9220.28 159.816
9221.57 116.549
9222.70 86.2475
9223.83 66.1278
9224.96 52.8580
9226.10 43.8221
9228.36 32.7066
9230.63 26.3596
9232.89 22.3403
9235.16 19.5984
9239.69 16.1219
9244.22 14.0101
9248.75 12.5717
9253.28 11.4745
9255.55 10.9476
9256.68 10.6625
9256.96 10.6224
9257.25 10.6924
9257.53 11.3074
9257.67 12.5139
9257.74 13.8164
9257.81 16.0617
9257.91 21.1306
9258.00 26.1173
9258.09 25.0090
9258.19 20.8939
9258.31 16.9804
9258.44 14.9084
9258.68 13.0283
9258.93 12.2215
9259.18 11.7845
9259.68 11.3129
9260.18 11.0490
9261.17 10.7282
9262.16 10.5109
9264.15 10.1850
9266.14 9.92190
9274.09 9.11289
9290.00 7.97259
9305.90 7.06502
9309.88 6.83986
9313.85 6.59643
9315.84 6.45671
9317.83 6.28635
9318.82 6.17717
9319.82 6.03850
9320.31 5.95893
9320.81 5.90536
9321.06 5.94355
9321.31 6.17323
9321.43 6.50259
9321.56 7.20935
9321.68 8.84269
9321.80 12.8953
9321.90 19.2525
9322.00 25.5639
9322.10 24.1356
9322.20 18.9798
9322.28 15.4338
9322.37 13.0999
9322.54 10.5080
9322.71 9.21020
9322.88 8.47412
9323.22 7.68790
9323.56 7.28326
9324.24 6.86973
9324.92 6.65212
9326.29 6.40459
9327.65 6.24664
9330.37 6.01375
9333.10 5.81697
9338.55 5.44180
9344.01 5.04627
9349.46 4.60066
9354.91 4.07647
9357.64 3.77437
9360.36 3.43761
9361.72 3.25146
9363.09 3.04487
9364.45 2.80786
9364.79 2.76149
9365.13 2.78822
9365.30 2.90526
9365.47 3.25228
9365.64 4.33043
9365.73 5.63876
9365.81 8.18905
9365.91 13.1698
9366.00 18.0611
9366.09 16.9553
9366.19 12.9164
9366.27 10.0355
9366.36 8.16876
9366.53 6.16487
9366.70 5.18588
9366.87 4.63952
9367.22 4.06859
9367.56 3.78938
9368.24 3.54751
9368.93 3.49491
9370.30 3.74585
9371.67 4.59953
9373.04 6.65017
9373.72 8.55209
9374.41 11.5167
9375.10 16.2522
9375.78 24.0048
9376.47 37.0481
9377.15 59.1461
9378.08 109.503
9379.00 158.647
9379.93 146.847
9380.85 105.791
9381.74 75.6288
9382.63 56.5494
9383.52 44.4463
9384.41 36.4393
9386.18 26.8575
9387.96 21.5260
9389.74 18.2031
9391.52 15.9607
9395.07 13.1454
9398.63 11.4516
9402.18 10.3118
9409.29 8.83838
9416.40 7.87100
9423.51 7.11091
9427.07 6.74707
9430.62 6.34075
9432.40 6.08851
9434.18 5.75844
9435.06 5.54593
9435.95 5.32350
9436.40 5.28289
9436.84 5.54417
9437.06 6.06970
9437.29 7.42281
9437.40 8.81554
9437.51 11.2095
9437.62 15.4666
9437.73 23.2173
9437.80 30.3826
9437.87 39.4206
9438.00 55.4480
9438.14 51.7413
9438.27 38.5781
9438.35 31.9448
9438.43 26.9644
9438.59 20.4657
9438.76 16.6917
9438.92 14.3366
9439.24 11.6564
9439.57 10.2285
9439.89 9.35341
9440.22 8.76943
9440.87 8.03657
9441.51 7.59278
9442.16 7.29066
9443.46 6.89379
9444.76 6.63093
9446.06 6.43343
9448.65 6.13427
9453.84 5.69099
9459.03 5.32064
9469.41 4.62908
9479.80 3.91581
9490.18 3.15429
9495.37 2.78944
9500.56 2.53089
9505.75 2.65686
9508.34 3.11380
9510.94 4.19386
9513.54 6.60166
9514.83 8.77457
9516.13 12.0995
9517.43 17.3068
9518.73 25.6550
9520.02 39.3638
9521.32 61.9235
9523.16 115.024
9525.00 166.208
9525.92 167.835
9526.85 152.755
9528.69 108.795
9529.81 86.9611
9530.92 70.4360
9533.16 48.8733
9535.39 36.1928
9537.62 27.9849
9539.86 22.0304
9542.09 16.9756
9543.21 14.3828
9543.76 12.9856
9544.32 11.5004
9544.88 9.99594
9545.16 9.34901
9545.44 8.96775
9545.72 9.27894
9546.00 11.4139
9546.14 14.0286
9546.28 18.6369
9546.42 26.7692
9546.56 40.6764
9546.67 58.1728
9546.78 81.8937
9547.00 131.834
9547.11 141.063
9547.22 135.969
9547.45 108.243
9547.64 85.7666
9547.84 69.9136
9548.04 58.9065
9548.23 51.1624
9548.62 41.1875
9549.02 35.1887
9549.41 31.1953
9549.80 28.3480
9550.59 24.5259
9551.37 22.0216
9552.16 20.2149
9553.73 17.7058
9555.30 16.0695
9556.08 15.5535
9556.87 15.3521
9557.66 15.7569
9558.44 17.5831
9558.83 19.6861
9559.23 23.4010
9559.62 30.0805
9560.01 42.0303
9560.51 68.3291
9561.00 94.4727
9561.50 88.7372
9561.99 67.2330
9562.45 51.6567
9562.91 41.5424
9563.37 34.9702
9563.83 30.5305
9564.75 25.0532
9565.67 21.8774
9566.59 19.8095
9567.51 18.3508
9569.35 16.3951
9571.19 15.1086
9573.02 14.1700
9576.70 12.8397
9580.38 11.8976
9584.06 11.1677
9591.41 10.0605
9598.77 9.21299
9606.12 8.50124
9613.48 7.85034
9617.16 7.51681
9619.00 7.32474
9619.91 7.21453
9620.37 7.21211
9620.60 7.39199
9620.72 7.73506
9620.83 8.68197
9621.00 11.6183
9621.17 10.1892
9621.27 9.11616
9621.37 8.51616
9621.58 7.94215
9621.99 7.53781
9622.82 7.27324
9624.47 7.03766
9627.78 6.69611
9634.39 5.99164
9637.70 5.55689
9639.35 5.29746
9641.00 4.99481
9642.65 4.63466
9643.48 4.43459
9644.31 4.24119
9645.13 4.13185
9645.55 4.19103
9645.96 4.46267
9646.37 5.25689
9646.58 6.09129
9646.79 7.51100
9646.99 10.0418
9647.20 14.7457
9647.30 18.6328
9647.41 24.1396
9647.51 32.0815
9647.61 43.4878
9647.81 76.7878
9648.00 107.530
9648.20 97.5330
9648.39 69.6107
9648.52 55.0529
9648.64 44.4836
9648.89 31.2710
9649.15 23.9089
9649.40 19.4723
9649.65 16.5663
9649.90 14.5612
9650.41 11.9984
9650.91 10.4528
9651.42 9.42425
9652.43 8.13623
9653.44 7.34540
9654.45 6.79379
9656.47 6.03065
9660.51 5.01831
9664.55 4.22849
9668.58 3.60100
9670.60 3.45421
9672.62 3.62900
9674.64 4.61152
9675.65 5.77306
9676.66 7.82500
9677.67 11.4886
9678.68 18.1839
9679.69 30.8525
9680.20 41.0720
9680.70 55.1484
9681.85 105.513
9683.00 157.509
9683.58 161.705
9684.15 149.683
9685.30 110.320
9686.22 84.5757
9687.14 66.6298
9688.06 54.2999
9688.98 45.6428
9690.81 34.6636
9692.65 28.2211
9694.49 24.0742
9696.33 21.2181
9700.00 17.5744
9700.00 13.6846
10000.0 13.5718
12500.0 12.7908
15000.0 12.2088
17000.0 11.8355
20000.0 11.3799
25000.0 10.8025
30000.0 10.3671
35000.0 10.0216
40000.0 9.73710
50000.0 9.28861
60000.0 8.94380
70000.0 8.66504
80000.0 8.43184
99999.9 8.05690
100000 8.74154
150000 8.02477
200000 7.56190
201280 7.55309
201280 7.55309
250000 7.21774
268221 7.11317
268221 7.11317
283307 7.02660
283307 7.02659
300000 6.93079
308016 6.89169
308016 6.89169
350000 6.68688
398410 6.47167
398410 6.47167
400000 6.46460
406052 6.43944
406052 6.43944
450000 6.25672
461133 6.21281
475061 6.15787
475061 6.15787
500000 6.05950
539980 5.91200
580076 5.76408
580076 5.76408
592876 5.71686
592876 5.71686
593177 5.71575
593177 5.71574
600000 5.69057
600991 5.68722
600991 5.68722
626006 5.60263
626006 5.60263
654917 5.50487
654917 5.50487
700000 5.35242
719526 5.29233
800000 5.04468
832722 4.95402
832722 4.95402
861613 4.87398
871375 4.84693
871376 4.84693
876645 4.83233
876646 4.83233
898334 4.77225
898334 4.77225
900000 4.76763
980837 4.56838
990688 4.54410
990688 4.54410
1.00000E+06 4.52114
1.05745E+06 4.39672
1.05745E+06 4.39672
1.05817E+06 4.39514
1.05818E+06 4.39514
1.07762E+06 4.35303
1.07762E+06 4.35303
1.08113E+06 4.34542
1.08113E+06 4.34542
1.08897E+06 4.32845
1.08897E+06 4.32845
1.09535E+06 4.31462
1.09535E+06 4.31462
1.10000E+06 4.30455
1.11106E+06 4.28379
1.11106E+06 4.28379
1.11501E+06 4.27637
1.11501E+06 4.27637
1.14187E+06 4.22594
1.14187E+06 4.22594
1.14410E+06 4.22176
1.14410E+06 4.22176
1.17077E+06 4.17168
1.17077E+06 4.17168
1.18778E+06 4.13975
1.18778E+06 4.13975
1.20000E+06 4.11680
1.21980E+06 4.08508
1.21981E+06 4.08508
1.28102E+06 3.98701
1.28102E+06 3.98701
1.29579E+06 3.96334
1.30000E+06 3.95660
1.31184E+06 3.94071
1.31185E+06 3.94071
1.31983E+06 3.92999
1.31983E+06 3.92999
1.32703E+06 3.92034
1.32703E+06 3.92034
1.35836E+06 3.87831
1.35836E+06 3.87831
1.36747E+06 3.86610
1.36747E+06 3.86610
1.38926E+06 3.83687
1.38926E+06 3.83687
1.39850E+06 3.82448
1.39850E+06 3.82447
1.40000E+06 3.82246
1.43932E+06 3.77932
1.43932E+06 3.77932
1.44976E+06 3.76787
1.44976E+06 3.76787
1.45077E+06 3.76676
1.45077E+06 3.76676
1.47491E+06 3.74028
1.47491E+06 3.74028
1.49356E+06 3.71983
1.49356E+06 3.71983
1.50000E+06 3.71276
1.54160E+06 3.67657
1.54160E+06 3.67657
1.55062E+06 3.66872
1.55062E+06 3.66872
1.60000E+06 3.62576
1.60443E+06 3.62283
1.63777E+06 3.60075
1.65584E+06 3.58879
1.67233E+06 3.57787
1.67335E+06 3.57720
1.67335E+06 3.57720
1.70000E+06 3.55956
1.80000E+06 3.51210
1.90000E+06 3.48119
2.00000E+06 3.46455
2.50000E+06 3.51564
3.00000E+06 3.63946
3.50000E+06 3.74524
4.00000E+06 3.81646
4.50000E+06 3.86074
5.00000E+06 3.89034
5.39114E+06 3.90925
5.39115E+06 3.90925
5.50000E+06 3.91452
6.00000E+06 3.93559
6.50000E+06 3.95164
6.99131E+06 3.95942
6.99131E+06 3.95942
7.00000E+06 3.95956
7.50000E+06 3.95789
8.00000E+06 3.94639
8.50000E+06 3.92540
9.00000E+06 3.89586
9.50000E+06 3.85906
1.00000E+07 3.81649
1.03812E+07 3.78107
1.05000E+07 3.77003
1.10000E+07 3.72028
1.15000E+07 3.66800
1.20000E+07 3.61402
1.25000E+07 3.55902
1.30000E+07 3.50354
1.35000E+07 3.44805
1.40000E+07 3.39291
1.45000E+07 3.33841
1.50000E+07 3.28481
1.55000E+07 3.23232
1.60000E+07 3.18118
1.70000E+07 3.08395
1.80000E+07 2.99528
1.84633E+07 2.95905
1.84633E+07 2.95905
1.90000E+07 2.91707
2.00000E+07 2.85056