Mo-97(n,tot) ENDF/B-VII.1
Energy(eV) XS(b)
1.00000E-05 117.189
1.25000E-05 105.519
1.50000E-05 96.9052
2.00000E-05 84.8138
2.75000E-05 73.3088
3.50000E-05 65.7371
4.25000E-05 60.2710
5.00000E-05 56.0864
6.25000E-05 50.8677
7.50000E-05 47.0153
0.000100000 41.6079
0.000125000 37.9176
0.000150000 35.1936
0.000200000 31.3700
0.000275000 27.7318
0.000350000 25.3374
0.000425000 23.6088
0.000500000 22.2855
0.000625000 20.6352
0.000750000 19.4169
0.00100000 17.7069
0.00125000 16.5399
0.00150000 15.6785
0.00200000 14.4693
0.00275000 13.3187
0.00350000 12.5615
0.00425000 12.0148
0.00500000 11.5963
0.00625000 11.0743
0.00750000 10.6890
0.0100000 10.1481
0.0125000 9.77888
0.0150000 9.50633
0.0200000 9.12371
0.0253000 8.84938
0.0314750 8.62178
0.0376500 8.45272
0.0500000 8.21400
0.0625000 8.04851
0.0750000 7.92625
0.100000 7.75442
0.125000 7.63694
0.150000 7.55004
0.200000 7.42769
0.275000 7.31059
0.350000 7.23292
0.500000 7.13268
0.750000 7.03607
1.00000 6.97636
1.50000 6.90143
2.00000 6.85287
2.75000 6.80161
3.50000 6.76337
5.00000 6.70559
7.50000 6.63461
10.0000 6.57832
15.0000 6.48685
20.0000 6.41090
27.5000 6.31297
35.0000 6.22531
42.5000 6.14016
50.0000 6.04771
55.2112 5.96965
57.8168 5.92219
60.4225 5.86635
61.7253 5.83504
63.0281 5.80253
64.3309 5.77276
65.6337 5.75942
66.2851 5.77148
66.9365 5.81439
67.5879 5.92425
68.2393 6.19409
68.5650 6.46140
68.8907 6.91110
69.2164 7.71312
69.5421 9.27368
69.7050 10.6358
69.8678 12.7518
70.0307 16.2469
70.1935 22.5308
70.3564 35.3194
70.4378 47.2028
70.5192 67.0315
70.6006 103.409
70.6413 133.908
70.6821 179.832
70.7228 252.804
70.7635 376.383
70.8042 600.884
70.8246 780.167
70.8449 1025.99
70.8825 1660.59
70.9200 2102.34
70.9576 1705.24
70.9951 1081.90
71.0283 712.832
71.0615 489.956
71.0947 353.361
71.1278 265.975
71.1942 166.570
71.2606 115.041
71.3269 85.1106
71.3933 66.2311
71.5260 44.6300
71.6588 33.1713
71.7915 26.3398
71.9242 21.9219
72.0570 18.8886
72.3224 15.0837
72.5879 12.8567
72.8533 11.4284
73.1188 10.4502
73.6497 9.22013
74.1807 8.49372
74.7116 8.02206
75.2425 7.69469
76.3044 7.27558
77.3662 7.02530
78.4281 6.88566
78.6935 6.88238
78.9590 6.93206
79.0917 7.01896
79.1581 7.10436
79.2244 7.24966
79.2908 7.51867
79.3572 8.08506
79.3904 8.62569
79.4235 9.54107
79.4567 11.2054
79.4899 14.3614
79.5200 18.9454
79.5500 22.0021
79.5801 18.9440
79.6101 14.3553
79.6300 12.2228
79.6499 10.7678
79.6898 9.08868
79.7296 8.23821
79.7694 7.76145
79.8092 7.47029
79.8491 7.28018
79.9287 7.05491
80.0084 6.93059
80.0880 6.85367
80.2473 6.76455
80.5659 6.67990
80.8845 6.63416
81.5217 6.57538
82.1588 6.53251
84.7076 6.41535
87.2563 6.33851
89.8051 6.28229
94.9025 6.20311
100.000 6.14820
102.369 6.12816
104.738 6.11234
105.922 6.10793
106.514 6.10804
107.106 6.11178
107.699 6.12422
107.995 6.13821
108.291 6.16440
108.587 6.21911
108.735 6.27084
108.883 6.35858
109.031 6.52417
109.105 6.66733
109.179 6.89029
109.253 7.26237
109.327 7.94152
109.364 8.50305
109.401 9.32688
109.438 10.5645
109.475 12.4231
109.528 16.2232
109.580 18.7535
109.633 16.2273
109.685 12.4278
109.718 10.7186
109.752 9.53259
109.819 8.13736
109.885 7.41766
109.952 7.00995
110.019 6.75984
110.086 6.59639
110.219 6.40370
110.353 6.29906
110.487 6.23599
110.754 6.16673
111.021 6.13116
111.288 6.11015
111.823 6.08677
112.357 6.07387
112.891 6.06533
113.960 6.05374
116.098 6.03818
118.235 6.02614
120.373 6.01613
122.510 6.00914
123.579 6.00873
124.113 6.01069
124.648 6.01608
125.182 6.02970
125.449 6.04380
125.716 6.06931
125.984 6.12119
126.117 6.16942
126.251 6.25023
126.384 6.40009
126.451 6.52767
126.518 6.72326
126.585 7.04260
126.652 7.60699
126.718 8.70228
126.752 9.63390
126.785 10.9722
126.838 13.9564
126.890 15.9438
126.943 13.9598
126.995 10.9761
127.031 9.54526
127.067 8.58461
127.103 7.93844
127.139 7.49419
127.211 6.95129
127.283 6.65142
127.355 6.47017
127.427 6.35326
127.571 6.21697
127.715 6.14378
127.859 6.10007
128.148 6.05260
128.436 6.02864
128.724 6.01483
129.300 6.00032
129.876 5.99349
130.453 5.99034
131.605 5.99141
132.758 6.00547
133.334 6.02292
133.910 6.05684
134.198 6.08601
134.486 6.13066
134.774 6.20325
135.063 6.33189
135.351 6.59142
135.495 6.83268
135.639 7.23816
135.783 7.99698
135.855 8.64895
135.927 9.65904
135.999 11.3364
136.071 14.3663
136.107 16.8485
136.143 20.4588
136.179 25.8246
136.215 33.7848
136.268 50.4022
136.320 61.4473
136.373 50.4182
136.425 33.8047
136.487 21.7439
136.549 15.6342
136.611 12.3701
136.673 10.4778
136.736 9.29900
136.798 8.52035
136.922 7.59402
137.046 7.08667
137.170 6.78012
137.418 6.44473
137.667 6.27486
137.915 6.17704
138.164 6.11542
138.412 6.07400
138.909 6.02313
139.405 5.99385
139.902 5.97511
140.399 5.96212
141.392 5.94507
142.385 5.93400
144.372 5.91918
146.359 5.90840
148.345 5.89931
152.319 5.88331
160.266 5.85471
168.213 5.82782
184.106 5.77556
192.053 5.74948
196.027 5.73661
200.000 5.72453
202.469 5.71858
203.703 5.71696
204.938 5.71760
206.172 5.72394
206.789 5.73237
207.406 5.74936
207.715 5.76425
208.024 5.78728
208.332 5.82505
208.641 5.89252
208.949 6.02967
209.104 6.15801
209.258 6.37528
209.412 6.78547
209.489 7.14188
209.567 7.69899
209.644 8.63716
209.721 10.3684
209.759 11.8198
209.798 13.9690
209.837 17.2548
209.875 22.2588
209.928 32.1519
209.980 38.7275
210.033 32.1578
210.085 22.2660
210.119 17.7450
210.153 14.6274
210.221 10.9925
210.289 9.12966
210.357 8.08176
210.425 7.44058
210.493 7.02355
210.629 6.53366
210.764 6.26880
210.900 6.11015
211.172 5.93759
211.444 5.85064
211.715 5.80058
212.259 5.74764
212.802 5.72113
213.346 5.70551
214.432 5.68779
215.519 5.67753
216.606 5.67042
218.780 5.66095
220.953 5.65711
222.040 5.65908
223.127 5.66712
224.214 5.69007
224.757 5.71516
225.300 5.76225
225.572 5.80213
225.844 5.86269
226.116 5.96051
226.387 6.13276
226.659 6.47761
226.795 6.79614
226.931 7.32789
227.067 8.31341
227.134 9.15170
227.202 10.4374
227.270 12.5425
227.338 16.2661
227.406 23.5172
227.440 29.7185
227.474 38.6615
227.527 58.4919
227.580 71.7131
227.633 58.4957
227.686 38.6662
227.729 27.7681
227.773 20.9815
227.816 16.7179
227.859 13.9455
227.946 10.7351
228.032 9.05418
228.119 8.07377
228.205 7.45674
228.378 6.75456
228.552 6.38675
228.725 6.17077
229.071 5.94072
229.417 5.82760
229.763 5.76435
230.456 5.70301
231.148 5.68513
231.494 5.69029
231.840 5.71085
232.187 5.76410
232.360 5.81810
232.533 5.91293
232.706 6.09748
232.792 6.26139
232.879 6.52253
232.966 6.97331
233.052 7.83606
233.095 8.58640
233.139 9.73844
233.182 11.5819
233.225 14.5439
233.278 19.8924
233.330 23.4517
233.383 19.8986
233.435 14.5506
233.491 10.9368
233.547 8.99101
233.604 7.89961
233.660 7.24727
233.716 6.83065
233.772 6.55124
233.884 6.21259
233.996 6.02367
234.109 5.90799
234.333 5.77919
234.558 5.71245
234.782 5.67306
235.231 5.62981
235.680 5.60680
236.129 5.59232
237.027 5.57416
238.823 5.55278
240.620 5.53803
242.416 5.52783
243.314 5.52590
244.212 5.52904
245.110 5.54488
245.559 5.56447
246.008 5.60288
246.457 5.68669
246.682 5.76868
246.906 5.91256
247.131 6.19728
247.243 6.45632
247.355 6.88100
247.467 7.64648
247.523 8.27862
247.580 9.21957
247.636 10.6981
247.692 13.1613
247.748 17.5534
247.804 25.6855
247.857 37.9119
247.910 46.1028
247.963 37.9185
248.016 25.6928
248.055 19.5471
248.094 15.5367
248.133 12.9123
248.172 11.1471
248.249 9.04040
248.327 7.90036
248.405 7.22210
248.483 6.78832
248.638 6.28757
248.794 6.02111
248.950 5.86264
249.261 5.69086
249.572 5.60372
249.883 5.55262
250.506 5.49602
251.128 5.46462
251.750 5.44335
252.995 5.41266
255.485 5.36305
257.974 5.31055
260.464 5.24673
261.708 5.20905
262.953 5.16889
263.575 5.15025
264.198 5.13680
264.820 5.13784
265.443 5.17896
265.754 5.23529
266.065 5.34317
266.376 5.55349
266.687 5.98917
266.843 6.38191
266.999 7.00244
267.154 8.03986
267.310 9.91620
267.465 13.7228
267.543 17.2221
267.621 22.9695
267.699 33.2246
267.777 53.7326
267.815 72.2358
267.854 101.706
267.893 150.786
267.913 186.915
267.932 233.624
267.954 300.776
267.976 378.618
268.020 482.224
268.042 459.465
268.064 396.056
268.108 255.468
268.143 178.179
268.178 128.546
268.212 96.5506
268.247 75.2581
268.317 50.0549
268.386 36.4753
268.456 28.3572
268.525 23.1381
268.665 17.0316
268.804 13.7155
268.943 11.7019
269.082 10.3795
269.221 9.45912
269.499 8.28432
269.777 7.58111
270.056 7.12049
270.334 6.79848
270.890 6.38133
271.447 6.12377
272.559 5.81902
273.672 5.63689
274.785 5.50683
277.011 5.30768
278.123 5.21900
279.236 5.13290
280.349 5.05298
281.462 4.99977
282.018 5.00366
282.575 5.05843
283.131 5.22446
283.687 5.65641
283.966 6.09119
284.244 6.82429
284.522 8.12511
284.800 10.6194
285.078 16.0118
285.218 21.2357
285.357 30.2331
285.496 47.3329
285.565 62.1087
285.635 84.8861
285.704 122.244
285.774 187.971
285.809 240.286
285.844 314.129
285.878 419.852
285.913 570.012
285.972 933.184
286.030 1195.76
286.089 982.320
286.147 631.476
286.198 424.828
286.248 297.483
286.299 218.163
286.349 166.804
286.450 107.374
286.551 76.0616
286.652 57.6019
286.753 45.8265
286.955 32.1477
287.156 24.7475
287.358 20.2616
287.560 17.3132
287.762 15.2601
288.166 12.6334
288.569 11.0577
288.973 10.0240
289.377 9.30125
290.184 8.36763
290.992 7.79724
291.799 7.41540
292.607 7.14277
294.221 6.77975
295.836 6.54817
297.451 6.38598
299.066 6.26431
302.296 6.08724
303.911 6.01675
305.525 5.95203
307.140 5.89083
307.948 5.86293
308.755 5.84217
309.159 5.83909
309.563 5.84763
309.966 5.88096
310.370 5.97256
310.572 6.06587
310.774 6.22347
310.976 6.50312
311.177 7.03789
311.379 8.19086
311.480 9.30428
311.581 11.2175
311.682 14.8492
311.733 17.9797
311.783 22.7948
311.833 30.6806
311.884 44.5129
311.934 70.9899
311.960 93.0641
311.985 124.432
312.006 159.726
312.027 200.576
312.070 255.294
312.113 210.249
312.155 136.756
312.190 95.4392
312.225 69.3270
312.259 52.6626
312.294 41.6548
312.363 28.7163
312.432 21.7797
312.501 17.6539
312.571 15.0027
312.709 11.9069
312.848 10.2251
312.986 9.20380
313.124 8.53215
313.263 8.06395
313.540 7.46470
313.816 7.10500
314.093 6.86876
314.370 6.70331
314.924 6.48895
315.477 6.35748
316.585 6.20740
317.692 6.13138
318.246 6.11308
318.799 6.11186
319.353 6.14336
319.630 6.18602
319.907 6.26964
320.184 6.44758
320.322 6.61612
320.460 6.90124
320.599 7.43444
320.668 7.89113
320.737 8.59490
320.806 9.75156
320.876 11.8150
320.945 15.8772
320.979 19.3822
321.014 24.4983
321.067 35.6890
321.120 43.1779
321.173 35.6920
321.226 24.4999
321.287 16.5603
321.349 12.4978
321.410 10.3092
321.471 9.03244
321.533 8.23325
321.594 7.70331
321.716 7.06985
321.839 6.72068
321.961 6.50841
322.207 6.27327
322.452 6.15163
322.697 6.07959
323.187 5.99962
323.677 5.95609
324.168 5.92796
325.148 5.89152
326.128 5.86669
327.109 5.84718
329.070 5.81608
332.992 5.76861
336.914 5.73114
340.836 5.70112
342.797 5.68995
344.757 5.68390
346.718 5.68994
347.699 5.70398
348.679 5.73602
349.170 5.76560
349.660 5.81259
350.150 5.89153
350.640 6.03594
350.885 6.15665
351.131 6.33840
351.376 6.62957
351.621 7.13762
351.866 8.14230
351.988 9.05897
352.111 10.5693
352.234 13.3144
352.295 15.6047
352.356 19.0405
352.417 24.5072
352.479 33.8008
352.540 50.8283
352.601 83.4209
352.656 130.225
352.710 161.376
352.765 130.131
352.819 83.4189
352.874 53.3680
352.928 36.5915
352.983 26.9444
353.038 21.0668
353.092 17.2618
353.147 14.6855
353.256 11.5325
353.366 9.76245
353.475 8.67475
353.693 7.46625
353.912 6.84623
354.131 6.48685
354.349 6.25987
354.568 6.10720
355.005 5.92037
355.442 5.81402
355.880 5.74706
356.317 5.70165
357.191 5.64438
358.066 5.60938
359.815 5.56641
361.564 5.53776
363.313 5.51451
366.811 5.47341
370.309 5.43391
372.058 5.41464
373.807 5.39721
375.556 5.38646
376.430 5.38834
377.305 5.40299
378.179 5.45029
378.616 5.50415
379.054 5.60681
379.491 5.82705
379.709 6.04077
379.928 6.41388
380.147 7.14814
380.256 7.81246
380.365 8.89718
380.475 10.8364
380.529 12.4290
380.584 14.7784
380.639 18.4331
380.693 24.4346
380.748 34.9450
380.802 53.8580
380.856 83.0656
380.910 102.561
380.964 83.0968
381.018 53.8956
381.080 33.0034
381.143 22.3574
381.206 16.6321
381.268 13.2973
381.331 11.2098
381.393 9.82988
381.519 8.18218
381.644 7.27682
381.769 6.72843
382.020 6.12508
382.270 5.81659
382.520 5.63659
383.021 5.44161
383.522 5.33924
384.023 5.27479
385.025 5.19136
386.027 5.13037
387.029 5.07551
389.032 4.96243
390.034 4.89980
391.036 4.83337
392.038 4.76914
393.040 4.73057
393.541 4.74317
394.042 4.80978
394.542 4.99472
395.043 5.46206
395.294 5.92759
395.544 6.70784
395.795 8.08578
396.045 10.7122
396.296 16.3513
396.421 21.7731
396.546 31.0402
396.609 38.2863
396.671 48.4732
396.734 63.3433
396.797 86.0352
396.859 122.610
396.922 185.602
396.953 234.581
396.984 302.351
397.016 397.138
397.047 528.904
397.104 867.452
397.160 1112.83
397.217 915.583
397.273 589.890
397.332 368.815
397.390 245.143
397.449 173.701
397.507 129.822
397.566 101.204
397.624 81.6524
397.741 57.4088
397.858 43.4981
397.975 34.7710
398.209 24.7732
398.444 19.4205
398.678 16.1884
398.912 14.0678
399.146 12.5902
399.614 10.6956
400.082 9.55375
400.550 8.80086
401.018 8.27175
401.955 7.58356
402.891 7.15946
403.827 6.87352
404.763 6.66818
406.636 6.39300
408.508 6.21648
410.381 6.09278
412.253 6.00047
415.999 5.86968
419.744 5.77875
427.234 5.65276
434.724 5.56074
442.214 5.48296
445.959 5.44680
449.704 5.41266
451.577 5.39774
452.513 5.39194
453.449 5.38889
454.385 5.39271
454.853 5.40090
455.322 5.41924
455.790 5.46205
456.024 5.50512
456.258 5.58168
456.492 5.73489
456.609 5.87515
456.726 6.10661
456.843 6.52693
456.902 6.87654
456.960 7.40051
457.019 8.22957
457.077 9.63009
457.136 12.1720
457.194 16.9862
457.247 23.9763
457.300 28.6360
457.353 23.9760
457.406 16.9850
457.448 13.2620
457.489 10.8992
457.531 9.39055
457.572 8.39538
457.656 7.23127
457.739 6.61346
457.822 6.25048
457.905 6.02028
458.072 5.75651
458.238 5.61694
458.404 5.53405
458.737 5.44395
459.070 5.39765
459.403 5.36995
460.068 5.33799
460.734 5.31900
461.399 5.30528
462.730 5.28416
465.392 5.24954
468.055 5.21660
473.379 5.14718
478.703 5.06760
484.027 4.97087
489.352 4.84400
492.014 4.76103
494.676 4.65606
497.338 4.51596
498.669 4.42675
500.000 4.32309
500.667 4.26832
501.333 4.21811
502.000 4.18856
502.666 4.22694
502.999 4.31135
503.332 4.49334
503.666 4.87350
503.999 5.69509
504.166 6.45058
504.332 7.65331
504.499 9.67010
504.665 13.3039
504.832 20.5686
504.915 27.1113
504.999 37.5958
505.082 55.6001
505.124 69.6939
505.165 89.4366
505.207 118.059
505.249 160.625
505.290 225.853
505.332 325.545
505.391 536.679
505.450 693.061
505.509 574.191
505.568 372.449
505.613 265.351
505.657 194.592
505.701 147.832
505.745 116.143
505.834 77.7099
505.922 56.5193
506.011 43.6417
506.100 35.2498
506.277 25.2856
506.454 19.7814
506.631 16.3926
506.808 14.1407
506.985 12.5580
507.339 10.5109
507.693 9.26764
508.047 8.44343
508.402 7.86210
509.110 7.10215
509.818 6.63054
510.527 6.30980
511.235 6.07697
512.652 5.75868
514.068 5.54700
516.901 5.26911
519.735 5.07844
522.568 4.92631
523.985 4.85995
525.401 4.80438
526.110 4.78813
526.818 4.80130
527.172 4.84475
527.349 4.89277
527.526 4.98033
527.703 5.15537
527.792 5.31293
527.880 5.56587
527.969 6.00558
528.057 6.85358
528.102 7.59596
528.146 8.74281
528.190 10.5923
528.234 13.5924
528.287 18.9459
528.340 22.5083
528.393 18.9303
528.446 13.5695
528.487 10.7334
528.528 8.92631
528.569 7.76835
528.610 7.00371
528.692 6.10346
528.774 5.62388
528.856 5.34027
528.939 5.15953
529.103 4.95000
529.267 4.83683
529.431 4.76780
529.760 4.68917
530.417 4.61899
531.074 4.59337
531.732 4.60772
532.060 4.64379
532.389 4.72374
532.717 4.90611
532.882 5.08527
533.046 5.39595
533.210 5.99383
533.293 6.51974
533.375 7.34964
533.457 8.76306
533.539 11.4125
533.580 13.6678
533.621 17.0573
533.662 22.3358
533.703 30.5520
533.757 46.2822
533.810 56.7408
533.864 46.2462
533.917 30.5417
533.973 20.1658
534.028 14.4847
534.084 11.2662
534.139 9.32538
534.195 8.07769
534.250 7.23545
534.362 6.21038
534.473 5.63498
534.584 5.28063
534.806 4.88242
535.028 4.67258
535.251 4.54567
535.695 4.39944
536.140 4.31400
536.584 4.25366
537.474 4.16352
539.252 4.02008
541.030 3.88625
542.808 3.75500
544.587 3.63916
545.476 3.60494
546.365 3.63224
546.810 3.72145
547.254 3.99982
547.476 4.36448
547.588 4.69885
547.699 5.24807
547.810 6.23724
547.921 8.26182
547.977 10.1522
548.032 13.2793
548.088 18.8114
548.143 28.8960
548.197 44.2147
548.250 54.4034
548.304 44.1911
548.357 28.9037
548.395 21.3592
548.433 16.3729
548.471 13.0584
548.509 10.8122
548.585 8.09949
548.661 6.61736
548.737 5.73060
548.814 5.16182
548.966 4.50517
549.118 4.15827
549.270 3.95582
549.575 3.74929
550.183 3.63819
550.792 3.68854
552.010 4.14234
553.227 5.39288
553.836 6.64584
554.445 8.74027
555.053 12.4143
555.662 19.3435
555.966 25.1888
556.271 33.9536
556.575 47.7360
556.880 70.7924
557.184 112.779
557.336 147.469
557.488 198.732
557.641 277.844
557.793 406.110
557.945 624.518
558.097 1004.15
558.264 1659.77
558.430 2143.82
558.597 1773.21
558.763 1146.28
558.925 737.603
559.088 499.909
559.250 358.516
559.412 269.799
559.574 211.069
559.736 170.407
560.061 119.337
560.385 89.6558
560.710 70.8430
561.359 49.0824
562.007 37.3339
562.656 30.2521
563.305 25.9169
563.467 25.3205
563.630 25.2211
563.711 25.6038
563.792 26.6857
563.873 29.4318
563.913 32.1574
563.954 36.4930
564.007 44.9346
564.060 50.4709
564.113 44.4650
564.166 35.6012
564.224 29.4313
564.283 26.0699
564.341 24.1208
564.399 22.8837
564.516 21.3971
564.632 20.4951
564.865 19.3284
565.098 18.5013
565.563 17.2540
566.029 16.3115
566.495 15.6183
566.961 15.2982
567.194 15.4766
567.310 15.7787
567.426 16.3775
567.543 17.5827
567.659 20.2268
567.718 22.7818
567.776 27.1137
567.834 34.9498
567.892 49.6508
567.946 71.4316
568.000 85.9328
568.054 71.3448
568.108 49.5115
568.167 34.5892
568.225 26.6113
568.284 22.1595
568.343 19.4919
568.460 16.6119
568.577 15.1654
568.695 14.3198
568.812 13.7681
569.046 13.0813
569.281 12.6536
569.516 12.3477
569.985 11.9246
570.454 11.6772
570.689 11.6353
570.923 11.6944
571.158 11.9664
571.275 12.2742
571.392 12.8246
571.510 13.8721
571.568 14.7625
571.627 16.1056
571.686 18.2422
571.744 21.8430
571.803 28.3550
571.862 40.5471
571.916 58.5413
571.970 70.5358
572.024 58.4899
572.078 40.4439
572.128 29.6337
572.177 23.2627
572.227 19.4339
572.276 17.0175
572.375 14.3023
572.474 12.9041
572.573 12.0885
572.672 11.5666
572.870 10.9466
573.068 10.5895
573.266 10.3516
573.662 10.0363
574.454 9.64518
575.246 9.36995
576.038 9.15252
576.830 8.99078
577.226 8.95004
577.622 8.99385
577.820 9.11191
577.919 9.23416
578.018 9.44434
578.117 9.82998
578.216 10.6157
578.266 11.3336
578.315 12.4903
578.365 14.4481
578.414 17.8285
578.467 23.3696
578.520 27.0620
578.573 23.3506
578.626 17.7898
578.662 15.1212
578.698 13.3312
578.771 11.2966
578.844 10.2812
578.916 9.71480
578.989 9.36833
579.062 9.14032
579.207 8.86482
579.353 8.70590
579.498 8.60159
579.789 8.46762
580.370 8.30876
580.952 8.19736
582.115 8.02059
583.277 7.87240
587.929 7.42033
592.581 7.09957
597.233 6.85488
606.536 6.49384
615.840 6.22200
625.144 5.98714
634.447 5.75538
643.751 5.49289
648.402 5.34115
649.565 5.30571
650.728 5.28485
651.310 5.29574
651.601 5.31749
651.891 5.36508
652.182 5.47326
652.327 5.57905
652.473 5.76103
652.618 6.10703
652.691 6.40685
652.763 6.87254
652.836 7.64791
652.909 9.05394
652.945 10.2100
652.982 11.8894
653.018 14.3888
653.054 18.1032
653.107 25.8914
653.160 31.0698
653.213 25.8707
653.266 18.0932
653.310 13.7187
653.355 11.0312
653.399 9.36146
653.444 8.28258
653.533 7.04570
653.622 6.40142
653.711 6.02583
653.800 5.78849
653.978 5.51591
654.156 5.36931
654.334 5.27974
654.690 5.17588
655.401 5.07254
656.113 5.00913
657.537 4.90791
658.960 4.81053
661.807 4.59655
664.655 4.34493
666.078 4.20815
667.502 4.07691
668.925 3.98565
670.349 4.03874
671.061 4.20834
671.772 4.59529
672.484 5.42669
673.196 7.25243
673.552 8.94093
673.908 11.6358
674.264 16.1538
674.620 24.2676
674.798 30.8414
674.975 40.3570
675.153 54.7042
675.331 77.4147
675.509 115.761
675.687 185.861
675.776 243.487
675.865 327.051
675.954 450.808
676.043 633.366
676.182 1051.49
676.320 1365.30
676.459 1135.48
676.598 737.956
676.738 470.621
676.879 317.607
677.019 227.742
677.160 171.827
677.300 135.024
677.440 109.607
677.721 77.7646
678.002 59.2660
678.283 47.5236
678.844 33.8973
679.406 26.4849
679.967 21.9465
680.529 18.9311
681.090 16.8062
682.214 14.0439
683.337 12.3502
684.460 11.2173
685.583 10.4120
687.829 9.35472
690.075 8.71699
691.198 8.51458
691.760 8.45185
692.321 8.43500
692.883 8.51589
693.164 8.63915
693.445 8.88906
693.725 9.42996
693.866 9.94500
694.006 10.8154
694.146 12.4379
694.217 13.8200
694.287 15.9363
694.357 19.3818
694.427 25.4409
694.497 37.1032
694.533 46.9438
694.568 60.9933
694.624 92.9141
694.680 114.152
694.736 92.8507
694.793 60.9805
694.838 43.5282
694.884 32.6499
694.929 25.7924
694.975 21.3124
695.066 16.1175
695.158 13.3874
695.249 11.7892
695.340 10.7789
695.523 9.62048
695.705 9.00484
695.888 8.63626
696.252 8.22903
696.617 8.01448
696.982 7.88418
697.712 7.74210
698.442 7.70065
698.807 7.72715
699.172 7.81571
699.537 8.04383
699.720 8.27699
699.902 8.68874
700.085 9.49563
700.176 10.2157
700.267 11.3677
700.358 13.3668
700.450 17.2231
700.495 20.5991
700.541 25.8365
700.586 34.2868
700.632 48.0756
700.686 72.5765
700.740 88.8742
700.794 72.5278
700.848 48.0687
700.890 35.2086
700.932 26.9824
700.973 21.6938
701.015 18.1930
701.098 14.0629
701.182 11.8602
701.265 10.5584
701.348 9.73060
701.515 8.77643
701.682 8.26752
701.848 7.96251
702.182 7.62548
702.515 7.44740
702.849 7.33721
703.515 7.20376
704.182 7.11984
704.849 7.05729
706.183 6.96129
708.850 6.81738
711.517 6.70210
716.851 6.51429
722.186 6.35872
732.854 6.09049
743.523 5.82730
754.192 5.50936
759.526 5.30022
764.861 5.02656
767.528 4.85208
770.195 4.64130
772.862 4.38276
775.529 4.06641
776.863 3.88912
778.197 3.71240
779.530 3.57428
780.864 3.59316
781.531 3.76356
782.197 4.18220
782.864 5.11191
783.531 7.18911
783.864 9.12231
784.198 12.2136
784.531 17.3941
784.865 26.6661
785.031 34.1393
785.198 44.9043
785.365 61.0010
785.531 86.2149
785.698 128.078
785.865 202.802
785.948 262.758
786.031 347.765
786.115 470.141
786.198 645.615
786.339 1078.19
786.480 1407.61
786.621 1177.85
786.762 770.404
786.849 583.659
786.937 450.061
787.111 286.747
787.286 198.714
787.460 147.022
787.634 114.274
787.809 92.2695
788.158 65.3638
788.507 50.0650
788.856 40.4667
789.553 29.4055
790.251 23.4019
790.949 19.7172
791.647 17.2586
792.345 15.5169
793.740 13.2351
795.136 11.8210
796.532 10.8654
797.927 10.1793
800.719 9.26352
803.510 8.68486
804.906 8.47358
806.301 8.31037
806.999 8.25824
807.348 8.24888
807.697 8.26384
808.046 8.33441
808.220 8.41718
808.395 8.57088
808.569 8.88068
808.657 9.15953
808.744 9.60688
808.831 10.3813
808.918 11.8630
808.962 13.1468
809.005 15.1160
809.049 18.2455
809.093 23.2595
809.146 32.4324
809.200 38.5490
809.254 32.4287
809.307 23.2477
809.359 17.5075
809.411 14.2332
809.463 12.3106
809.515 11.1230
809.619 9.81430
809.722 9.15667
809.826 8.78075
809.930 8.54540
810.137 8.27539
810.344 8.12818
810.552 8.03583
810.966 7.92320
811.381 7.85234
811.796 7.79956
812.625 7.71826
814.284 7.59453
815.943 7.49345
819.260 7.32708
822.578 7.19169
829.213 6.97802
835.848 6.80843
842.483 6.65675
845.800 6.57923
849.118 6.49334
852.436 6.38782
854.094 6.32076
855.753 6.23708
856.582 6.18631
857.412 6.12793
858.241 6.06151
859.071 5.99121
859.485 5.96058
859.900 5.94337
860.315 5.96192
860.729 6.07642
860.937 6.21735
861.144 6.47585
861.351 6.96216
861.559 7.93028
861.766 10.0645
861.870 12.1324
861.973 15.6508
862.077 22.1729
862.181 35.7461
862.233 48.4313
862.284 69.1830
862.336 104.951
862.388 168.074
862.444 277.286
862.500 360.336
862.556 301.803
862.612 198.716
862.654 143.479
862.696 106.810
862.738 82.4835
862.780 65.9410
862.864 45.8001
862.948 34.6123
863.032 27.7824
863.116 23.3027
863.283 17.9501
863.451 14.9666
863.619 13.1147
863.787 11.8750
863.955 10.9974
864.290 9.85303
864.626 9.15074
864.961 8.68115
865.297 8.34737
865.968 7.90739
866.640 7.63201
867.311 7.44382
867.982 7.30703
869.325 7.12078
870.667 6.99879
872.010 6.91164
873.352 6.84546
876.037 6.74962
878.722 6.68150
884.092 6.58627
889.462 6.51904
894.832 6.46831
897.517 6.44961
898.859 6.44347
900.202 6.44193
901.544 6.45129
902.216 6.46581
902.887 6.49622
903.223 6.52330
903.558 6.56546
903.894 6.63501
904.229 6.75984
904.397 6.86247
904.565 7.01487
904.733 7.25457
904.901 7.66220
905.068 8.43701
905.152 9.11448
905.236 10.1827
905.320 11.9985
905.404 15.4094
905.446 18.3187
905.488 22.7017
905.530 29.5486
905.572 40.2471
905.626 60.5859
905.680 74.1110
905.734 60.5509
905.788 40.2531
905.822 31.2504
905.856 24.9863
905.924 17.5584
905.991 13.6948
906.059 11.4943
906.127 10.1382
906.194 9.25177
906.329 8.20529
906.465 7.63688
906.600 7.29541
906.870 6.92317
907.141 6.73516
907.411 6.62691
907.682 6.55859
907.952 6.51251
908.493 6.45542
909.034 6.42201
910.116 6.38452
911.198 6.36311
912.279 6.34825
914.443 6.32666
918.771 6.29466
923.098 6.26753
931.753 6.21835
940.407 6.17213
949.062 6.12687
957.717 6.08165
962.044 6.05963
966.372 6.04136
968.536 6.03847
969.617 6.04218
970.699 6.05453
971.781 6.08855
972.322 6.12549
972.863 6.19466
973.133 6.25318
973.404 6.34193
973.674 6.48507
973.945 6.73630
974.215 7.23688
974.350 7.69615
974.486 8.45824
974.621 9.85619
974.689 11.0325
974.756 12.8166
974.824 15.6872
974.891 20.6553
974.959 29.9999
975.027 48.5821
975.083 74.1847
975.140 91.2211
975.197 74.1551
975.254 48.6052
975.302 34.0706
975.350 25.2217
975.399 19.7452
975.447 16.2311
975.544 12.2196
975.640 10.1444
975.737 8.94319
975.834 8.19031
976.027 7.33839
976.220 6.89342
976.414 6.63250
976.607 6.46632
976.800 6.35384
977.187 6.21519
977.574 6.13560
977.960 6.08513
978.347 6.05066
979.120 6.00664
979.894 5.97921
981.440 5.94431
982.987 5.91964
984.534 5.89838
987.627 5.85715
990.720 5.81118
993.813 5.75435
996.907 5.67780
998.453 5.62720
1000.00 5.56370
1001.01 5.51258
1002.02 5.45131
1003.03 5.37752
1004.04 5.29102
1004.54 5.24576
1005.05 5.20583
1005.55 5.18727
1006.06 5.23611
1006.31 5.32420
1006.56 5.50514
1006.82 5.87365
1007.07 6.64653
1007.32 8.43872
1007.45 10.2241
1007.57 13.3379
1007.70 19.2696
1007.76 24.3544
1007.83 32.1051
1007.89 44.5230
1007.95 65.6305
1008.01 103.848
1008.05 134.732
1008.08 175.587
1008.14 292.083
1008.20 379.413
1008.26 317.492
1008.32 209.782
1008.37 148.499
1008.42 108.811
1008.47 83.0418
1008.52 65.7721
1008.62 45.1273
1008.72 33.8357
1008.81 27.0054
1008.91 22.5506
1009.11 17.2710
1009.30 14.3179
1009.50 12.4946
1009.69 11.2667
1009.89 10.4010
1010.28 9.26457
1010.67 8.56728
1011.06 8.09987
1011.45 7.76694
1012.24 7.32674
1013.02 7.05110
1013.80 6.86263
1014.58 6.72568
1016.15 6.53948
1017.71 6.41806
1019.28 6.33174
1020.84 6.26651
1023.97 6.17234
1027.10 6.10527
1033.36 6.00912
1039.62 5.93566
1045.88 5.87075
1058.39 5.74187
1070.91 5.58468
1077.17 5.48045
1083.43 5.34309
1086.56 5.25443
1089.69 5.14543
1092.82 5.00694
1095.95 4.82456
1097.51 4.71030
1099.08 4.57666
1100.64 4.42278
1102.21 4.25931
1102.99 4.18879
1103.77 4.15160
1104.55 4.20246
1105.34 4.48787
1105.73 4.83483
1106.12 5.46539
1106.51 6.64183
1106.90 8.96310
1107.10 10.9739
1107.29 14.0101
1107.49 18.8498
1107.68 26.9351
1107.88 41.6828
1107.98 53.7827
1108.07 71.2720
1108.17 98.0706
1108.27 140.525
1108.37 210.459
1108.46 325.642
1108.58 544.067
1108.70 711.934
1108.82 596.499
1108.94 392.023
1109.03 274.559
1109.13 199.664
1109.22 151.115
1109.32 118.609
1109.51 79.7650
1109.70 58.5136
1109.89 45.5952
1110.08 37.2142
1110.46 27.2257
1110.84 21.6484
1111.22 18.1915
1111.60 15.8655
1111.98 14.2184
1112.74 12.0576
1113.50 10.7216
1114.26 9.82166
1115.02 9.17757
1116.55 8.31628
1118.07 7.76510
1119.59 7.37622
1121.11 7.08073
1124.15 6.63192
1125.68 6.43731
1127.20 6.24009
1128.72 6.01983
1129.48 5.89368
1130.24 5.75620
1130.62 5.68698
1131.00 5.62651
1131.38 5.59515
1131.76 5.65108
1131.95 5.75944
1132.14 5.98246
1132.33 6.43066
1132.52 7.35842
1132.71 9.44138
1132.81 11.4639
1132.90 14.8877
1133.00 21.1314
1133.05 26.3202
1133.09 33.7439
1133.14 45.2388
1133.19 62.9799
1133.24 92.6355
1133.28 140.695
1133.34 235.230
1133.40 309.828
1133.46 262.621
1133.52 174.884
1133.56 129.332
1133.60 98.2495
1133.64 77.1261
1133.69 62.7420
1133.77 44.3836
1133.85 34.0662
1133.94 27.5769
1134.02 23.3146
1134.19 18.1078
1134.35 15.1568
1134.52 13.3006
1134.69 12.0438
1134.85 11.1451
1135.19 9.95829
1135.52 9.21786
1135.86 8.71537
1136.19 8.35316
1136.86 7.86642
1137.53 7.55354
1138.19 7.33406
1138.86 7.17030
1140.20 6.93877
1141.53 6.77905
1144.21 6.56321
1146.88 6.41419
1149.55 6.29731
1154.89 6.10532
1160.24 5.92260
1162.91 5.81932
1165.58 5.69529
1168.25 5.53069
1169.59 5.42163
1170.92 5.28420
1171.59 5.20165
1172.26 5.10928
1172.93 5.01084
1173.59 4.92469
1173.93 4.90499
1174.26 4.92927
1174.60 5.05362
1174.93 5.41977
1175.26 6.44382
1175.43 7.57421
1175.60 9.68007
1175.76 13.9762
1175.85 17.8932
1175.93 24.0699
1176.02 34.6723
1176.10 53.8325
1176.14 69.6994
1176.18 92.0173
1176.22 125.528
1176.26 173.347
1176.33 290.795
1176.40 383.142
1176.47 323.921
1176.54 214.685
1176.61 139.811
1176.67 96.6309
1176.74 71.1105
1176.81 55.3220
1176.88 44.6873
1176.95 37.3960
1177.09 28.0916
1177.22 22.5919
1177.36 19.0935
1177.63 14.9754
1177.91 12.6896
1178.18 11.2745
1178.46 10.3214
1178.73 9.64124
1179.28 8.74171
1179.83 8.18020
1180.38 7.79705
1180.93 7.52031
1182.02 7.14585
1183.12 6.90393
1184.22 6.73346
1185.31 6.60596
1187.51 6.42668
1188.61 6.36224
1189.70 6.31191
1190.80 6.27994
1191.35 6.27638
1191.90 6.29060
1192.45 6.34620
1192.72 6.41020
1193.00 6.53043
1193.27 6.78190
1193.41 7.01731
1193.54 7.41332
1193.68 8.14943
1193.75 8.78213
1193.82 9.73804
1193.89 11.3221
1193.96 14.0784
1194.02 19.5032
1194.06 24.0490
1194.09 30.5771
1194.15 45.2251
1194.20 54.9736
1194.25 45.2174
1194.31 30.5648
1194.36 21.2876
1194.41 16.0318
1194.47 12.9751
1194.52 11.0947
1194.57 9.87266
1194.63 9.03991
1194.73 8.01661
1194.84 7.43856
1194.94 7.08120
1195.16 6.68173
1195.37 6.47213
1195.58 6.34787
1196.00 6.21104
1196.43 6.13748
1196.85 6.09074
1197.70 6.03084
1198.54 5.98978
1199.39 5.95671
1201.08 5.90102
1204.47 5.80456
1207.86 5.71306
1214.63 5.52053
1221.40 5.28662
1224.79 5.14044
1228.18 4.96314
1231.56 4.74048
1234.95 4.45083
1236.65 4.27184
1238.34 4.06597
1240.03 3.83583
1241.73 3.60897
1242.57 3.52829
1243.42 3.52013
1244.27 3.68821
1245.11 4.30050
1245.54 4.98120
1245.96 6.16949
1246.38 8.31472
1246.81 12.4187
1247.02 15.8915
1247.23 21.0706
1247.44 29.1125
1247.65 42.1878
1247.86 65.1566
1248.08 108.821
1248.18 146.266
1248.29 202.546
1248.39 289.279
1248.50 421.761
1248.65 709.940
1248.80 934.333
1248.95 787.661
1249.10 518.987
1249.27 323.406
1249.43 215.576
1249.60 154.022
1249.77 116.599
1249.93 92.0722
1250.10 75.3393
1250.43 54.3787
1250.76 42.2160
1251.09 34.4751
1251.75 25.4327
1252.41 20.4535
1253.08 17.3731
1253.74 15.3017
1254.40 13.8239
1255.73 11.8678
1257.05 10.6378
1258.37 9.78936
1259.70 9.16340
1262.35 8.26835
1263.67 7.91297
1265.00 7.57842
1266.32 7.23265
1266.98 7.04370
1267.65 6.83854
1267.98 6.73144
1268.31 6.62858
1268.64 6.54730
1268.97 6.54012
1269.14 6.60837
1269.30 6.78200
1269.47 7.16886
1269.63 8.00805
1269.80 9.96528
1269.88 11.8967
1269.96 15.1413
1270.05 21.1401
1270.09 26.1404
1270.13 33.2678
1270.17 44.3122
1270.21 61.2273
1270.25 88.5238
1270.29 132.977
1270.32 174.802
1270.35 222.822
1270.40 294.918
1270.43 286.246
1270.45 252.265
1270.51 169.799
1270.55 120.753
1270.59 89.2208
1270.64 68.8837
1270.68 55.3115
1270.77 39.1200
1270.86 30.2504
1270.95 24.8604
1271.03 21.3232
1271.21 17.0905
1271.39 14.6850
1271.56 13.1703
1271.74 12.1405
1271.91 11.4034
1272.26 10.4133
1272.62 9.78665
1272.97 9.35210
1273.32 9.03357
1274.02 8.59205
1274.72 8.29605
1276.13 7.91082
1277.54 7.65773
1278.94 7.46842
1281.75 7.18046
1284.57 6.93890
1285.97 6.81685
1287.38 6.68214
1288.78 6.51958
1289.49 6.42032
1290.19 6.30438
1290.54 6.24034
1290.89 6.17571
1291.24 6.11975
1291.60 6.10305
1291.77 6.13550
1291.95 6.23106
1292.12 6.45581
1292.30 6.96253
1292.47 8.18413
1292.56 9.41986
1292.65 11.5428
1292.74 15.5766
1292.83 24.0653
1292.87 31.9924
1292.91 44.9331
1292.94 54.4682
1292.96 67.0447
1292.98 83.6924
1293.00 104.435
1293.03 136.229
1293.05 174.199
1293.10 229.965
1293.13 223.165
1293.15 195.980
1293.20 131.600
1293.25 89.0360
1293.30 64.0637
1293.34 48.5116
1293.39 38.7668
1293.49 27.4526
1293.58 21.4771
1293.68 17.9252
1293.77 15.6276
1293.96 12.9122
1294.15 11.3868
1294.34 10.4325
1294.53 9.78645
1294.72 9.32531
1295.10 8.70840
1295.48 8.31950
1295.86 8.05152
1296.24 7.85521
1296.99 7.58458
1297.75 7.40431
1299.27 7.17100
1300.79 7.01721
1302.31 6.90037
1305.34 6.71361
1308.38 6.53965
1309.89 6.44283
1311.41 6.32900
1312.93 6.18511
1313.69 6.09707
1314.45 5.99941
1314.83 5.95124
1315.20 5.91252
1315.58 5.90309
1315.96 5.97813
1316.15 6.09182
1316.34 6.31422
1316.53 6.74826
1316.72 7.62421
1316.91 9.57386
1317.01 11.4544
1317.10 14.5809
1317.20 20.2985
1317.29 31.7769
1317.34 42.1797
1317.39 58.1511
1317.43 83.9649
1317.48 126.123
1317.54 210.134
1317.60 276.306
1317.66 234.024
1317.72 155.923
1317.78 101.659
1317.84 71.0528
1317.90 52.9622
1317.97 41.6325
1318.03 34.0267
1318.09 28.8404
1318.21 22.2806
1318.33 18.4002
1318.46 15.9337
1318.70 13.0284
1318.94 11.4135
1319.19 10.4099
1319.43 9.73413
1319.68 9.25354
1320.17 8.61556
1320.66 8.21679
1321.15 7.94475
1321.64 7.74768
1322.61 7.48140
1323.59 7.31049
1325.55 7.10757
1327.51 7.00939
1328.49 6.99650
1329.46 7.02327
1329.95 7.06334
1330.44 7.13597
1330.93 7.26714
1331.42 7.51655
1331.67 7.72846
1331.91 8.04941
1332.16 8.56455
1332.40 9.45674
1332.64 11.2129
1332.77 12.7905
1332.89 15.3560
1333.01 19.9676
1333.07 23.7112
1333.13 29.2190
1333.19 37.7191
1333.26 51.5870
1333.32 75.5433
1333.38 118.065
1333.44 185.220
1333.50 228.926
1333.56 184.075
1333.62 118.075
1333.68 76.0688
1333.74 52.1786
1333.80 38.2450
1333.86 29.7715
1333.92 24.1463
1333.98 20.3133
1334.10 15.6351
1334.22 12.9694
1334.34 11.3380
1334.58 9.50772
1334.82 8.56403
1335.06 8.01403
1335.30 7.66481
1335.53 7.42938
1336.01 7.13700
1336.49 6.96790
1336.97 6.85889
1337.44 6.78321
1338.40 6.68361
1339.35 6.61879
1341.26 6.53210
1343.18 6.46848
1345.09 6.41325
1348.91 6.30619
1352.73 6.18065
1354.64 6.09979
1356.55 5.99520
1357.50 5.92873
1358.46 5.84815
1359.41 5.74799
1360.37 5.62115
1360.84 5.54578
1361.32 5.46376
1361.80 5.38164
1362.28 5.32565
1362.52 5.33158
1362.75 5.39516
1362.99 5.58329
1363.23 6.05724
1363.47 7.28604
1363.59 8.59394
1363.71 10.9370
1363.83 15.5893
1363.89 19.6785
1363.95 25.8976
1364.01 36.1951
1364.07 53.7011
1364.10 67.5166
1364.13 86.6222
1364.16 113.292
1364.19 148.870
1364.24 250.038
1364.30 330.401
1364.33 319.642
1364.36 280.385
1364.41 186.720
1364.46 135.683
1364.50 102.304
1364.54 79.4439
1364.58 64.1268
1364.67 45.0848
1364.75 34.3984
1364.84 27.8151
1364.92 23.4615
1365.09 18.2048
1365.26 15.2357
1365.43 13.3713
1365.60 12.1102
1365.77 11.2092
1366.11 10.0209
1366.45 9.28126
1366.79 8.78100
1367.13 8.42295
1367.81 7.94449
1368.49 7.64206
1369.17 7.43466
1369.85 7.28474
1371.21 7.08767
1371.89 7.02592
1372.57 6.98871
1373.25 6.98985
1373.59 7.01931
1373.93 7.09153
1374.27 7.26213
1374.44 7.43146
1374.61 7.72615
1374.78 8.29471
1374.87 8.79532
1374.95 9.58742
1375.04 10.9374
1375.12 13.4786
1375.16 15.6764
1375.21 18.9195
1375.25 23.9478
1375.29 31.7780
1375.35 46.8230
1375.40 56.8589
1375.46 46.8072
1375.51 31.7544
1375.55 23.6264
1375.60 18.5171
1375.64 15.2806
1375.69 13.1980
1375.77 10.7104
1375.86 9.41001
1375.95 8.63803
1376.04 8.15425
1376.21 7.59538
1376.39 7.29844
1376.56 7.12091
1376.91 6.92557
1377.26 6.82227
1377.61 6.75857
1378.31 6.68205
1379.01 6.63452
1379.71 6.59973
1381.11 6.54767
1383.90 6.47264
1386.70 6.41455
1389.50 6.36613
1392.30 6.32923
1393.69 6.32211
1394.39 6.32686
1395.09 6.34509
1395.79 6.39648
1396.14 6.45213
1396.49 6.55495
1396.67 6.64110
1396.84 6.77022
1397.02 6.97487
1397.19 7.32266
1397.37 7.99061
1397.45 8.58152
1397.54 9.50630
1397.63 11.1055
1397.72 14.0962
1397.76 16.6896
1397.80 20.5310
1397.85 26.6901
1397.89 36.1678
1397.95 54.3326
1398.00 66.1687
1398.06 54.0175
1398.11 36.2049
1398.16 25.0608
1398.22 18.6551
1398.27 14.8862
1398.32 12.5833
1398.38 11.0429
1398.43 9.98946
1398.53 8.69960
1398.64 7.96043
1398.74 7.50696
1398.95 6.99726
1399.17 6.73117
1399.38 6.57556
1399.80 6.40700
1400.22 6.32045
1400.64 6.26822
1401.48 6.20653
1402.32 6.16808
1403.17 6.13874
1404.85 6.08977
1406.53 6.04357
1408.22 5.99518
1411.59 5.88004
1413.27 5.80678
1414.96 5.71655
1416.64 5.60075
1418.33 5.44521
1419.17 5.34525
1420.01 5.22523
1420.85 5.08058
1421.69 4.91124
1422.12 4.82307
1422.54 4.74633
1422.96 4.71257
1423.38 4.81162
1423.59 4.98437
1423.80 5.33336
1424.01 6.03285
1424.22 7.46704
1424.43 10.6887
1424.54 13.7891
1424.64 19.0044
1424.75 28.5492
1424.80 36.3494
1424.85 47.4382
1424.91 64.3848
1424.96 90.2159
1425.01 132.499
1425.06 199.660
1425.13 338.390
1425.20 446.866
1425.27 378.702
1425.34 252.568
1425.39 179.511
1425.45 132.715
1425.50 102.012
1425.55 81.2479
1425.66 56.1526
1425.77 42.2481
1425.88 33.7465
1425.99 28.1501
1426.20 21.4172
1426.42 17.6233
1426.63 15.2425
1426.85 13.6320
1427.07 12.4807
1427.50 10.9606
1427.93 10.0127
1428.36 9.37054
1428.79 8.90900
1429.66 8.29283
1430.52 7.90184
1431.39 7.63213
1432.25 7.43483
1433.98 7.16484
1435.71 6.98804
1437.44 6.86233
1439.16 6.76776
1442.62 6.63418
1444.35 6.58598
1446.08 6.54812
1447.81 6.52347
1448.67 6.51999
1449.53 6.52921
1450.40 6.56831
1450.83 6.61457
1451.26 6.70336
1451.48 6.77897
1451.69 6.89367
1451.91 7.07787
1452.13 7.39837
1452.34 8.02599
1452.45 8.59099
1452.56 9.50870
1452.67 11.1368
1452.72 12.4621
1452.77 14.4058
1452.83 17.3926
1452.88 22.2364
1452.94 30.5342
1452.99 45.1072
1453.05 68.4828
1453.10 83.6711
1453.16 68.0623
1453.21 45.1359
1453.27 29.0149
1453.34 20.5515
1453.40 15.9087
1453.46 13.1681
1453.52 11.4389
1453.58 10.2861
1453.71 8.90887
1453.83 8.14043
1453.95 7.67326
1454.20 7.15997
1454.45 6.89656
1454.70 6.74405
1455.19 6.58060
1455.69 6.49766
1456.18 6.44820
1457.17 6.39110
1458.16 6.35715
1459.15 6.33278
1461.13 6.29622
1465.09 6.24062
1469.05 6.19309
1473.01 6.14903
1476.97 6.10862
1478.95 6.09247
1480.93 6.08816
1481.92 6.10224
1482.42 6.12174
1482.91 6.16137
1483.41 6.24969
1483.65 6.33728
1483.90 6.49146
1484.15 6.80046
1484.27 7.08397
1484.40 7.54849
1484.52 8.40030
1484.58 9.11280
1484.64 10.1647
1484.71 11.8605
1484.77 14.7481
1484.83 20.0467
1484.89 29.9943
1484.95 44.3878
1485.00 53.9884
1485.06 44.4094
1485.11 30.0204
1485.16 21.6905
1485.21 16.6676
1485.25 13.5957
1485.30 11.6678
1485.40 9.44696
1485.49 8.29953
1485.59 7.63143
1485.68 7.21795
1485.87 6.74914
1486.06 6.50262
1486.25 6.35821
1486.63 6.20207
1487.02 6.12278
1487.40 6.07586
1488.16 6.02263
1489.68 5.96989
1491.21 5.93685
1494.25 5.88275
1497.30 5.82965
1503.40 5.70862
1509.49 5.55004
1512.54 5.44756
1515.59 5.32155
1518.64 5.16220
1521.69 4.95516
1523.21 4.82842
1524.73 4.68483
1526.26 4.52973
1527.78 4.39113
1528.54 4.35707
1529.31 4.39065
1530.07 4.57932
1530.83 5.14386
1531.59 6.73091
1531.97 8.48293
1532.35 11.7398
1532.73 18.3522
1532.93 24.3211
1533.12 33.7369
1533.31 49.6372
1533.50 78.1699
1533.59 101.184
1533.69 133.980
1533.78 181.388
1533.88 249.686
1534.04 421.417
1534.20 557.238
1534.36 472.636
1534.52 313.735
1534.68 209.936
1534.83 147.507
1534.98 109.384
1535.14 84.9563
1535.44 56.9471
1535.75 42.1956
1536.05 33.4012
1536.36 27.7215
1536.97 21.0083
1537.58 17.2681
1538.19 14.9403
1538.81 13.3679
1539.42 12.2472
1540.64 10.7656
1541.86 9.83979
1543.09 9.21035
1544.31 8.75638
1546.75 8.14604
1549.20 7.75789
1550.42 7.61666
1551.64 7.51181
1552.26 7.48510
1552.87 7.51283
1553.17 7.59129
1553.33 7.67534
1553.48 7.82410
1553.63 8.11467
1553.71 8.37126
1553.78 8.76756
1553.86 9.43915
1553.94 10.6467
1553.98 11.6384
1554.01 13.0830
1554.05 15.2339
1554.09 18.4324
1554.15 25.2160
1554.20 29.6387
1554.26 25.0807
1554.31 18.4189
1554.35 15.0111
1554.39 12.7898
1554.43 11.3376
1554.48 10.3614
1554.56 9.19593
1554.64 8.56384
1554.72 8.18608
1554.80 7.94281
1554.97 7.65790
1555.13 7.50173
1555.30 7.40495
1555.62 7.29166
1556.28 7.17884
1556.93 7.11302
1558.24 7.02066
1559.55 6.94745
1562.17 6.82498
1564.79 6.72006
1570.03 6.53586
1575.27 6.35833
1580.51 6.15294
1583.13 6.02196
1585.75 5.85281
1587.06 5.74515
1588.37 5.61427
1589.68 5.45092
1590.99 5.24264
1591.65 5.11796
1592.30 4.98049
1592.96 4.83986
1593.61 4.73426
1593.94 4.73097
1594.27 4.81322
1594.60 5.08263
1594.92 5.78425
1595.25 7.62331
1595.41 9.57248
1595.58 13.0543
1595.74 19.8795
1595.82 25.8023
1595.91 34.8804
1595.99 49.4568
1596.07 74.1766
1596.15 118.562
1596.23 199.384
1596.32 337.971
1596.40 449.423
1596.48 383.722
1596.57 256.581
1596.63 187.870
1596.69 141.411
1596.75 110.110
1596.82 88.5055
1596.94 61.8504
1597.06 46.7873
1597.19 37.4590
1597.31 31.2641
1597.56 23.7479
1597.81 19.4790
1598.06 16.7863
1598.30 14.9581
1598.55 13.6522
1599.05 11.9150
1599.54 10.8306
1600.04 10.0926
1600.53 9.56223
1601.53 8.85113
1602.52 8.39915
1603.51 8.08654
1604.50 7.85727
1606.48 7.54243
1608.46 7.33520
1610.45 7.18711
1612.43 7.07507
1616.39 6.91487
1618.38 6.85541
1620.36 6.80620
1622.34 6.76764
1624.32 6.74818
1625.31 6.75880
1625.81 6.77877
1626.30 6.82188
1626.80 6.92075
1627.05 7.01940
1627.30 7.19321
1627.54 7.54076
1627.67 7.85843
1627.79 8.38202
1627.92 9.33034
1627.98 10.1185
1628.04 11.2980
1628.10 13.1607
1628.16 16.2983
1628.23 21.9674
1628.29 32.4022
1628.34 47.9484
1628.40 58.3521
1628.46 47.9611
1628.51 32.4169
1628.55 25.6592
1628.58 21.0316
1628.65 15.3766
1628.72 12.3949
1628.79 10.7000
1628.86 9.63109
1628.93 8.92822
1629.06 8.09922
1629.20 7.64280
1629.34 7.36892
1629.61 7.06685
1629.89 6.91253
1630.16 6.82234
1630.71 6.72450
1631.26 6.67293
1631.81 6.64071
1632.91 6.60033
1635.11 6.55214
1637.31 6.51715
1641.71 6.45879
1646.10 6.40624
1654.90 6.30466
1663.69 6.19453
1672.48 6.05593
1676.88 5.96445
1681.28 5.84513
1685.67 5.67535
1687.87 5.55676
1690.07 5.39895
1691.17 5.29760
1692.27 5.17463
1693.37 5.02200
1694.47 4.82889
1695.02 4.71375
1695.57 4.58705
1696.12 4.45596
1696.66 4.35193
1696.94 4.33960
1697.21 4.39711
1697.49 4.60773
1697.76 5.17304
1698.04 6.67609
1698.18 8.28659
1698.31 11.1769
1698.38 13.5226
1698.45 16.8885
1698.52 21.8767
1698.59 29.4277
1698.66 41.7736
1698.73 62.4882
1698.76 78.8289
1698.79 100.474
1698.83 130.070
1698.86 170.265
1698.93 287.614
1699.00 381.539
1699.07 325.900
1699.14 218.210
1699.19 158.887
1699.24 119.695
1699.29 92.8527
1699.34 74.7350
1699.45 52.1878
1699.55 39.4836
1699.65 31.6309
1699.76 26.4223
1699.96 20.1309
1700.17 16.5372
1700.37 14.2787
1700.78 11.6307
1701.19 10.1569
1701.61 9.22597
1702.02 8.58499
1702.43 8.11488
1703.25 7.46201
1704.07 7.01689
1705.72 6.39542
1706.54 6.14396
1707.36 5.90978
1708.18 5.69053
1709.01 5.51048
1709.42 5.46335
1709.83 5.48775
1710.24 5.66749
1710.65 6.21012
1711.06 7.70789
1711.27 9.33219
1711.47 12.2720
1711.68 18.0896
1711.78 23.1761
1711.88 30.9237
1711.99 43.5409
1712.09 65.1080
1712.19 104.231
1712.29 176.621
1712.40 299.630
1712.50 397.656
1712.60 339.524
1712.71 228.001
1712.82 147.824
1712.93 102.096
1713.03 75.3064
1713.14 58.6236
1713.25 47.6080
1713.36 39.9639
1713.58 30.3041
1713.80 24.6204
1714.02 20.9625
1714.45 16.6418
1714.89 14.2228
1715.32 12.7083
1715.76 11.6769
1716.19 10.9364
1717.06 9.94580
1717.93 9.31703
1718.81 8.88322
1719.68 8.56582
1721.42 8.13151
1723.16 7.84753
1724.90 7.64648
1726.65 7.49639
1730.13 7.28839
1731.87 7.21581
1733.61 7.16106
1735.36 7.12933
1736.23 7.12884
1737.10 7.15032
1737.97 7.22326
1738.41 7.30567
1738.84 7.46046
1739.06 7.59128
1739.28 7.78867
1739.50 8.10415
1739.71 8.64721
1739.93 9.70804
1740.04 10.6580
1740.15 12.1929
1740.26 14.8960
1740.37 20.2609
1740.42 25.1568
1740.48 32.8476
1740.53 45.7158
1740.58 67.6561
1740.64 104.200
1740.70 127.915
1740.76 103.491
1740.82 67.5923
1740.87 45.9637
1740.92 33.1555
1740.98 25.4403
1741.03 20.5720
1741.14 15.1235
1741.24 12.3710
1741.35 10.7788
1741.45 9.79632
1741.66 8.68369
1741.87 8.10340
1742.09 7.76551
1742.30 7.55021
1742.51 7.40419
1742.93 7.22300
1743.35 7.11814
1744.20 7.00377
1745.04 6.94228
1745.89 6.90268
1747.58 6.85119
1750.95 6.78754
1754.33 6.74235
1757.71 6.70555
1761.09 6.67400
1767.85 6.62163
1774.61 6.57982
1781.36 6.54887
1784.74 6.54153
1786.43 6.54322
1788.12 6.55340
1789.81 6.58452
1790.66 6.61934
1791.50 6.68544
1791.92 6.74210
1792.34 6.82868
1792.77 6.96991
1793.19 7.22198
1793.40 7.43029
1793.61 7.73893
1793.82 8.22622
1794.03 9.06039
1794.24 10.6640
1794.35 12.0921
1794.46 14.3524
1794.56 18.3096
1794.67 25.8987
1794.72 32.6322
1794.77 43.1530
1794.83 60.2840
1794.88 87.8530
1794.94 137.122
1795.00 169.278
1795.06 136.322
1795.12 87.9132
1795.16 65.5782
1795.20 50.2248
1795.28 32.5202
1795.36 23.3428
1795.44 18.2391
1795.52 15.0802
1795.60 13.0487
1795.76 10.6453
1795.92 9.34772
1796.08 8.57061
1796.39 7.72907
1796.71 7.30495
1797.03 7.06231
1797.35 6.91045
1797.67 6.80923
1798.30 6.68564
1798.94 6.61572
1800.21 6.54196
1801.48 6.50439
1802.75 6.48143
1805.29 6.45341
1810.37 6.42090
1815.46 6.39757
1820.54 6.37759
1825.62 6.36060
1828.17 6.35483
1830.71 6.35625
1831.98 6.36662
1833.25 6.40386
1833.88 6.45799
1834.20 6.51156
1834.52 6.60656
1834.84 6.79969
1835.00 6.98015
1835.15 7.28274
1835.31 7.85533
1835.39 8.35502
1835.47 9.12525
1835.55 10.4328
1835.63 12.8042
1835.67 14.8018
1835.71 17.6687
1835.75 22.1088
1835.79 28.6439
1835.85 42.2043
1835.90 51.0482
1835.96 41.9647
1836.01 28.6670
1836.07 19.8975
1836.12 15.1270
1836.18 12.3491
1836.24 10.6911
1836.29 9.60355
1836.35 8.88049
1836.46 7.98914
1836.58 7.48980
1836.69 7.18332
1836.91 6.84408
1837.14 6.66909
1837.37 6.56789
1837.82 6.46032
1838.27 6.40693
1838.72 6.37629
1839.62 6.34326
1841.43 6.31454
1843.23 6.29984
1846.84 6.28051
1850.45 6.26518
1854.06 6.25215
1857.67 6.24444
1859.48 6.24748
1861.28 6.26932
1862.18 6.30492
1862.63 6.34118
1863.09 6.40692
1863.54 6.54312
1863.76 6.67350
1863.99 6.89819
1864.21 7.33977
1864.33 7.73866
1864.44 8.38249
1864.55 9.54134
1864.61 10.5027
1864.66 11.8994
1864.72 14.1103
1864.78 17.6881
1864.83 23.9206
1864.89 35.1075
1864.95 52.6105
1865.00 64.0008
1865.06 52.2737
1865.11 35.1034
1865.16 25.6334
1865.20 19.8190
1865.25 16.0529
1865.29 13.6407
1865.38 10.8002
1865.47 9.31609
1865.56 8.43663
1865.64 7.88693
1865.82 7.25579
1866.00 6.92490
1866.17 6.73103
1866.53 6.52651
1866.88 6.42919
1867.24 6.37888
1867.94 6.34630
1868.65 6.37896
1869.01 6.43110
1869.36 6.53337
1869.72 6.74971
1869.89 6.95467
1870.07 7.30292
1870.25 7.96077
1870.34 8.53508
1870.42 9.42184
1870.51 10.9255
1870.60 13.6565
1870.65 15.9858
1870.69 19.3567
1870.73 24.4525
1870.78 32.1612
1870.84 47.8943
1870.90 58.1641
1870.96 47.6346
1871.02 32.1741
1871.09 21.8798
1871.15 16.2464
1871.22 13.0567
1871.28 11.1317
1871.34 9.89789
1871.41 9.06579
1871.53 8.06006
1871.66 7.49281
1871.79 7.14758
1872.04 6.76226
1872.30 6.56421
1872.55 6.44879
1873.06 6.32550
1873.57 6.26339
1874.08 6.22686
1875.10 6.18582
1877.15 6.14635
1879.19 6.12287
1883.27 6.08653
1887.35 6.05302
1891.43 6.02111
1893.47 6.00803
1895.51 6.00150
1897.55 6.01402
1898.57 6.03911
1899.59 6.09598
1900.10 6.14861
1900.61 6.23250
1901.12 6.37375
1901.63 6.63234
1901.88 6.84814
1902.14 7.17241
1902.39 7.68973
1902.65 8.58593
1902.90 10.3359
1903.03 11.9167
1903.16 14.4617
1903.29 19.0097
1903.35 22.7166
1903.41 28.0557
1903.48 36.3704
1903.54 49.8620
1903.61 72.9836
1903.67 112.763
1903.73 177.066
1903.80 220.039
1903.87 177.294
1903.93 113.050
1903.99 77.6871
1904.04 55.9957
1904.09 42.0561
1904.15 33.1206
1904.25 22.6520
1904.36 17.1491
1904.47 13.9366
1904.57 11.9089
1904.79 9.59772
1905.00 8.38313
1905.22 7.66719
1905.43 7.20957
1905.64 6.89886
1906.07 6.51443
1906.50 6.29249
1906.93 6.15087
1907.36 6.05358
1908.21 5.92737
1909.07 5.84673
1910.78 5.73864
1912.49 5.65519
1914.20 5.57606
1917.62 5.39862
1921.04 5.15593
1922.75 4.98980
1924.47 4.77499
1926.18 4.48954
1927.03 4.31492
1927.89 4.12933
1928.32 4.04640
1928.74 3.99397
1929.17 4.02187
1929.60 4.25868
1930.03 5.09184
1930.24 6.07950
1930.45 7.97340
1930.67 11.8953
1930.78 15.4524
1930.88 21.1044
1930.99 30.5802
1931.10 47.5579
1931.15 61.2968
1931.20 80.3557
1931.26 107.535
1931.31 146.130
1931.41 249.453
1931.50 332.495
1931.60 284.567
1931.69 191.359
1931.76 140.823
1931.83 106.487
1931.90 83.2565
1931.97 67.3574
1932.11 47.3311
1932.25 36.0287
1932.39 28.9422
1932.53 24.2493
1932.81 18.4968
1933.09 15.2008
1933.37 13.1010
1933.92 10.6128
1934.48 9.18597
1935.04 8.25118
1936.15 7.04554
1937.27 6.25057
1937.83 5.96980
1938.38 5.84577
1938.94 6.16442
1939.22 6.77613
1939.50 8.15130
1939.78 11.3829
1939.92 14.5815
1940.06 19.9726
1940.20 29.8382
1940.27 37.8840
1940.33 49.3432
1940.40 66.6855
1940.47 93.0395
1940.54 135.502
1940.61 202.366
1940.71 343.785
1940.80 458.510
1940.89 393.032
1940.99 263.943
1941.05 203.629
1941.10 159.915
1941.22 106.120
1941.34 76.3233
1941.45 58.7079
1941.57 47.3056
1941.68 39.6150
1941.91 30.0504
1942.14 24.4751
1942.37 20.9266
1942.83 16.7293
1943.29 14.3819
1943.76 12.9014
1944.22 11.8888
1944.68 11.1547
1945.60 10.1635
1946.52 9.52509
1947.44 9.07877
1948.37 8.74834
1950.21 8.28990
1952.05 7.98508
1953.90 7.76651
1955.74 7.60140
1959.43 7.36723
1963.12 7.20815
1970.49 7.00388
1977.87 6.87690
1985.25 6.78946
2000.00 6.67527
2000.00 9.63991
2500.00 9.34012
3000.00 9.12923
3500.00 8.97337
4000.00 8.85411
5000.00 8.68560
6000.00 8.57540
7000.00 8.50028
8000.00 8.44819
10000.0 8.38690
12500.0 8.35625
15000.0 8.35291
17000.0 8.36143
20000.0 8.38507
25000.0 8.43952
30000.0 8.50169
35000.0 8.56542
40000.0 8.62818
50000.0 8.74666
60000.0 8.85334
70000.0 8.94819
80000.0 9.03207
99999.9 9.17127
100000 9.15145
144665 9.27924
150000 9.29230
200000 9.28411
206067 9.27191
206246 9.27153
206247 9.27153
206269 9.27147
206270 9.27147
226973 9.22978
250000 9.18783
300000 9.04008
420000 8.53295
420000 8.53295
485906 8.31330
485910 8.31329
485956 8.31315
485957 8.31315
490000 8.30076
500000 8.27056
541007 8.13331
541010 8.13330
541231 8.13259
541232 8.13259
599694 7.95401
600000 7.95313
600000 7.95313
616012 7.89262
625000 7.85934
664748 7.71772
664817 7.71748
686670 7.64318
686673 7.64317
686674 7.64317
700000 7.59901
701411 7.59396
701701 7.59292
726686 7.50512
726690 7.50510
726762 7.50485
726763 7.50485
726989 7.50407
728303 7.49953
728606 7.49849
742370 7.45150
742471 7.45117
742526 7.45097
750000 7.42586
760838 7.38985
760917 7.38959
773939 7.34696
786380 7.30695
786385 7.30693
786486 7.30660
794556 7.28101
795510 7.27800
795512 7.27799
800000 7.26389
803275 7.25311
829228 7.16924
829321 7.16894
849653 7.10507
875000 7.02752
880259 7.01172
880260 7.01172
880356 7.01143
880457 7.01113
880460 7.01112
897344 6.96103
897445 6.96073
900000 6.95323
957664 6.78773
957665 6.78772
957770 6.78744
957772 6.78742
957873 6.78715
999999 6.67246
1.00000E+06 6.67245
1.00334E+06 6.66422
1.03516E+06 6.58711
1.03517E+06 6.58709
1.03520E+06 6.58701
1.03527E+06 6.58684
1.03528E+06 6.58682
1.05014E+06 6.55161
1.05024E+06 6.55138
1.06781E+06 6.51039
1.06790E+06 6.51018
1.06793E+06 6.51011
1.07026E+06 6.50473
1.07444E+06 6.49511
1.08120E+06 6.47963
1.08510E+06 6.47074
1.08511E+06 6.47071
1.08552E+06 6.46979
1.10397E+06 6.42819
1.10417E+06 6.42773
1.10418E+06 6.42772
1.12832E+06 6.37430
1.12840E+06 6.37412
1.12842E+06 6.37408
1.12843E+06 6.37403
1.12843E+06 6.37402
1.12854E+06 6.37380
1.12855E+06 6.37378
1.12863E+06 6.37362
1.12874E+06 6.37338
1.14747E+06 6.33270
1.14757E+06 6.33249
1.15997E+06 6.30599
1.16056E+06 6.30473
1.16240E+06 6.30080
1.16241E+06 6.30079
1.20000E+06 6.22198
1.23549E+06 6.15608
1.25000E+06 6.12975
1.26710E+06 6.09897
1.27630E+06 6.08259
1.28180E+06 6.07286
1.28625E+06 6.06502
1.29736E+06 6.04554
1.29797E+06 6.04448
1.31599E+06 6.01316
1.31614E+06 6.01289
1.32392E+06 5.99953
1.37180E+06 5.91902
1.38426E+06 5.89856
1.39062E+06 5.88819
1.40000E+06 5.87300
1.42417E+06 5.83278
1.44069E+06 5.80559
1.44085E+06 5.80533
1.44706E+06 5.79521
1.44823E+06 5.79330
1.45226E+06 5.78676
1.46206E+06 5.77090
1.47650E+06 5.74773
1.47807E+06 5.74523
1.50000E+06 5.71055
1.50000E+06 5.71054
1.51345E+06 5.68902
1.51355E+06 5.68886
1.52556E+06 5.66981
1.52566E+06 5.66965
1.52607E+06 5.66901
1.52610E+06 5.66896
1.53138E+06 5.66063
1.55700E+06 5.62064
1.55718E+06 5.62035
1.55738E+06 5.62005
1.56128E+06 5.61402
1.56819E+06 5.60337
1.56930E+06 5.60166
1.58120E+06 5.58344
1.58139E+06 5.58316
1.59060E+06 5.56916
1.59645E+06 5.56031
1.63724E+06 5.49944
1.63742E+06 5.49917
1.64300E+06 5.49097
1.64310E+06 5.49082
1.64512E+06 5.48786
1.64522E+06 5.48771
1.66248E+06 5.46255
1.66258E+06 5.46240
1.68590E+06 5.42883
1.68775E+06 5.42618
1.70000E+06 5.40875
1.70089E+06 5.40747
1.72514E+06 5.37301
1.75000E+06 5.33817
1.76071E+06 5.32331
1.76082E+06 5.32316
1.76122E+06 5.32260
1.77662E+06 5.30141
1.78140E+06 5.29485
1.78353E+06 5.29194
1.78827E+06 5.28547
1.79060E+06 5.28230
1.80160E+06 5.26739
1.86620E+06 5.18155
1.88390E+06 5.15854
1.88422E+06 5.15813
1.88433E+06 5.15799
1.88916E+06 5.15175
1.89530E+06 5.14384
1.90028E+06 5.13745
1.92736E+06 5.10298
1.92740E+06 5.10292
1.95860E+06 5.06381
1.98040E+06 5.03685
1.98524E+06 5.03091
1.98566E+06 5.03039
1.99911E+06 5.01393
1.99921E+06 5.01382
2.00000E+06 5.01286
2.00596E+06 5.00596
2.00687E+06 5.00491
2.01000E+06 5.00131
2.01000E+06 5.00130
2.01374E+06 4.99700
2.02061E+06 4.98912
2.02126E+06 4.98837
2.02748E+06 4.98126
2.03435E+06 4.97343
2.03829E+06 4.96895
2.03830E+06 4.96895
2.03839E+06 4.96885
2.04122E+06 4.96564
2.04809E+06 4.95786
2.05320E+06 4.95209
2.05353E+06 4.95172
2.05496E+06 4.95011
2.05859E+06 4.94602
2.05902E+06 4.94554
2.06060E+06 4.94376
2.06183E+06 4.94238
2.06870E+06 4.93468
2.07557E+06 4.92700
2.08244E+06 4.91935
2.08931E+06 4.91172
2.08961E+06 4.91139
2.09184E+06 4.90892
2.09403E+06 4.90650
2.09450E+06 4.90599
2.09618E+06 4.90413
2.10305E+06 4.89655
2.10636E+06 4.89291
2.10992E+06 4.88900
2.11679E+06 4.88147
2.11764E+06 4.88054
2.12262E+06 4.87511
2.12366E+06 4.87397
2.12648E+06 4.87089
2.12659E+06 4.87078
2.13053E+06 4.86650
2.13740E+06 4.85904
2.14427E+06 4.85162
2.15114E+06 4.84421
2.15220E+06 4.84307
2.15801E+06 4.83683
2.16488E+06 4.82947
2.17175E+06 4.82214
2.17781E+06 4.81569
2.17862E+06 4.81483
2.18549E+06 4.80754
2.19236E+06 4.80028
2.19923E+06 4.79304
2.20342E+06 4.78863
2.20610E+06 4.78582
2.21271E+06 4.77890
2.21297E+06 4.77863
2.21984E+06 4.77145
2.22671E+06 4.76430
2.22903E+06 4.76189
2.22950E+06 4.76141
2.22964E+06 4.76127
2.23358E+06 4.75718
2.24045E+06 4.75007
2.24264E+06 4.74781
2.24671E+06 4.74363
2.24691E+06 4.74341
2.24732E+06 4.74299
2.25000E+06 4.74023
2.25419E+06 4.73592
2.25800E+06 4.73201
2.26106E+06 4.72887
2.26533E+06 4.72451
2.26793E+06 4.72185
2.26860E+06 4.72117
2.27480E+06 4.71485
2.28167E+06 4.70786
2.28760E+06 4.70185
2.28854E+06 4.70090
2.29541E+06 4.69396
2.30228E+06 4.68704
2.30660E+06 4.68270
2.30765E+06 4.68165
2.30915E+06 4.68014
2.31602E+06 4.67327
2.31864E+06 4.67065
2.31906E+06 4.67023
2.31985E+06 4.66944
2.32289E+06 4.66641
2.32976E+06 4.65957
2.33663E+06 4.65275
2.33863E+06 4.65078
2.34350E+06 4.64596
2.35037E+06 4.63918
2.35724E+06 4.63242
2.35740E+06 4.63227
2.35744E+06 4.63223
2.36362E+06 4.62617
2.36411E+06 4.62569
2.36774E+06 4.62214
2.36785E+06 4.62202
2.36815E+06 4.62174
2.37098E+06 4.61897
2.37785E+06 4.61228
2.38472E+06 4.60560
2.39159E+06 4.59894
2.39520E+06 4.59545
2.39846E+06 4.59230
2.40533E+06 4.58569
2.41220E+06 4.57909
2.41836E+06 4.57319
2.41870E+06 4.57285
2.41891E+06 4.57265
2.41907E+06 4.57250
2.42150E+06 4.57017
2.42541E+06 4.56643
2.42594E+06 4.56593
2.42972E+06 4.56232
2.43281E+06 4.55938
2.43968E+06 4.55286
2.43999E+06 4.55256
2.44473E+06 4.54808
2.44655E+06 4.54635
2.44903E+06 4.54400
2.44953E+06 4.54354
2.45162E+06 4.54156
2.45172E+06 4.54147
2.45280E+06 4.54045
2.45342E+06 4.53987
2.46029E+06 4.53340
2.46405E+06 4.52986
2.46627E+06 4.52777
2.46716E+06 4.52694
2.47403E+06 4.52050
2.47524E+06 4.51937
2.48090E+06 4.51409
2.48777E+06 4.50769
2.49464E+06 4.50132
2.49494E+06 4.50104
2.50000E+06 4.49634
2.50151E+06 4.49518
2.50679E+06 4.49113
2.50709E+06 4.49090
2.50838E+06 4.48991
2.51101E+06 4.48791
2.51525E+06 4.48467
2.52000E+06 4.48104
2.52000E+06 4.48104
2.52050E+06 4.48066
2.52212E+06 4.47942
2.52629E+06 4.47625
2.52781E+06 4.47511
2.52899E+06 4.47421
2.53176E+06 4.47210
2.53212E+06 4.47183
2.53586E+06 4.46900
2.54273E+06 4.46380
2.54735E+06 4.46031
2.54960E+06 4.45862
2.55473E+06 4.45476
2.55483E+06 4.45468
2.55607E+06 4.45375
2.55647E+06 4.45345
2.55790E+06 4.45238
2.56054E+06 4.45040
2.56055E+06 4.45039
2.56092E+06 4.45011
2.56110E+06 4.44998
2.56112E+06 4.44996
2.56334E+06 4.44830
2.56712E+06 4.44547
2.57021E+06 4.44316
2.57708E+06 4.43803
2.58395E+06 4.43292
2.58908E+06 4.42911
2.59082E+06 4.42783
2.59437E+06 4.42520
2.59457E+06 4.42505
2.59769E+06 4.42274
2.60456E+06 4.41767
2.61143E+06 4.41261
2.61615E+06 4.40915
2.61830E+06 4.40757
2.62128E+06 4.40539
2.62159E+06 4.40515
2.62517E+06 4.40253
2.63204E+06 4.39752
2.63803E+06 4.39316
2.63811E+06 4.39310
2.63891E+06 4.39252
2.63955E+06 4.39206
2.64107E+06 4.39094
2.64168E+06 4.39051
2.64578E+06 4.38753
2.64645E+06 4.38705
2.65265E+06 4.38255
2.65952E+06 4.37759
2.66172E+06 4.37600
2.66639E+06 4.37264
2.67326E+06 4.36770
2.67699E+06 4.36502
2.68013E+06 4.36277
2.68700E+06 4.35786
2.69226E+06 4.35410
2.69387E+06 4.35296
2.70074E+06 4.34807
2.70753E+06 4.34325
2.70761E+06 4.34319
2.71448E+06 4.33833
2.72135E+06 4.33348
2.72280E+06 4.33246
2.72822E+06 4.32864
2.73509E+06 4.32381
2.73807E+06 4.32173
2.74196E+06 4.31900
2.74446E+06 4.31725
2.74883E+06 4.31420
2.75334E+06 4.31105
2.75570E+06 4.30941
2.76257E+06 4.30463
2.76861E+06 4.30044
2.76923E+06 4.30001
2.76943E+06 4.29988
2.76944E+06 4.29987
2.77631E+06 4.29512
2.78318E+06 4.29037
2.78973E+06 4.28586
2.79005E+06 4.28565
2.79029E+06 4.28549
2.79069E+06 4.28521
2.79301E+06 4.28362
2.79692E+06 4.28093
2.79783E+06 4.28030
2.80379E+06 4.27622
2.81066E+06 4.27153
2.81657E+06 4.26750
2.81753E+06 4.26684
2.82440E+06 4.26217
2.83127E+06 4.25751
2.83530E+06 4.25478
2.83594E+06 4.25435
2.83814E+06 4.25287
2.84501E+06 4.24823
2.85081E+06 4.24433
2.85188E+06 4.24361
2.85875E+06 4.23899
2.86562E+06 4.23438
2.86636E+06 4.23389
2.87249E+06 4.22978
2.87936E+06 4.22519
2.88098E+06 4.22411
2.88100E+06 4.22410
2.90038E+06 4.21124
2.90103E+06 4.21080
2.90325E+06 4.20933
2.90952E+06 4.20519
2.93968E+06 4.18539
2.94507E+06 4.18188
2.96984E+06 4.16580
2.98688E+06 4.15482
2.98755E+06 4.15439
2.99000E+06 4.15282
2.99000E+06 4.15282
2.99685E+06 4.14844
2.99690E+06 4.14840
2.99695E+06 4.14836
3.00000E+06 4.14641
3.03030E+06 4.13253
3.03120E+06 4.13213
3.03125E+06 4.13211
3.03160E+06 4.13194
3.03190E+06 4.13180
3.03292E+06 4.13135
3.04000E+06 4.12811
3.06250E+06 4.11790
3.09375E+06 4.10383
3.09632E+06 4.10267
3.09773E+06 4.10204
3.12500E+06 4.08991
3.12520E+06 4.08981
3.12523E+06 4.08981
3.15625E+06 4.07613
3.18750E+06 4.06249
3.19817E+06 4.05786
3.21619E+06 4.05007
3.21875E+06 4.04898
3.22371E+06 4.04685
3.25000E+06 4.03560
3.28125E+06 4.02237
3.30646E+06 4.01179
3.30712E+06 4.01151
3.31250E+06 4.00926
3.34375E+06 3.99627
3.37500E+06 3.98341
3.40452E+06 3.97137
3.40608E+06 3.97074
3.40625E+06 3.97067
3.41362E+06 3.96767
3.43750E+06 3.95804
3.46410E+06 3.94739
3.46875E+06 3.94553
3.50000E+06 3.93315
3.50000E+06 3.93315
3.53125E+06 3.92541
3.53530E+06 3.92441
3.53610E+06 3.92421
3.53680E+06 3.92404
3.53760E+06 3.92383
3.56250E+06 3.91773
3.57924E+06 3.91366
3.58087E+06 3.91326
3.59375E+06 3.91013
3.61959E+06 3.90391
3.62153E+06 3.90344
3.62500E+06 3.90261
3.65625E+06 3.89515
3.65927E+06 3.89443
3.66094E+06 3.89404
3.66458E+06 3.89316
3.68750E+06 3.88774
3.71875E+06 3.88041
3.72848E+06 3.87814
3.72850E+06 3.87815
3.75000E+06 3.87315
3.78125E+06 3.86594
3.81250E+06 3.85879
3.84211E+06 3.85206
3.84375E+06 3.85169
3.87500E+06 3.84467
3.90625E+06 3.83770
3.92106E+06 3.83441
3.93750E+06 3.83078
3.96875E+06 3.82393
4.00000E+06 3.81712
4.02000E+06 3.81550
4.02000E+06 3.81550
4.06250E+06 3.81207
4.12500E+06 3.80710
4.18750E+06 3.80222
4.21930E+06 3.79977
4.25000E+06 3.79742
4.31250E+06 3.79270
4.37500E+06 3.78805
4.43750E+06 3.78348
4.45062E+06 3.78253
4.50000E+06 3.77899
4.51000E+06 3.77946
4.51000E+06 3.77946
4.56250E+06 3.78193
4.62500E+06 3.78483
4.68750E+06 3.78771
4.69462E+06 3.78803
4.75000E+06 3.79055
4.81250E+06 3.79336
4.87500E+06 3.79614
4.93750E+06 3.79889
4.95200E+06 3.79952
5.00000E+06 3.80161
5.00000E+06 3.80161
5.12500E+06 3.82232
5.21019E+06 3.83616
5.25000E+06 3.84256
5.37500E+06 3.86234
5.48524E+06 3.87943
5.50000E+06 3.88169
5.50152E+06 3.88193
5.62500E+06 3.90062
5.66944E+06 3.90725
5.68506E+06 3.90958
5.75000E+06 3.91915
5.87500E+06 3.93729
6.00000E+06 3.95506
6.02000E+06 3.95888
6.02000E+06 3.95888
6.22419E+06 3.99719
6.25328E+06 4.00255
6.39579E+06 4.02845
6.44838E+06 4.03786
6.48074E+06 4.04361
6.67256E+06 4.07711
6.88521E+06 4.11316
6.88694E+06 4.11345
6.88766E+06 4.11357
6.89675E+06 4.11509
6.99205E+06 4.13084
7.00000E+06 4.13216
7.03335E+06 4.13592
7.04000E+06 4.13667
7.04000E+06 4.13667
7.06546E+06 4.13956
7.23762E+06 4.15923
7.35595E+06 4.17295
7.45347E+06 4.18438
7.45430E+06 4.18448
7.45598E+06 4.18467
7.48331E+06 4.18789
7.53044E+06 4.19347
7.54412E+06 4.19508
7.54566E+06 4.19526
7.54755E+06 4.19548
7.56445E+06 4.19749
7.71054E+06 4.21495
7.71191E+06 4.21512
7.73734E+06 4.21818
7.89064E+06 4.23676
7.89065E+06 4.23676
8.00000E+06 4.25015
8.00000E+06 4.25016
8.02988E+06 4.25151
8.05977E+06 4.25290
8.08965E+06 4.25433
8.11954E+06 4.25579
8.14942E+06 4.25728
8.17516E+06 4.25859
8.17930E+06 4.25881
8.20919E+06 4.26037
8.23907E+06 4.26196
8.26659E+06 4.26346
8.29411E+06 4.26498
8.31543E+06 4.26618
8.33674E+06 4.26740
8.35031E+06 4.26818
8.35806E+06 4.26863
8.37937E+06 4.26988
8.38459E+06 4.27018
8.40720E+06 4.27153
8.42982E+06 4.27290
8.45243E+06 4.27428
8.47504E+06 4.27569
8.48528E+06 4.27633
8.50977E+06 4.27786
8.52546E+06 4.27886
8.53426E+06 4.27942
8.55875E+06 4.28100
8.58324E+06 4.28261
8.58822E+06 4.28293
8.61632E+06 4.28480
8.64442E+06 4.28670
8.67251E+06 4.28863
8.70061E+06 4.29057
8.73003E+06 4.29264
8.73046E+06 4.29267
8.73143E+06 4.29274
8.73609E+06 4.29308
8.73885E+06 4.29326
8.78336E+06 4.29645
8.82787E+06 4.29971
8.84981E+06 4.30134
8.87175E+06 4.30298
8.89369E+06 4.30464
8.91563E+06 4.30631
8.93361E+06 4.30770
8.96681E+06 4.31028
8.99000E+06 4.31211
8.99000E+06 4.31211
9.00000E+06 4.31290
9.03003E+06 4.31285
9.06005E+06 4.31283
9.09008E+06 4.31285
9.12011E+06 4.31290
9.15013E+06 4.31299
9.18016E+06 4.31312
9.21018E+06 4.31327
9.24021E+06 4.31347
9.25057E+06 4.31354
9.25523E+06 4.31357
9.28581E+06 4.31382
9.31639E+06 4.31410
9.32621E+06 4.31420
9.36031E+06 4.31454
9.39440E+06 4.31493
9.39472E+06 4.31493
9.39988E+06 4.31499
9.40010E+06 4.31501
9.43931E+06 4.31551
9.47852E+06 4.31607
9.48683E+06 4.31620
9.52129E+06 4.31675
9.55576E+06 4.31734
9.59022E+06 4.31797
9.62468E+06 4.31865
9.62972E+06 4.31875
9.66310E+06 4.31945
9.68488E+06 4.31993
9.74004E+06 4.32121
9.74409E+06 4.32131
9.77649E+06 4.32212
9.78944E+06 4.32246
9.84274E+06 4.32388
9.89603E+06 4.32540
9.89837E+06 4.32548
9.94919E+06 4.32702
1.00000E+07 4.32865
1.00300E+07 4.32758
1.00300E+07 4.32758
1.00610E+07 4.32650
1.01220E+07 4.32446
1.01830E+07 4.32251
1.02441E+07 4.32066
1.02500E+07 4.32049
1.03051E+07 4.31891
1.03661E+07 4.31726
1.04271E+07 4.31570
1.04881E+07 4.31424
1.05000E+07 4.31398
1.05554E+07 4.31275
1.06108E+07 4.31161
1.06661E+07 4.31054
1.07215E+07 4.30954
1.07500E+07 4.30906
1.07911E+07 4.30840
1.08608E+07 4.30738
1.09304E+07 4.30648
1.10000E+07 4.30570
1.11485E+07 4.29657
1.12491E+07 4.29063
1.13691E+07 4.28379
1.14891E+07 4.27723
1.15000E+07 4.27665
1.16463E+07 4.26905
1.17926E+07 4.26186
1.18715E+07 4.25815
1.20000E+07 4.25234
1.20000E+07 4.25234
1.20515E+07 4.24807
1.21029E+07 4.24383
1.21544E+07 4.23964
1.22058E+07 4.23550
1.22573E+07 4.23139
1.23087E+07 4.22733
1.23602E+07 4.22331
1.24117E+07 4.21933
1.24631E+07 4.21540
1.25000E+07 4.21260
1.25146E+07 4.21151
1.25660E+07 4.20765
1.26175E+07 4.20384
1.26689E+07 4.20008
1.27204E+07 4.19635
1.27719E+07 4.19267
1.28233E+07 4.18902
1.28314E+07 4.18845
1.28736E+07 4.18550
1.29157E+07 4.18258
1.29579E+07 4.17969
1.30000E+07 4.17683
1.30625E+07 4.16983
1.31250E+07 4.16290
1.31875E+07 4.15602
1.32500E+07 4.14921
1.33125E+07 4.14247
1.33750E+07 4.13578
1.34375E+07 4.12916
1.34807E+07 4.12462
1.35000E+07 4.12260
1.35517E+07 4.11722
1.36035E+07 4.11189
1.36552E+07 4.10659
1.37069E+07 4.10134
1.37706E+07 4.09493
1.38342E+07 4.08859
1.38979E+07 4.08231
1.39615E+07 4.07610
1.39800E+07 4.07428
1.39800E+07 4.07427
1.40000E+07 4.07231
1.40903E+07 4.06002
1.41806E+07 4.04786
1.42708E+07 4.03583
1.43611E+07 4.02393
1.43671E+07 4.02314
1.43694E+07 4.02284
1.44347E+07 4.01431
1.45000E+07 4.00586
1.45009E+07 4.00574
1.45019E+07 4.00561
1.45039E+07 4.00535
1.45058E+07 4.00509
1.45078E+07 4.00483
1.45117E+07 4.00433
1.45156E+07 4.00382
1.45195E+07 4.00332
1.45234E+07 4.00281
1.45312E+07 4.00179
1.45390E+07 4.00078
1.45468E+07 3.99977
1.45625E+07 3.99774
1.45781E+07 3.99572
1.45937E+07 3.99371
1.46250E+07 3.98968
1.46562E+07 3.98568
1.46875E+07 3.98167
1.47187E+07 3.97769
1.47500E+07 3.97372
1.47812E+07 3.96978
1.48125E+07 3.96584
1.48750E+07 3.95800
1.49597E+07 3.94747
1.50000E+07 3.94250
1.50926E+07 3.92993
1.51852E+07 3.91748
1.52933E+07 3.90306
1.54015E+07 3.88880
1.55096E+07 3.87468
1.56177E+07 3.86071
1.56321E+07 3.85886
1.56503E+07 3.85652
1.56847E+07 3.85213
1.57274E+07 3.84668
1.58024E+07 3.83718
1.58773E+07 3.82775
1.60000E+07 3.81247
1.61365E+07 3.79775
1.61365E+07 3.79775
1.61510E+07 3.79619
1.62958E+07 3.78064
1.63869E+07 3.77090
1.64472E+07 3.76450
1.65752E+07 3.75101
1.67032E+07 3.73766
1.67087E+07 3.73709
1.67104E+07 3.73692
1.69056E+07 3.71685
1.69900E+07 3.70829
1.69900E+07 3.70828
1.70000E+07 3.70727
1.72289E+07 3.69002
1.72426E+07 3.68900
1.74015E+07 3.67725
1.76685E+07 3.65784
1.79355E+07 3.63889
1.79482E+07 3.63800
1.79483E+07 3.63799
1.80000E+07 3.63437
1.82500E+07 3.61663
1.85000E+07 3.59922
1.87500E+07 3.58215
1.90000E+07 3.56542
1.92500E+07 3.54863
1.95000E+07 3.53213
1.97500E+07 3.51592
2.00000E+07 3.50000