Mo-95(n,tot) ENDF/B-VII.1
Energy(eV) XS(b)
1.00000E-05 680.158
1.25000E-05 608.996
1.50000E-05 556.465
2.00000E-05 482.730
2.58114E-05 425.656
3.16228E-05 385.149
4.08114E-05 339.760
5.00000E-05 307.545
6.25000E-05 275.720
7.50000E-05 252.228
0.000100000 219.252
0.000125000 196.749
0.000150000 180.137
0.000200000 156.820
0.000258114 138.771
0.000316228 125.962
0.000408114 111.608
0.000500000 101.421
0.000625000 91.3571
0.000750000 83.9280
0.00100000 73.5000
0.00125000 66.3835
0.00150000 61.1302
0.00200000 53.7563
0.00258114 48.0485
0.00316228 43.9974
0.00408114 39.4580
0.00500000 36.2361
0.00625000 33.0530
0.00750000 30.7032
0.0100000 27.4047
0.0125000 25.1534
0.0150000 23.4915
0.0200000 21.1582
0.0253000 19.4853
0.0316228 18.0693
0.0408114 16.6318
0.0500000 15.6110
0.0625000 14.6020
0.0750000 13.8567
0.100000 12.8093
0.125000 12.0934
0.150000 11.5640
0.200000 10.8189
0.258114 10.2397
0.316228 9.82665
0.408114 9.36068
0.500000 9.02699
0.750000 8.44427
1.00000 8.08680
1.50000 7.64375
2.00000 7.36190
2.58114 7.12772
3.16228 6.94833
4.08114 6.72749
5.00000 6.55197
7.50000 6.18971
9.99999 5.91037
10.0000 5.91037
10.0001 5.91036
10.0001 5.91036
10.0003 5.91034
10.0005 5.91032
10.0011 5.91026
10.0021 5.91016
10.0042 5.90995
10.0083 5.90953
10.0165 5.90868
10.0331 5.90700
10.0661 5.90363
10.1322 5.89692
10.2644 5.88358
10.5288 5.85720
11.0577 5.80552
12.1153 5.70596
12.1153 5.70596
12.1154 5.70595
12.1155 5.70594
12.1156 5.70593
12.1159 5.70590
12.1166 5.70584
12.1178 5.70572
12.1203 5.70549
12.1253 5.70503
12.1353 5.70411
12.1554 5.70227
12.1954 5.69860
12.2755 5.69126
12.4357 5.67666
12.7560 5.64771
13.3967 5.59077
14.6780 5.48009
14.6780 5.48008
14.6781 5.48008
14.6781 5.48008
14.6782 5.48007
14.6784 5.48005
14.6788 5.48002
14.6795 5.47995
14.6811 5.47983
14.6841 5.47957
14.6901 5.47905
14.7023 5.47802
14.7265 5.47597
14.7750 5.47185
14.8721 5.46364
15.0661 5.44727
15.4542 5.41474
16.2304 5.35043
17.7828 5.22430
17.7828 5.22430
17.7829 5.22429
17.7830 5.22429
17.7831 5.22428
17.7834 5.22425
17.7839 5.22421
17.7850 5.22412
17.7872 5.22395
17.7915 5.22360
17.8001 5.22291
17.8175 5.22152
17.8521 5.21874
17.9214 5.21318
18.0600 5.20208
18.3371 5.17993
18.8914 5.13587
20.0000 5.04862
21.5443 4.92901
21.5443 4.92901
21.5444 4.92900
21.5445 4.92900
21.5446 4.92899
21.5449 4.92896
21.5454 4.92892
21.5465 4.92884
21.5488 4.92867
21.5532 4.92832
21.5621 4.92764
21.5799 4.92628
21.6155 4.92355
21.6867 4.91810
21.8291 4.90722
22.1140 4.88554
22.6836 4.84251
23.8230 4.75811
26.1016 4.60006
26.1016 4.60006
26.1017 4.60005
26.1017 4.60005
26.1018 4.60004
26.1020 4.60003
26.1023 4.60001
26.1030 4.59997
26.1043 4.59988
26.1070 4.59971
26.1124 4.59936
26.1232 4.59866
26.1448 4.59727
26.1879 4.59450
26.2742 4.58898
26.4467 4.57808
26.7918 4.55683
27.4819 4.51694
28.8622 4.45142
31.6228 4.43048
31.6228 4.43048
31.6229 4.43049
31.6229 4.43049
31.6230 4.43049
31.6232 4.43050
31.6236 4.43051
31.6245 4.43054
31.6261 4.43060
31.6294 4.43073
31.6359 4.43097
31.6489 4.43146
31.6751 4.43247
31.7273 4.43458
31.8319 4.43918
32.0409 4.45002
32.4590 4.47892
33.2951 4.57235
34.9674 4.98292
36.6396 5.98622
38.3119 8.45830
38.3119 8.45834
38.3120 8.45846
38.3120 8.45857
38.3121 8.45878
38.3123 8.45921
38.3127 8.46009
38.3134 8.46181
38.3149 8.46528
38.3179 8.47221
38.3240 8.48612
38.3360 8.51409
38.3601 8.57063
38.4084 8.68621
38.5048 8.92767
38.6977 9.45540
39.0836 10.7227
39.8552 14.4761
40.6268 21.0943
41.0127 26.3600
41.3985 33.8680
41.7843 44.9781
42.1701 62.2196
42.5559 90.7197
42.9417 142.130
43.1346 184.546
43.3276 247.590
43.5205 346.578
43.7134 513.785
43.9063 826.482
44.0027 1094.16
44.0992 1505.81
44.1957 2179.46
44.2921 3370.52
44.3886 5676.67
44.4368 7631.78
44.4850 10442.8
44.5625 16879.6
44.6400 21303.0
44.7175 17207.5
44.7950 10866.2
44.8457 7927.52
44.8963 5901.20
44.9976 3534.47
45.0989 2320.80
45.2002 1634.54
45.3015 1213.29
45.4028 937.539
45.6055 611.252
45.8081 433.075
46.0107 325.132
46.2133 254.696
46.4159 206.108
46.4159 206.104
46.4160 206.092
46.4160 206.081
46.4161 206.059
46.4164 206.015
46.4168 205.927
46.4177 205.750
46.4194 205.399
46.4229 204.700
46.4299 203.314
46.4439 200.589
46.4719 195.316
46.5279 185.434
46.6399 167.994
46.8639 140.363
47.3119 103.693
47.7600 81.0154
48.2080 65.9306
49.1040 47.5808
50.0000 37.1400
50.7793 31.2706
51.5585 27.1140
53.1171 21.6973
54.6756 18.3781
56.2341 16.1644
56.2341 16.1644
56.2342 16.1643
56.2342 16.1643
56.2343 16.1642
56.2345 16.1640
56.2348 16.1635
56.2356 16.1627
56.2370 16.1610
56.2399 16.1575
56.2457 16.1507
56.2574 16.1371
56.2806 16.1099
56.3271 16.0559
56.4200 15.9495
56.6058 15.7431
56.9776 15.3537
57.7210 14.6575
59.2079 13.5260
62.1817 11.9486
65.1554 10.9067
68.1292 10.1694
68.1292 10.1694
68.1293 10.1694
68.1293 10.1694
68.1294 10.1694
68.1297 10.1693
68.1301 10.1692
68.1310 10.1690
68.1327 10.1687
68.1363 10.1679
68.1433 10.1664
68.1574 10.1635
68.1855 10.1575
68.2418 10.1457
68.3544 10.1223
68.5796 10.0762
69.0299 9.98695
69.9306 9.81939
71.7320 9.52221
75.3348 9.04455
82.5404 8.38498
82.5404 8.38497
82.5405 8.38497
82.5406 8.38496
82.5407 8.38495
82.5410 8.38493
82.5415 8.38490
82.5426 8.38482
82.5447 8.38466
82.5489 8.38435
82.5575 8.38373
82.5745 8.38249
82.6086 8.38002
82.6768 8.37508
82.8132 8.36526
83.0860 8.34585
83.6316 8.30790
84.7229 8.23527
86.9053 8.10185
91.2702 7.87391
99.9999 7.52786
100.000 7.52785
100.001 7.52783
100.001 7.52781
100.003 7.52777
100.005 7.52768
100.010 7.52752
100.020 7.52718
100.040 7.52652
100.080 7.52519
100.160 7.52254
100.320 7.51726
100.641 7.50680
101.281 7.48627
102.561 7.44673
105.123 7.37442
106.403 7.34334
107.684 7.32136
108.324 7.32083
108.644 7.32796
108.964 7.34634
109.285 7.39018
109.445 7.43306
109.605 7.50559
109.765 7.63869
109.925 7.91442
110.005 8.17281
110.085 8.60080
110.165 9.35541
110.245 10.7290
110.323 12.8221
110.400 14.2170
110.478 12.8223
110.555 10.7265
110.611 9.68186
110.667 8.99358
110.723 8.53860
110.778 8.22996
110.890 7.85771
111.002 7.65396
111.113 7.53112
111.225 7.45153
111.448 7.35733
111.672 7.30488
111.895 7.27179
112.341 7.23181
113.234 7.18976
114.128 7.16460
115.021 7.14871
115.914 7.14914
116.360 7.16811
116.584 7.19108
116.807 7.23481
117.030 7.32605
117.142 7.41124
117.254 7.55305
117.365 7.81247
117.421 8.02922
117.477 8.35508
117.533 8.87242
117.588 9.74990
117.644 11.3508
117.700 14.4022
117.750 18.7935
117.800 21.7184
117.850 18.7962
117.900 14.4040
117.951 11.5461
118.002 9.96214
118.053 9.05321
118.103 8.50118
118.154 8.14438
118.205 7.90297
118.307 7.60753
118.408 7.44090
118.510 7.33794
118.713 7.22178
118.917 7.16030
119.120 7.12298
119.527 7.07985
119.933 7.05468
120.340 7.03703
121.153 7.01128
121.153 7.01127
121.154 7.01125
121.155 7.01123
121.156 7.01119
121.159 7.01110
121.166 7.01093
121.178 7.01059
121.203 7.00991
121.253 7.00857
121.353 7.00594
121.554 7.00084
121.954 6.99120
122.755 6.97340
124.357 6.94098
127.560 6.88162
133.967 6.77126
140.373 6.66211
143.577 6.60386
146.780 6.53929
146.780 6.53929
146.781 6.53927
146.782 6.53925
146.783 6.53922
146.786 6.53915
146.793 6.53902
146.805 6.53875
146.830 6.53822
146.879 6.53715
146.978 6.53500
147.175 6.53066
147.570 6.52186
148.359 6.50364
149.938 6.46439
151.516 6.42078
153.095 6.37333
153.885 6.34992
154.674 6.33031
155.463 6.32293
156.253 6.35195
156.647 6.40023
157.042 6.49847
157.437 6.69796
157.831 7.12466
158.029 7.51767
158.226 8.14798
158.423 9.22053
158.621 11.1998
158.818 15.3309
158.917 19.2336
159.015 25.8153
159.114 38.0451
159.163 48.3808
159.213 64.0463
159.262 89.1761
159.311 132.039
159.336 165.228
159.361 210.727
159.385 274.266
159.410 361.707
159.433 466.196
159.455 587.459
159.500 748.315
159.523 711.694
159.545 611.728
159.590 392.023
159.626 271.784
159.661 195.154
159.697 145.895
159.733 113.182
159.804 74.5097
159.875 53.7393
159.946 41.3551
160.018 33.4105
160.160 24.1413
160.303 19.1257
160.445 16.0905
160.588 14.1035
160.730 12.7259
161.015 10.9743
161.300 9.93303
161.585 9.25610
161.870 8.78693
162.440 8.18731
163.010 7.82587
163.580 7.58659
164.150 7.41733
165.289 7.19434
166.429 7.05376
167.569 6.95635
168.709 6.88420
170.989 6.78258
173.269 6.71229
177.828 6.61603
177.828 6.61603
177.829 6.61602
177.830 6.61601
177.831 6.61598
177.834 6.61594
177.839 6.61584
177.850 6.61566
177.872 6.61529
177.915 6.61455
178.001 6.61307
178.175 6.61015
178.521 6.60441
179.214 6.59334
180.600 6.57262
183.371 6.53567
188.914 6.47387
200.000 6.37657
207.722 6.32142
209.652 6.30976
211.582 6.30031
213.513 6.29674
214.478 6.30131
214.960 6.30754
215.443 6.31897
215.443 6.31898
215.444 6.31900
215.445 6.31902
215.446 6.31906
215.449 6.31915
215.454 6.31932
215.465 6.31967
215.486 6.32037
215.529 6.32185
215.615 6.32506
215.787 6.33266
216.131 6.35452
216.475 6.39124
216.819 6.45800
216.991 6.51333
217.163 6.59584
217.334 6.72622
217.506 6.94905
217.678 7.37575
217.764 7.75136
217.850 8.34679
217.936 9.36954
218.022 11.3158
218.065 12.9999
218.108 15.5811
218.151 19.6814
218.194 26.2319
218.247 38.2600
218.300 46.2955
218.353 38.2663
218.406 26.2393
218.459 18.5099
218.513 14.1994
218.566 11.7224
218.619 10.2117
218.673 9.23604
218.726 8.57444
218.832 7.76581
218.939 7.31183
219.046 7.03274
219.259 6.72229
219.472 6.56263
219.685 6.46965
219.898 6.41058
220.112 6.37056
220.538 6.32086
220.964 6.29179
221.817 6.25937
222.670 6.24112
223.523 6.22862
225.228 6.21068
228.639 6.18408
232.051 6.16106
235.462 6.13934
238.873 6.11889
240.578 6.11003
242.284 6.10496
243.137 6.10754
243.563 6.11272
243.990 6.12413
244.416 6.15054
244.629 6.17695
244.842 6.22364
245.056 6.31628
245.162 6.40040
245.269 6.53798
245.375 6.78417
245.429 6.98622
245.482 7.28483
245.535 7.74838
245.589 8.51066
245.642 9.84185
245.695 12.2315
245.748 15.9168
245.800 18.3697
245.853 15.9181
245.905 12.2326
245.964 9.65329
246.023 8.30762
246.082 7.57051
246.141 7.13705
246.200 6.86344
246.259 6.68148
246.377 6.46281
246.495 6.34183
246.613 6.26816
246.850 6.18651
247.086 6.14433
247.322 6.11940
247.794 6.09180
248.266 6.07675
248.738 6.06690
249.683 6.05361
251.572 6.03524
253.461 6.01949
255.349 6.00388
257.238 5.98757
258.183 5.97909
259.127 5.97066
260.072 5.96356
260.544 5.96195
261.016 5.96412
261.016 5.96412
261.017 5.96412
261.017 5.96413
261.018 5.96414
261.021 5.96417
261.025 5.96422
261.033 5.96433
261.051 5.96454
261.085 5.96502
261.154 5.96614
261.291 5.96920
261.567 5.98009
261.842 6.00251
262.117 6.05020
262.255 6.09365
262.392 6.16250
262.530 6.27773
262.668 6.48588
262.805 6.90685
262.874 7.29161
262.943 7.91976
263.012 9.03042
263.081 11.2196
263.115 13.1648
263.149 16.2153
263.184 21.1932
263.218 29.4216
263.259 44.4433
263.300 55.2070
263.341 46.3007
263.382 31.7621
263.408 25.1267
263.434 20.4750
263.485 14.9031
263.537 11.9652
263.589 10.2691
263.640 9.21098
263.692 8.50869
263.795 7.66392
263.898 7.19281
264.001 6.90256
264.208 6.57502
264.414 6.40159
264.621 6.29726
264.827 6.22870
265.034 6.18067
265.446 6.11829
265.859 6.07969
266.685 6.03398
267.511 6.00686
268.336 5.98798
269.988 5.96128
273.291 5.92396
276.594 5.89322
289.805 5.77505
303.017 5.63333
309.622 5.54468
316.228 5.43747
316.228 5.43746
316.229 5.43746
316.229 5.43745
316.230 5.43743
316.232 5.43740
316.235 5.43734
316.243 5.43721
316.257 5.43695
316.285 5.43643
316.343 5.43540
316.457 5.43333
316.686 5.42917
317.145 5.42076
318.061 5.40357
319.894 5.36770
323.560 5.29122
325.393 5.25412
326.310 5.23900
327.226 5.23093
328.143 5.24188
328.601 5.26533
329.059 5.31812
329.517 5.44195
329.747 5.56673
329.976 5.78862
330.205 6.23156
330.319 6.63617
330.434 7.30076
330.548 8.50003
330.606 9.49185
330.663 10.9656
330.720 13.2796
330.778 17.1381
330.835 24.0096
330.892 36.6611
330.946 55.5244
331.000 68.0615
331.054 55.5294
331.108 36.6651
331.161 24.6482
331.215 17.8539
331.268 13.9098
331.321 11.4869
331.375 9.91400
331.428 8.84304
331.534 7.52915
331.641 6.78684
331.748 6.32837
331.961 5.81493
332.174 5.54735
332.387 5.38887
332.813 5.21391
333.240 5.11960
333.666 5.05872
334.518 4.97789
336.223 4.86613
337.929 4.76611
341.339 4.54690
344.749 4.27572
346.454 4.11680
348.159 3.94720
349.864 3.78804
351.570 3.71420
352.422 3.77843
353.275 4.01033
354.127 4.60504
354.980 6.05581
355.406 7.47814
355.832 9.84104
356.259 13.9758
356.685 21.7843
356.898 28.3971
357.111 38.3535
357.324 54.1259
357.538 80.7895
357.751 130.171
357.857 171.693
357.964 234.067
358.070 332.714
358.177 497.803
358.284 792.273
358.390 1334.59
358.495 2199.52
358.600 2831.54
358.705 2330.28
358.810 1498.19
358.905 989.110
359.000 682.333
359.095 494.679
359.190 374.664
359.380 237.656
359.570 166.129
359.760 124.212
359.950 97.5368
360.329 66.5992
360.709 49.8632
361.089 39.6999
361.469 33.0083
361.849 28.3349
362.608 22.3367
363.368 18.7210
364.128 16.3388
364.887 14.6674
366.407 12.4999
367.926 11.1705
369.445 10.2790
370.965 9.64263
374.003 8.79819
377.042 8.26496
380.080 7.89803
383.119 7.62988
383.119 7.62987
383.120 7.62982
383.120 7.62978
383.121 7.62970
383.123 7.62954
383.128 7.62921
383.136 7.62856
383.153 7.62726
383.188 7.62466
383.256 7.61948
383.392 7.60923
383.666 7.58909
384.212 7.55018
385.305 7.47746
387.491 7.34950
391.863 7.14615
400.607 6.86829
409.351 6.68516
411.537 6.64945
413.723 6.61933
414.816 6.60913
415.362 6.60728
415.909 6.61047
416.455 6.62576
416.729 6.64413
417.002 6.67924
417.275 6.75323
417.412 6.82310
417.548 6.94113
417.685 7.16157
417.753 7.35013
417.821 7.64031
417.890 8.11631
417.958 8.96298
418.026 10.6217
418.061 12.0481
418.095 14.1145
418.147 18.6523
418.200 21.6770
418.253 18.6521
418.305 14.1132
418.350 11.5394
418.395 9.96709
418.440 8.99493
418.485 8.36920
418.574 7.65488
418.664 7.28463
418.753 7.06980
418.843 6.93484
419.022 6.78102
419.201 6.69968
419.380 6.65114
419.738 6.59743
420.097 6.56870
420.455 6.55054
421.171 6.52758
421.888 6.51211
422.604 6.49977
424.037 6.47921
426.903 6.44450
429.769 6.41352
441.232 6.30791
446.964 6.26269
452.696 6.22205
455.562 6.20408
458.427 6.18908
461.293 6.18095
462.726 6.18322
464.159 6.19619
464.159 6.19620
464.160 6.19621
464.161 6.19622
464.162 6.19624
464.165 6.19628
464.170 6.19636
464.180 6.19653
464.202 6.19687
464.244 6.19756
464.329 6.19901
464.498 6.20221
464.838 6.21004
465.516 6.23359
466.195 6.27504
466.874 6.35350
467.213 6.42036
467.552 6.52243
467.891 6.68832
468.231 6.98289
468.400 7.22380
468.570 7.58013
468.740 8.13917
468.909 9.08625
469.079 10.8808
469.164 12.4435
469.249 14.8988
469.333 19.0517
469.418 26.7943
469.461 33.3386
469.503 43.1482
469.545 58.2912
469.588 81.7549
469.644 127.189
469.700 157.494
469.756 127.191
469.812 81.7588
469.871 51.5555
469.930 35.1364
469.989 25.8868
470.048 20.3323
470.107 16.7743
470.166 14.3834
470.284 11.4803
470.402 9.86192
470.520 8.87344
470.756 7.78027
470.992 7.22185
471.227 6.89906
471.463 6.69550
471.699 6.55886
472.171 6.39190
472.642 6.29700
473.114 6.23737
473.586 6.19700
474.529 6.14624
475.473 6.11540
476.416 6.09414
477.359 6.07804
479.246 6.05378
481.133 6.03471
484.906 6.00266
492.453 5.94510
500.000 5.88691
513.562 5.76656
520.343 5.69097
527.124 5.59537
533.904 5.46261
537.295 5.37099
540.685 5.24994
542.381 5.17297
544.076 5.08075
545.771 4.96941
547.466 4.83750
548.314 4.76727
549.161 4.70306
550.009 4.66723
550.857 4.72573
551.280 4.84585
551.704 5.10225
552.128 5.63549
552.552 6.78615
552.764 7.84271
552.976 9.52471
553.188 12.3433
553.399 17.4166
553.505 21.5434
553.611 27.5410
553.717 36.6460
553.823 51.1901
553.929 76.1078
554.035 122.654
554.088 161.801
554.141 219.878
554.194 308.120
554.247 442.080
554.324 730.120
554.400 944.001
554.477 782.594
554.553 507.708
554.614 354.404
554.675 255.838
554.736 192.021
554.796 149.498
554.918 98.8839
555.040 71.3953
555.162 54.8761
555.283 44.1684
555.527 31.5377
555.770 24.5880
556.013 20.3186
556.257 17.4844
556.500 15.4931
556.987 12.9181
557.474 11.3540
557.960 10.3171
558.447 9.58595
559.421 8.63170
560.394 8.04178
561.368 7.64321
562.341 7.35656
562.341 7.35651
562.342 7.35636
562.342 7.35623
562.343 7.35598
562.345 7.35547
562.349 7.35443
562.357 7.35239
562.374 7.34832
562.406 7.34021
562.471 7.32424
562.601 7.29313
562.861 7.23418
563.380 7.12780
564.420 6.95170
566.498 6.69742
568.576 6.52122
570.655 6.39044
574.811 6.20507
578.968 6.07484
587.281 5.88928
591.438 5.81784
592.477 5.80402
593.516 5.79760
594.036 5.80377
594.556 5.83438
594.815 5.87975
594.945 5.92323
595.075 5.99699
595.205 6.13457
595.270 6.25181
595.335 6.43085
595.400 6.72218
595.465 7.23187
595.530 8.20678
595.562 9.02596
595.595 10.1902
595.647 12.8595
595.700 14.6394
595.753 12.8576
595.805 10.1864
595.839 8.99424
595.872 8.16570
595.939 7.18869
596.005 6.68319
596.072 6.39636
596.138 6.21959
596.205 6.10387
596.338 5.96656
596.471 5.89123
596.604 5.84517
596.870 5.79317
597.403 5.74696
597.935 5.72417
599.000 5.69642
600.065 5.67553
604.325 5.60395
612.844 5.46522
617.103 5.39504
619.233 5.36138
621.363 5.33189
623.493 5.31520
624.557 5.31977
625.622 5.34629
626.155 5.37633
626.687 5.42809
627.220 5.51985
627.752 5.69377
628.018 5.84167
628.285 6.06633
628.551 6.42867
628.817 7.06399
629.083 8.32463
629.216 9.47618
629.349 11.3768
629.483 14.8307
629.549 17.7155
629.616 22.0456
629.682 28.9376
629.749 40.6373
629.815 62.1080
629.882 103.238
629.941 162.193
630.000 201.533
630.059 162.225
630.118 103.278
630.180 64.2983
630.242 43.0143
630.303 30.9831
630.365 23.7307
630.427 19.0864
630.488 15.9564
630.612 12.1547
630.735 10.0335
630.859 8.73481
631.105 7.29558
631.352 6.55793
631.599 6.12918
631.846 5.85710
632.093 5.67285
632.586 5.44385
633.080 5.30943
634.067 5.15809
635.054 5.07067
636.041 5.00854
638.015 4.91318
641.964 4.74922
645.912 4.57573
649.861 4.37338
653.810 4.12727
655.784 3.98413
656.771 3.90938
657.758 3.83852
658.745 3.79213
659.239 3.80017
659.732 3.86894
660.226 4.10479
660.473 4.38486
660.720 4.93441
660.966 6.14139
661.090 7.32209
661.213 9.37357
661.337 13.3237
661.398 16.7817
661.460 22.1987
661.522 31.2580
661.583 47.7297
661.614 61.2650
661.645 80.8627
661.676 109.892
661.707 152.826
661.753 247.472
661.800 314.871
661.847 257.842
661.893 165.786
661.928 117.547
661.963 85.9765
661.998 65.2168
662.033 51.1848
662.103 34.2950
662.173 25.0655
662.243 19.4997
662.313 15.9009
662.452 11.6681
662.592 9.35828
662.732 7.95055
663.011 6.37470
663.290 5.54070
663.570 5.03457
664.128 4.45459
664.687 4.12739
665.246 3.91054
666.363 3.62473
668.598 3.29892
670.833 3.23099
671.950 3.38662
673.068 3.82248
674.185 4.83378
675.302 7.14417
675.861 9.31980
676.420 12.8274
676.979 18.7599
677.537 29.5000
677.817 38.2491
678.096 50.9672
678.375 70.2220
678.655 100.855
678.934 152.869
679.213 248.691
679.353 327.991
679.493 443.850
679.632 616.553
679.772 873.601
679.986 1456.72
680.200 1897.25
680.414 1580.55
680.628 1028.62
680.794 725.503
680.960 527.471
681.126 397.883
681.292 310.576
681.292 310.490
681.293 310.185
681.294 309.882
681.295 309.319
681.297 308.199
681.303 305.977
681.313 301.564
681.334 293.069
681.376 277.157
681.459 249.126
681.627 204.969
681.961 147.246
682.295 112.355
682.630 89.6314
683.299 62.6672
683.967 47.7380
684.636 38.5136
685.305 32.3591
686.643 24.8104
687.980 20.4497
689.318 17.6547
691.993 14.3322
694.668 12.4541
697.343 11.2639
700.019 10.4734
700.687 10.3371
701.356 10.2611
701.691 10.2870
701.858 10.3432
702.025 10.4631
702.192 10.7215
702.276 10.9601
702.359 11.3461
702.443 12.0148
702.527 13.2898
702.568 14.3859
702.610 16.0524
702.652 18.6684
702.694 22.7977
702.747 30.5288
702.800 35.6597
702.853 30.4664
702.906 22.7057
702.948 18.6038
702.989 15.9887
703.030 14.3114
703.071 13.2024
703.154 11.8933
703.236 11.1921
703.319 10.7742
703.402 10.5051
703.567 10.1866
703.732 10.0079
703.897 9.89352
704.227 9.75255
704.887 9.60559
705.548 9.53997
706.208 9.56350
706.538 9.64179
706.869 9.82036
707.199 10.2312
707.364 10.6352
707.529 11.3346
707.694 12.6761
707.777 13.8516
707.859 15.6992
707.942 18.8272
708.024 24.6381
708.066 29.5389
708.107 36.8382
708.148 48.0755
708.189 65.3381
708.245 99.2078
708.300 121.749
708.355 99.1619
708.411 65.3530
708.447 49.8067
708.483 39.1674
708.555 26.8054
708.628 20.5001
708.700 16.9610
708.772 14.7974
708.844 13.3895
708.989 11.7318
709.133 10.8301
709.278 10.2846
709.566 9.67893
709.855 9.36034
710.144 9.16592
710.722 8.93667
711.300 8.79814
711.878 8.69830
713.033 8.54991
714.189 8.43365
715.345 8.33401
717.656 8.16412
722.279 7.89449
726.901 7.68361
731.524 7.51210
736.146 7.37057
738.458 7.31157
739.613 7.28687
740.769 7.26848
741.925 7.26437
742.503 7.27497
743.080 7.30584
743.369 7.33630
743.658 7.38578
743.947 7.46958
744.236 7.62209
744.525 7.93455
744.669 8.22675
744.814 8.71846
744.958 9.63756
745.031 10.4251
745.103 11.6410
745.175 13.6496
745.247 17.2484
745.319 24.3931
745.356 30.6082
745.392 39.7376
745.446 59.3226
745.500 72.3902
745.554 59.3440
745.608 39.7628
745.656 28.4713
745.703 21.6502
745.750 17.4718
745.797 14.8059
745.891 11.7766
745.985 10.2179
746.079 9.31826
746.173 8.75567
746.362 8.11855
746.550 7.78484
746.738 7.58795
746.926 7.46150
747.115 7.37495
747.491 7.26582
747.868 7.20050
748.621 7.12492
749.374 7.07982
750.127 7.04714
751.633 6.99690
753.139 6.95453
754.646 6.91461
757.658 6.83365
760.670 6.74027
762.177 6.68296
763.683 6.61237
764.436 6.56950
765.189 6.51956
765.942 6.46073
766.695 6.39245
767.072 6.35648
767.448 6.32359
767.825 6.30436
768.201 6.32964
768.390 6.38457
768.578 6.50208
768.766 6.74490
768.954 7.26128
769.143 8.46101
769.237 9.66224
769.331 11.7600
769.425 15.7638
769.472 19.1972
769.519 24.4169
769.566 32.7894
769.613 46.9653
769.637 57.8523
769.660 72.6190
769.684 92.8792
769.707 120.493
769.731 156.199
769.754 198.180
769.800 257.870
769.823 248.609
769.846 217.097
769.893 144.135
769.947 88.8526
770.001 59.7084
770.055 43.5810
770.110 33.9380
770.164 27.7579
770.218 23.5663
770.326 18.3978
770.435 15.4327
770.543 13.5632
770.760 11.3971
770.977 10.2148
771.194 9.48658
771.411 8.99894
771.627 8.65262
772.061 8.19693
772.495 7.91274
772.929 7.71937
773.362 7.57943
774.230 7.38999
775.097 7.26686
775.964 7.17950
776.832 7.11354
778.566 7.01863
780.301 6.95154
783.771 6.85779
787.240 6.79061
790.709 6.73681
797.648 6.64998
811.526 6.51300
825.404 6.39315
825.404 6.39315
825.405 6.39314
825.405 6.39313
825.406 6.39313
825.409 6.39311
825.413 6.39307
825.422 6.39299
825.440 6.39284
825.475 6.39254
825.546 6.39194
825.688 6.39073
825.973 6.38831
826.541 6.38348
827.678 6.37379
829.951 6.35434
834.498 6.31482
843.592 6.23110
852.686 6.13544
861.780 6.01664
866.327 5.94225
870.874 5.85174
875.421 5.73680
879.968 5.58300
882.242 5.48395
884.515 5.36381
886.789 5.21624
889.062 5.03598
890.199 4.93548
891.336 4.83629
892.472 4.76123
893.609 4.78072
894.178 4.88628
894.746 5.13877
895.314 5.69262
895.883 6.92057
896.451 9.87479
896.735 12.9101
897.019 18.3255
897.304 28.9452
897.446 38.2905
897.588 52.8892
897.730 77.0420
897.872 119.944
898.014 202.598
898.085 271.928
898.156 370.854
898.278 618.141
898.400 806.761
898.522 675.201
898.644 442.222
898.774 277.689
898.905 185.997
899.035 133.242
899.165 100.888
899.295 79.7677
899.426 65.2708
899.686 47.2034
899.947 36.7451
900.207 30.1155
900.728 22.4126
901.250 18.2103
901.771 15.6267
902.292 13.9032
902.813 12.6837
903.855 11.0893
904.897 10.1046
905.939 9.44145
906.981 8.96672
909.066 8.33496
911.150 7.93477
913.234 7.65856
915.319 7.45607
919.487 7.17765
923.656 6.99408
925.740 6.92478
927.824 6.87025
928.867 6.85295
929.909 6.85681
930.430 6.88477
930.690 6.91770
930.951 6.97999
931.211 7.11005
931.342 7.23203
931.472 7.43652
931.602 7.81505
931.667 8.13544
931.732 8.62358
931.798 9.41473
931.863 10.7920
931.928 13.4085
931.960 15.5929
931.993 18.6815
932.047 25.8425
932.100 30.6034
932.154 25.8285
932.207 18.6689
932.255 14.4933
932.302 11.9952
932.349 10.4709
932.396 9.50304
932.491 8.40907
932.585 7.84747
932.680 7.52412
932.774 7.32163
932.963 7.09184
933.152 6.97055
933.341 6.89813
933.719 6.81768
934.097 6.77429
934.475 6.74658
935.231 6.71103
936.742 6.66715
938.254 6.63456
941.277 6.58013
944.301 6.53219
947.324 6.48788
950.348 6.44645
951.859 6.42744
953.371 6.41238
954.127 6.41002
954.883 6.42173
955.261 6.44561
955.639 6.51524
955.828 6.60401
956.017 6.81321
956.111 7.04002
956.206 7.48592
956.253 7.88414
956.300 8.51227
956.347 9.55051
956.394 11.2947
956.447 14.2543
956.500 16.2267
956.553 14.2535
956.606 11.2925
956.653 9.55543
956.699 8.51906
956.746 7.88813
956.793 7.48821
956.887 7.03679
956.980 6.80520
957.168 6.58812
957.355 6.49273
957.730 6.41111
958.105 6.37586
958.854 6.34183
959.604 6.32196
961.103 6.29205
962.602 6.26482
965.600 6.20752
968.598 6.13885
971.596 6.04709
973.096 5.98550
974.595 5.90606
975.344 5.85676
976.094 5.79914
976.843 5.73228
977.593 5.65907
977.968 5.62509
978.342 5.60202
978.717 5.60989
979.092 5.70321
979.279 5.82527
979.467 6.05396
979.654 6.48928
979.841 7.36109
980.029 9.28377
980.122 11.1396
980.216 14.2814
980.310 20.0376
980.404 31.8054
980.450 42.5658
980.497 59.7720
980.544 88.5293
980.591 137.391
980.645 227.360
980.700 296.748
980.755 249.943
980.809 165.621
980.847 123.355
980.884 94.1896
980.922 74.1693
980.959 60.1505
981.034 42.6190
981.109 32.6165
981.184 26.3857
981.259 22.2499
981.409 17.2394
981.559 14.4099
981.709 12.6403
981.859 11.4485
982.009 10.6009
982.309 9.49019
982.608 8.80517
982.908 8.34534
983.208 8.01770
983.808 7.58446
984.407 7.31233
985.007 7.12581
985.607 6.98984
986.806 6.80372
988.005 6.68070
990.404 6.52281
992.803 6.41947
995.202 6.34072
999.999 6.21322
1000.00 6.21317
1000.01 6.21303
1000.01 6.21290
1000.02 6.21263
1000.04 6.21211
1000.09 6.21105
1000.17 6.20893
1000.35 6.20470
1000.69 6.19630
1001.38 6.17957
1002.75 6.14654
1005.50 6.08453
1006.87 6.06298
1007.56 6.06112
1008.24 6.07490
1008.93 6.12853
1009.27 6.19177
1009.62 6.31313
1009.96 6.57288
1010.13 6.82213
1010.30 7.24714
1010.47 8.06427
1010.56 8.78133
1010.65 9.89741
1010.73 11.8126
1010.82 15.4076
1010.86 18.4650
1010.90 23.0730
1010.95 30.2305
1010.99 41.0682
1011.04 62.1466
1011.10 76.1821
1011.16 62.1585
1011.21 41.0797
1011.26 28.8406
1011.31 21.4654
1011.36 16.9578
1011.41 14.1292
1011.51 10.8498
1011.60 9.17767
1011.70 8.20249
1011.80 7.59744
1011.99 6.90843
1012.19 6.54282
1012.38 6.32570
1012.77 6.08394
1013.16 5.95308
1013.55 5.86820
1014.33 5.75368
1015.10 5.66546
1015.88 5.58296
1017.44 5.40429
1018.22 5.29976
1019.00 5.18240
1019.77 5.05492
1020.55 4.93737
1020.94 4.90423
1021.33 4.92236
1021.72 5.06080
1022.11 5.49709
1022.50 6.76359
1022.69 8.19871
1022.89 10.9091
1023.08 16.6077
1023.18 21.8623
1023.27 30.4331
1023.37 45.6100
1023.42 57.6785
1023.47 74.4266
1023.52 99.3938
1023.57 136.208
1023.62 194.303
1023.66 282.533
1023.73 474.781
1023.80 621.047
1023.87 520.855
1023.94 343.659
1023.98 255.896
1024.03 195.936
1024.12 123.939
1024.21 86.2794
1024.30 64.7421
1024.39 51.0784
1024.48 41.9623
1024.66 30.9332
1024.85 24.6469
1025.03 20.7257
1025.39 16.1861
1025.75 13.7159
1026.12 12.1962
1026.48 11.1813
1026.84 10.4633
1027.57 9.53004
1028.29 8.96689
1029.75 8.38454
1030.47 8.26408
1031.20 8.24611
1031.92 8.36130
1032.65 8.70477
1033.01 9.03474
1033.38 9.55971
1033.74 10.4317
1034.10 11.9917
1034.46 15.1367
1034.65 18.0528
1034.83 22.8884
1035.01 31.8552
1035.10 39.4586
1035.19 50.9118
1035.28 69.6595
1035.37 102.008
1035.46 164.317
1035.51 215.823
1035.55 288.845
1035.63 457.540
1035.70 569.839
1035.77 457.541
1035.85 288.859
1035.89 214.481
1035.94 163.378
1036.03 101.523
1036.12 69.1065
1036.21 50.5523
1036.30 39.0934
1036.39 31.5711
1036.58 22.7048
1036.76 17.8461
1036.94 14.9335
1037.30 11.7392
1037.67 10.1183
1038.03 9.18555
1038.39 8.59591
1038.75 8.19752
1039.48 7.70383
1040.21 7.41677
1040.93 7.23098
1041.66 7.10118
1043.11 6.93060
1044.57 6.82158
1046.02 6.74408
1047.47 6.68504
1050.38 6.59934
1053.28 6.54318
1054.73 6.52892
1055.46 6.52933
1056.19 6.54098
1056.91 6.57943
1057.28 6.62253
1057.64 6.70342
1058.00 6.87366
1058.18 7.03678
1058.37 7.31549
1058.55 7.85474
1058.64 8.33217
1058.73 9.08352
1058.82 10.3925
1058.91 12.9116
1058.96 15.1410
1059.00 18.5153
1059.05 23.9118
1059.09 32.6281
1059.15 48.5275
1059.20 58.8813
1059.26 48.2194
1059.31 32.6274
1059.37 21.5591
1059.43 15.8273
1059.50 12.7133
1059.56 10.9101
1059.62 9.75488
1059.68 8.99805
1059.80 8.08050
1059.93 7.57093
1060.05 7.26404
1060.30 6.92534
1060.54 6.75141
1060.79 6.65049
1061.28 6.54170
1061.77 6.48579
1062.27 6.45185
1063.25 6.41147
1064.24 6.38629
1065.22 6.36746
1067.20 6.33800
1071.14 6.29126
1075.08 6.25045
1082.97 6.17456
1090.85 6.09873
1098.74 6.01631
1106.62 5.91958
1110.57 5.86242
1114.51 5.79723
1116.48 5.76188
1118.45 5.72811
1119.44 5.71692
1120.42 5.72496
1120.92 5.75523
1121.16 5.79003
1121.41 5.85519
1121.66 5.99112
1121.78 6.11764
1121.90 6.32882
1122.02 6.71625
1122.09 7.04478
1122.15 7.53287
1122.21 8.32591
1122.27 9.66091
1122.33 12.1708
1122.39 16.9550
1122.45 23.7841
1122.50 28.2084
1122.55 23.6539
1122.61 16.9581
1122.65 13.2733
1122.69 10.9975
1122.74 9.51357
1122.78 8.55994
1122.86 7.43082
1122.95 6.83245
1123.03 6.48082
1123.12 6.25745
1123.29 6.00027
1123.46 5.86261
1123.63 5.77939
1123.97 5.68542
1124.31 5.63328
1124.65 5.59871
1125.33 5.55123
1126.69 5.48249
1128.05 5.41917
1130.77 5.27745
1133.49 5.09598
1134.85 4.98375
1136.21 4.85427
1137.57 4.70898
1138.92 4.56458
1139.60 4.51219
1140.28 4.50457
1140.96 4.60662
1141.64 4.98729
1141.98 5.41226
1142.32 6.15845
1142.66 7.51078
1143.00 10.1087
1143.34 15.5949
1143.51 20.7098
1143.68 29.1015
1143.85 43.8541
1143.94 55.5852
1144.02 72.2666
1144.11 96.7164
1144.19 133.698
1144.28 191.132
1144.36 279.347
1144.48 468.812
1144.60 614.334
1144.72 517.508
1144.84 341.088
1144.94 236.796
1145.04 170.717
1145.14 128.593
1145.24 100.742
1145.44 67.8631
1145.64 50.1330
1145.84 39.3969
1146.04 32.4413
1146.44 24.1410
1146.84 19.5080
1147.23 16.6331
1147.63 14.7001
1148.03 13.3249
1148.83 11.5172
1149.63 10.3980
1150.43 9.64262
1151.23 9.10115
1152.82 8.37936
1154.42 7.92159
1156.02 7.60519
1157.61 7.37302
1160.81 7.05379
1162.40 6.94046
1164.00 6.85070
1165.60 6.78777
1166.40 6.77274
1167.19 6.78034
1167.99 6.84022
1168.39 6.91638
1168.79 7.06559
1168.99 7.19393
1169.19 7.38789
1169.39 7.70056
1169.59 8.23928
1169.79 9.28975
1169.89 10.2263
1169.99 11.7120
1170.09 14.3222
1170.19 19.4170
1170.24 23.9313
1170.29 31.0197
1170.34 42.6348
1170.39 61.4282
1170.44 94.1856
1170.50 115.948
1170.56 94.1985
1170.61 61.4419
1170.68 38.5157
1170.74 26.5071
1170.81 19.9319
1170.87 16.1029
1170.93 13.6427
1171.00 12.0047
1171.12 10.0500
1171.25 8.96055
1171.38 8.30229
1171.63 7.57128
1171.89 7.19588
1172.14 6.97596
1172.40 6.83458
1172.65 6.73740
1173.16 6.61200
1173.67 6.53404
1174.69 6.43691
1175.71 6.37227
1176.73 6.32082
1178.77 6.23342
1182.84 6.07083
1186.92 5.88757
1188.96 5.77658
1191.00 5.64383
1193.03 5.47834
1195.07 5.26308
1196.09 5.12930
1197.11 4.97383
1198.13 4.79671
1199.15 4.61318
1199.66 4.53873
1200.17 4.50897
1200.68 4.59306
1201.19 4.97255
1201.44 5.41518
1201.70 6.20674
1201.95 7.66084
1202.21 10.4692
1202.33 12.8805
1202.46 16.4701
1202.59 22.1264
1202.72 31.3741
1202.84 47.8491
1202.91 61.0314
1202.97 79.5223
1203.03 107.136
1203.10 148.377
1203.16 213.746
1203.22 314.565
1203.31 529.425
1203.40 697.486
1203.49 588.409
1203.58 388.239
1203.64 284.073
1203.70 214.166
1203.76 166.524
1203.83 133.342
1203.95 91.8047
1204.07 68.4083
1204.20 53.7779
1204.32 44.1458
1204.57 32.4684
1204.82 25.8381
1205.07 21.6956
1205.32 18.8873
1205.57 16.8935
1206.06 14.2671
1206.56 12.6404
1207.06 11.5454
1207.55 10.7631
1208.55 9.72670
1209.54 9.07518
1210.54 8.62938
1211.53 8.30559
1211.53 8.30502
1211.54 8.30334
1211.54 8.30194
1211.55 8.29914
1211.57 8.29329
1211.62 8.28169
1211.70 8.25916
1211.87 8.21531
1212.20 8.13338
1212.86 7.98853
1214.20 7.75693
1216.86 7.43926
1219.53 7.23002
1222.19 7.08046
1227.52 6.87742
1232.85 6.74241
1238.18 6.64314
1243.50 6.56493
1254.16 6.44414
1264.82 6.34856
1275.48 6.26470
1280.81 6.22495
1286.13 6.18691
1288.80 6.17012
1291.46 6.16025
1292.79 6.16505
1293.46 6.17502
1294.13 6.19735
1294.79 6.24998
1295.13 6.30361
1295.46 6.40045
1295.79 6.59894
1295.96 6.78634
1296.12 7.10289
1296.29 7.70732
1296.37 8.23168
1296.46 9.05520
1296.54 10.4692
1296.62 13.0823
1296.67 15.3234
1296.71 18.6024
1296.75 23.7916
1296.79 31.6412
1296.85 47.0439
1296.90 57.3466
1296.96 47.0565
1297.01 31.6564
1297.05 23.5015
1297.10 18.3243
1297.14 15.0167
1297.18 12.8753
1297.27 10.3204
1297.35 8.95723
1297.44 8.15363
1297.52 7.64296
1297.69 7.05717
1297.86 6.74743
1298.03 6.56410
1298.37 6.36655
1298.71 6.26703
1299.05 6.20953
1299.73 6.14720
1300.41 6.11405
1301.09 6.09286
1302.45 6.06497
1305.18 6.02725
1307.90 5.99479
1313.34 5.92705
1318.78 5.84464
1324.23 5.73179
1326.95 5.65392
1329.67 5.55007
1331.03 5.48287
1332.39 5.40051
1333.75 5.29696
1335.11 5.16390
1335.79 5.08336
1336.47 4.99366
1337.15 4.89970
1337.83 4.82339
1338.17 4.81341
1338.51 4.85428
1338.85 5.00834
1339.19 5.43138
1339.53 6.57522
1339.70 7.81618
1339.87 10.0995
1340.04 14.6903
1340.13 18.7919
1340.21 25.2603
1340.30 36.0534
1340.38 55.3684
1340.43 71.0720
1340.47 92.8180
1340.51 124.828
1340.55 169.580
1340.63 285.250
1340.70 374.764
1340.77 316.891
1340.85 211.144
1340.92 136.046
1341.00 93.3740
1341.08 68.4502
1341.15 53.1373
1341.23 42.8995
1341.31 35.8212
1341.46 26.9637
1341.62 21.7449
1341.77 18.4262
1342.08 14.5130
1342.38 12.3501
1342.69 11.0057
1343.00 10.1004
1343.30 9.45437
1343.92 8.60099
1344.53 8.06705
1345.15 7.70338
1345.76 7.44031
1346.99 7.08532
1348.22 6.85619
1349.44 6.69508
1350.67 6.57482
1353.13 6.40499
1355.58 6.29122
1356.81 6.25148
1358.04 6.23312
1358.65 6.24688
1358.96 6.27005
1359.27 6.31858
1359.57 6.42619
1359.73 6.53091
1359.88 6.70958
1360.03 7.05195
1360.11 7.35035
1360.19 7.81024
1360.26 8.59041
1360.34 10.0004
1360.38 11.2032
1360.42 12.9322
1360.45 15.5339
1360.49 19.4510
1360.55 27.5159
1360.60 32.9202
1360.65 27.5234
1360.71 19.4581
1360.76 14.5230
1360.81 11.6760
1360.86 9.99489
1360.91 8.96534
1361.01 7.80859
1361.11 7.22375
1361.21 6.88998
1361.32 6.68204
1361.52 6.44677
1361.72 6.32221
1361.92 6.24793
1362.33 6.16443
1363.14 6.08777
1363.94 6.04697
1365.56 5.99273
1367.18 5.94981
1370.41 5.87361
1373.65 5.80125
1376.88 5.72926
1380.12 5.65857
1381.74 5.62808
1383.35 5.61570
1384.16 5.63539
1384.57 5.66523
1384.97 5.72698
1385.38 5.86557
1385.58 6.00159
1385.78 6.23925
1385.98 6.70388
1386.08 7.11981
1386.18 7.79022
1386.29 8.96481
1386.39 11.2745
1386.44 13.3624
1386.49 16.6030
1386.54 22.0866
1386.59 31.1467
1386.64 46.5137
1386.70 56.7404
1386.76 46.5100
1386.81 31.1397
1386.88 20.3909
1386.94 14.7752
1387.00 11.7052
1387.06 9.89693
1387.13 8.75752
1387.19 7.99843
1387.32 7.09164
1387.44 6.58518
1387.57 6.27840
1387.82 5.93590
1388.07 5.75805
1388.32 5.65214
1388.82 5.53310
1389.32 5.46612
1389.83 5.42066
1390.83 5.35550
1392.84 5.25484
1394.85 5.15823
1398.86 4.93754
1402.88 4.64946
1404.89 4.46767
1406.90 4.25284
1408.91 4.00116
1410.92 3.72394
1411.92 3.59515
1412.93 3.50864
1413.93 3.54166
1414.93 3.90270
1415.44 4.37155
1415.94 5.24235
1416.44 6.88452
1416.94 10.1325
1417.19 12.9279
1417.44 17.1458
1417.70 23.7679
1417.95 34.7176
1418.20 54.1034
1418.32 69.6631
1418.45 91.6800
1418.57 124.312
1418.70 173.425
1418.83 250.584
1418.95 370.356
1419.13 626.519
1419.30 828.814
1419.48 701.454
1419.65 464.692
1419.79 333.011
1419.92 245.869
1420.06 188.232
1420.19 149.267
1420.46 101.515
1420.73 75.0271
1421.00 58.7270
1421.27 48.0234
1421.81 35.1269
1422.35 27.8449
1422.88 23.2867
1423.42 20.2002
1423.96 18.0002
1425.04 15.0948
1426.12 13.2892
1427.19 12.0688
1428.27 11.1938
1430.42 10.0321
1432.58 9.31328
1433.66 9.06633
1434.19 8.97401
1434.73 8.91464
1435.27 8.92017
1435.54 8.97607
1435.81 9.11190
1436.08 9.43099
1436.21 9.74349
1436.35 10.2723
1436.48 11.2659
1436.55 12.1028
1436.62 13.3741
1436.69 15.4571
1436.75 19.0138
1436.82 25.6714
1436.89 38.8078
1436.94 57.0685
1437.00 69.2528
1437.06 57.0804
1437.11 38.8103
1437.17 26.6448
1437.23 20.0282
1437.29 16.2974
1437.35 14.0508
1437.41 12.6117
1437.47 11.6405
1437.59 10.4563
1437.71 9.78955
1437.83 9.37585
1438.07 8.90611
1438.31 8.65050
1438.55 8.49072
1439.03 8.29708
1439.51 8.17582
1439.99 8.08656
1440.95 7.95133
1442.87 7.75324
1444.79 7.59895
1448.62 7.35844
1452.46 7.17266
1460.13 6.88925
1467.80 6.65971
1467.80 6.65965
1467.81 6.65945
1467.82 6.65925
1467.83 6.65888
1467.86 6.65810
1467.91 6.65655
1468.02 6.65344
1468.23 6.64725
1468.66 6.63488
1469.52 6.61008
1471.24 6.55997
1474.68 6.45520
1478.12 6.33783
1481.56 6.19546
1483.28 6.10813
1485.00 6.00395
1486.72 5.87519
1488.44 5.71012
1489.30 5.60914
1490.16 5.49369
1491.02 5.36557
1491.88 5.24039
1492.31 5.19662
1492.74 5.19343
1493.17 5.28767
1493.60 5.62519
1494.03 6.63938
1494.25 7.78997
1494.46 9.96247
1494.68 14.4378
1494.79 18.5309
1494.89 25.0165
1495.00 36.1276
1495.11 56.2449
1495.16 72.8309
1495.22 96.7806
1495.27 131.928
1495.32 182.239
1495.41 307.542
1495.50 405.699
1495.59 344.339
1495.68 230.045
1495.75 162.393
1495.82 119.379
1495.90 91.1645
1495.97 72.5602
1496.11 50.1494
1496.26 37.8685
1496.40 30.4113
1496.55 25.5245
1496.84 19.6688
1497.13 16.3797
1497.42 14.3189
1497.71 12.9257
1498.00 11.9298
1498.58 10.6142
1499.16 9.79261
1499.74 9.23484
1500.32 8.83351
1501.48 8.29433
1502.64 7.94994
1503.80 7.71012
1504.95 7.53312
1507.27 7.28698
1509.59 7.12151
1514.23 6.90608
1518.87 6.76448
1523.51 6.65809
1532.78 6.49356
1542.06 6.35264
1551.34 6.20809
1555.97 6.12677
1560.61 6.03481
1562.93 5.98481
1565.25 5.93717
1566.41 5.92232
1566.99 5.92319
1567.57 5.93820
1568.15 5.98852
1568.44 6.04555
1568.73 6.15273
1569.02 6.37665
1569.16 6.58763
1569.31 6.94386
1569.45 7.60925
1569.53 8.18349
1569.60 9.05554
1569.67 10.5078
1569.74 13.0569
1569.82 18.0301
1569.85 22.2816
1569.89 28.4361
1569.94 42.0111
1570.00 51.0538
1570.06 42.0282
1570.11 28.4547
1570.16 20.2058
1570.22 15.4569
1570.27 12.5569
1570.32 10.7705
1570.42 8.75456
1570.52 7.73157
1570.63 7.14676
1570.73 6.78222
1570.94 6.37136
1571.14 6.15382
1571.35 6.02440
1571.76 5.87956
1572.17 5.80046
1572.58 5.74952
1573.40 5.68516
1574.23 5.65181
1574.64 5.65090
1575.05 5.67249
1575.46 5.74730
1575.67 5.83139
1575.87 5.98605
1576.08 6.30203
1576.18 6.59144
1576.28 7.05922
1576.38 7.89822
1576.49 9.58212
1576.54 11.1344
1576.59 13.5912
1576.64 17.7463
1576.69 24.9233
1576.75 36.5748
1576.80 44.3175
1576.85 36.5665
1576.91 24.9066
1576.96 17.9360
1577.01 13.8744
1577.05 11.3643
1577.10 9.80729
1577.20 8.03417
1577.30 7.13300
1577.39 6.60699
1577.49 6.27664
1577.68 5.89952
1577.88 5.69461
1578.07 5.56832
1578.46 5.41666
1578.84 5.32228
1579.23 5.25081
1580.00 5.13259
1581.55 4.90659
1583.10 4.64469
1583.87 4.49492
1584.65 4.33745
1585.42 4.19233
1586.20 4.12745
1586.58 4.18551
1586.97 4.38826
1587.36 4.89314
1587.74 6.07839
1588.13 8.99308
1588.33 11.9949
1588.52 17.2605
1588.62 21.4484
1588.71 27.3728
1588.81 36.0136
1588.91 48.9217
1589.00 69.4890
1589.10 103.214
1589.20 162.620
1589.29 267.525
1589.40 453.932
1589.50 600.647
1589.61 510.722
1589.71 339.482
1589.80 239.306
1589.88 175.314
1589.97 133.329
1590.05 105.530
1590.22 72.0101
1590.39 53.5965
1590.57 42.3948
1590.74 35.0436
1591.08 26.2391
1591.42 21.2671
1591.76 18.1561
1592.10 16.0440
1592.44 14.5374
1593.13 12.5398
1593.81 11.2940
1594.49 10.4483
1595.18 9.83921
1596.54 9.02340
1597.91 8.50420
1599.28 8.14441
1600.64 7.88031
1603.38 7.51643
1606.11 7.27512
1608.84 7.10083
1611.57 6.96688
1617.04 6.76835
1622.51 6.61996
1633.44 6.38266
1644.37 6.14872
1649.84 6.00717
1655.30 5.82617
1658.04 5.71030
1660.77 5.56740
1663.50 5.38405
1666.23 5.13746
1667.60 4.97890
1668.97 4.78807
1670.33 4.55699
1671.70 4.28426
1672.38 4.14007
1673.07 4.01036
1673.75 3.94159
1674.43 4.06668
1674.78 4.31047
1675.12 4.81558
1675.46 5.83744
1675.80 7.94644
1675.97 9.81228
1676.14 12.6717
1676.31 17.2257
1676.48 24.8008
1676.65 38.4501
1676.74 49.5365
1676.82 65.2789
1676.91 88.8867
1677.00 124.595
1677.08 180.637
1677.17 269.028
1677.28 458.191
1677.40 608.545
1677.52 519.037
1677.64 345.967
1677.74 239.089
1677.84 172.045
1677.95 129.670
1678.05 101.810
1678.25 69.0477
1678.46 51.3319
1678.67 40.6495
1678.87 33.6748
1679.28 25.3481
1679.70 20.6571
1680.11 17.7141
1680.52 15.7206
1680.93 14.2954
1681.75 12.4019
1682.58 11.2163
1683.40 10.4087
1684.22 9.82529
1685.87 9.04088
1687.52 8.53937
1689.16 8.19082
1690.81 7.93470
1694.10 7.58420
1695.75 7.46164
1697.40 7.36673
1699.04 7.30420
1699.87 7.29306
1700.69 7.30969
1701.10 7.33775
1701.51 7.39048
1701.93 7.48769
1702.34 7.67404
1702.54 7.83282
1702.75 8.07307
1702.95 8.45735
1703.16 9.11747
1703.37 10.4008
1703.47 11.5425
1703.57 13.3737
1703.67 16.5621
1703.78 22.7746
1703.83 28.3355
1703.88 36.8838
1703.93 50.7943
1703.98 73.7171
1704.04 113.500
1704.10 139.919
1704.16 113.486
1704.22 73.6980
1704.28 47.4655
1704.34 33.1985
1704.40 25.0188
1704.46 20.0374
1704.52 16.7802
1704.58 14.6154
1704.70 11.9687
1704.82 10.4723
1704.94 9.56081
1705.18 8.54450
1705.42 8.01810
1705.66 7.71052
1705.90 7.51409
1706.14 7.38049
1706.63 7.21161
1707.11 7.11061
1708.07 6.99333
1709.03 6.92319
1710.00 6.87281
1711.92 6.79765
1713.85 6.73779
1715.77 6.68521
1719.62 6.59067
1727.32 6.41474
1735.03 6.22463
1742.73 5.97732
1746.58 5.80754
1750.43 5.57916
1752.36 5.43021
1754.28 5.24678
1756.21 5.01533
1758.13 4.71836
1759.09 4.54020
1760.06 4.34425
1761.02 4.14562
1761.98 4.00269
1762.46 4.00659
1762.95 4.13906
1763.43 4.54848
1763.91 5.59505
1764.15 6.62062
1764.39 8.29295
1764.63 11.1180
1764.87 16.1207
1764.99 20.1304
1765.11 25.7622
1765.23 33.9623
1765.35 46.3253
1765.47 65.9562
1765.59 98.1002
1765.71 153.633
1765.83 251.647
1765.97 429.712
1766.10 574.402
1766.23 492.485
1766.37 330.191
1766.46 245.604
1766.56 187.575
1766.65 147.522
1766.74 119.332
1766.93 83.8303
1767.11 63.3580
1767.30 50.5082
1767.49 41.8939
1767.86 31.3462
1768.23 25.2910
1768.60 21.4627
1768.97 18.8533
1769.35 16.9774
1770.09 14.4840
1770.84 12.9234
1771.58 11.8612
1772.32 11.0973
1773.81 10.0755
1775.30 9.42763
1776.79 8.98279
1778.28 8.66102
1778.28 8.66065
1778.29 8.65972
1778.29 8.65879
1778.30 8.65713
1778.32 8.65362
1778.36 8.64683
1778.43 8.63322
1778.58 8.60658
1778.88 8.55554
1779.48 8.46181
1780.68 8.30401
1781.88 8.18154
1783.08 8.09686
1784.28 8.06966
1784.88 8.09870
1785.48 8.19108
1785.78 8.28327
1786.08 8.43295
1786.38 8.68555
1786.68 9.14271
1786.98 10.0717
1787.13 10.9333
1787.28 12.3721
1787.43 15.0266
1787.50 17.2736
1787.58 20.6984
1787.65 26.2432
1787.73 35.9208
1787.80 54.3376
1787.84 69.4571
1787.88 90.8014
1787.94 140.946
1788.00 173.601
1788.06 140.155
1788.12 90.8847
1788.18 62.3321
1788.23 45.2372
1788.28 34.6288
1788.33 27.7804
1788.44 19.8874
1788.54 15.8331
1788.65 13.4620
1788.75 11.9876
1788.96 10.3042
1789.17 9.42141
1789.38 8.90033
1789.59 8.56589
1789.79 8.33825
1790.21 8.05130
1790.63 7.88190
1791.05 7.77021
1791.46 7.69094
1792.30 7.58324
1793.14 7.51077
1794.81 7.41177
1796.48 7.34085
1798.15 7.28390
1801.49 7.19298
1804.83 7.12054
1808.17 7.06000
1814.85 6.96252
1821.53 6.88632
1828.22 6.82659
1831.56 6.80492
1834.90 6.79837
1836.57 6.81365
1837.40 6.83521
1838.24 6.87929
1839.07 6.97852
1839.49 7.07809
1839.91 7.25652
1840.12 7.40389
1840.33 7.62348
1840.54 7.97062
1840.74 8.56179
1840.95 9.70296
1841.06 10.7197
1841.16 12.3296
1841.27 15.1499
1841.37 20.5632
1841.42 25.3148
1841.47 32.7102
1841.53 44.6984
1841.58 64.3813
1841.64 99.1091
1841.70 122.305
1841.76 99.0690
1841.82 64.3317
1841.87 46.7737
1841.91 35.5374
1841.96 27.9933
1842.00 23.0224
1842.09 16.9968
1842.18 13.7308
1842.27 11.7862
1842.36 10.5423
1842.53 9.11296
1842.71 8.34842
1842.89 7.89556
1843.07 7.60557
1843.24 7.40967
1843.60 7.16667
1843.96 7.02827
1844.67 6.88312
1845.38 6.81133
1846.09 6.76987
1847.51 6.72493
1848.93 6.70319
1850.35 6.69988
1851.06 6.71361
1851.77 6.76527
1852.13 6.83909
1852.48 7.03267
1852.66 7.26999
1852.75 7.48031
1852.84 7.81119
1852.93 8.38718
1853.02 9.49301
1853.06 10.4689
1853.10 11.9402
1853.15 14.2821
1853.19 18.0430
1853.25 24.9144
1853.30 29.5198
1853.35 24.9671
1853.41 18.1082
1853.44 14.9778
1853.48 12.8221
1853.55 10.3089
1853.62 9.02402
1853.69 8.30011
1853.76 7.85760
1853.83 7.56909
1853.97 7.22968
1854.11 7.04572
1854.25 6.93499
1854.53 6.81393
1855.09 6.71526
1855.65 6.67511
1856.76 6.63960
1857.88 6.62153
1860.12 6.59854
1862.36 6.58081
1871.30 6.52007
1880.25 6.46090
1889.19 6.39765
1898.14 6.32576
1907.09 6.23917
1911.56 6.18820
1916.03 6.13360
1918.27 6.11000
1919.39 6.10341
1920.51 6.10675
1921.63 6.13640
1922.19 6.17597
1922.74 6.25599
1923.30 6.43441
1923.58 6.61170
1923.86 6.92460
1924.14 7.55340
1924.28 8.13203
1924.42 9.08408
1924.56 10.8364
1924.63 12.3089
1924.70 14.5370
1924.77 18.1089
1924.84 24.2547
1924.91 35.7045
1924.98 57.6900
1925.04 88.6081
1925.10 109.181
1925.16 88.6831
1925.22 57.7823
1925.27 40.7434
1925.32 30.2791
1925.37 23.6358
1925.41 19.2719
1925.51 14.1509
1925.61 11.4791
1925.70 9.89902
1925.80 8.91041
1925.99 7.77816
1926.18 7.17727
1926.38 6.82182
1926.57 6.59351
1926.76 6.43816
1927.15 6.24233
1927.53 6.12668
1928.30 5.99536
1929.07 5.91867
1929.85 5.86349
1931.39 5.77647
1932.93 5.69695
1934.47 5.61411
1937.55 5.41783
1939.09 5.29610
1940.63 5.15347
1942.18 4.98801
1943.72 4.80895
1944.49 4.72858
1945.26 4.67940
1946.03 4.71483
1946.80 4.97559
1947.57 5.89150
1947.96 6.98511
1948.34 9.10249
1948.73 13.5645
1948.92 17.6720
1949.11 24.2490
1949.30 35.5284
1949.50 56.1214
1949.59 73.1744
1949.69 97.5479
1949.79 133.240
1949.88 185.377
1950.04 315.002
1950.20 418.934
1950.36 358.394
1950.52 240.071
1950.69 155.997
1950.85 107.811
1951.02 79.4682
1951.19 61.8526
1951.35 50.1134
1951.52 41.9980
1951.85 31.6828
1952.19 25.6012
1952.52 21.6830
1953.19 17.0453
1953.85 14.4557
1954.52 12.8382
1955.18 11.7443
1955.85 10.9628
1957.18 9.94064
1957.85 9.60356
1958.52 9.35641
1959.18 9.21372
1959.51 9.20566
1959.85 9.28173
1960.18 9.54183
1960.35 9.82592
1960.51 10.3313
1960.68 11.3202
1960.76 12.1808
1960.85 13.5243
1960.93 15.7979
1961.01 19.8891
1961.06 23.2968
1961.10 28.1409
1961.14 35.5294
1961.18 46.2412
1961.24 69.0652
1961.30 83.9280
1961.36 68.6555
1961.42 46.2093
1961.46 36.1335
1961.50 29.1078
1961.57 20.8671
1961.65 16.5109
1961.72 14.0563
1961.80 12.5190
1961.87 11.5209
1962.02 10.3284
1962.18 9.66421
1962.33 9.25551
1962.63 8.79064
1962.93 8.53392
1963.23 8.36977
1963.83 8.16207
1964.44 8.02645
1965.04 7.92407
1966.24 7.76904
1967.45 7.64987
1968.66 7.55220
1971.07 7.39744
1975.89 7.18173
1980.71 7.03359
1985.53 6.92185
1990.36 6.83152
2000.00 6.68407
2011.97 6.51736
2017.95 6.42376
2023.94 6.30861
2029.92 6.14787
2032.92 6.03449
2035.91 5.88061
2037.40 5.78001
2038.90 5.65611
2040.40 5.50026
2041.89 5.30140
2042.64 5.18320
2043.39 5.05467
2044.14 4.92752
2044.88 4.84430
2045.26 4.85809
2045.63 4.96384
2046.01 5.26469
2046.38 6.00802
2046.75 7.87429
2046.94 9.79549
2047.13 13.1670
2047.31 19.5261
2047.41 24.9036
2047.50 32.8122
2047.60 45.1516
2047.69 64.7863
2047.78 98.0039
2047.88 153.788
2047.99 262.240
2048.10 350.070
2048.21 301.117
2048.33 202.914
2048.45 129.657
2048.58 89.1270
2048.70 65.5683
2048.82 51.1668
2048.95 41.6405
2049.07 35.1093
2049.32 26.8417
2049.57 21.9852
2049.82 18.8597
2050.32 15.1576
2050.82 13.0864
2051.31 11.7846
2051.81 10.8992
2052.31 10.2617
2053.31 9.41027
2054.30 8.87077
2055.30 8.49959
2056.29 8.22915
2058.29 7.86064
2060.28 7.62093
2062.27 7.45145
2064.26 7.32454
2068.24 7.14448
2072.23 7.01977
2080.19 6.84798
2088.16 6.72087
2096.13 6.60676
2100.11 6.55026
2102.10 6.52320
2104.09 6.50000
2106.08 6.48965
2107.08 6.49798
2108.08 6.52975
2109.07 6.62103
2109.57 6.72138
2110.07 6.90956
2110.32 7.06819
2110.57 7.30740
2110.81 7.68933
2111.06 8.34925
2111.31 9.62845
2111.44 10.7734
2111.56 12.5969
2111.69 15.8042
2111.81 22.0180
2111.87 27.5172
2111.93 36.1458
2112.00 50.2830
2112.06 73.7956
2112.13 114.564
2112.20 141.866
2112.27 114.658
2112.34 73.9115
2112.41 48.4039
2112.48 34.0656
2112.55 25.6419
2112.62 20.4195
2112.68 16.9648
2112.75 14.6406
2112.89 11.7702
2113.03 10.1322
2113.16 9.12612
2113.43 7.99384
2113.71 7.40605
2113.98 7.06026
2114.53 6.68493
2115.07 6.48946
2115.62 6.36855
2116.71 6.21746
2117.80 6.11218
2118.89 6.02032
2121.08 5.83214
2122.17 5.72463
2123.26 5.60402
2124.35 5.47175
2125.45 5.34442
2125.99 5.30173
2126.54 5.30331
2127.08 5.41074
2127.63 5.78254
2128.18 6.89324
2128.45 8.15682
2128.72 10.5584
2128.99 15.5698
2129.13 20.2191
2129.27 27.7327
2129.40 40.9338
2129.47 51.2992
2129.54 65.9678
2129.61 87.3831
2129.68 119.721
2129.74 170.125
2129.81 249.933
2129.95 519.991
2130.00 630.904
2130.05 679.137
2130.10 654.220
2130.19 470.848
2130.26 331.317
2130.34 219.454
2130.42 155.273
2130.50 115.867
2130.59 90.8228
2130.75 61.5657
2130.91 45.9445
2131.08 36.4842
2131.24 30.3520
2131.57 23.0046
2131.90 18.8920
2132.23 16.3224
2132.56 14.5898
2132.89 13.3547
2133.55 11.7297
2134.20 10.7217
2134.86 10.0430
2135.52 9.55955
2136.84 8.93186
2137.49 8.72958
2138.15 8.59033
2138.81 8.53499
2139.14 8.56459
2139.47 8.67581
2139.80 8.97221
2139.96 9.27867
2140.13 9.81553
2140.29 10.8619
2140.37 11.7751
2140.46 13.2078
2140.54 15.6531
2140.62 20.1087
2140.66 23.8137
2140.70 29.2748
2140.74 37.5249
2140.78 50.0004
2140.84 75.6983
2140.90 93.1798
2140.96 76.3694
2141.02 50.8262
2141.06 37.0907
2141.11 28.4055
2141.15 22.8742
2141.20 19.2950
2141.20 10.1051
2154.43 10.0959
2200.00 10.0644
2500.00 9.85664
3000.00 9.59799
3500.00 9.40614
3912.21 9.28465
4000.00 9.25878
5000.00 9.04945
6000.00 8.91088
6957.01 8.82234
7200.00 8.79986
8500.00 8.72161
10000.0 8.66512
12371.5 8.62085
12500.0 8.61845
15000.0 8.60555
17000.0 8.60917
20000.0 8.62830
22000.0 8.64878
25000.0 8.67951
30000.0 8.74103
35000.0 8.80544
39122.1 8.85814
40000.0 8.86936
50000.0 8.99017
60000.0 9.09849
69570.1 9.18976
70000.0 9.19386
80000.0 9.27705
90000.0 9.34915
100000 9.41127
120000 9.50948
123715 9.52229
140000 9.57843
145530 9.59082
160000 9.62325
180000 9.64788
190000 9.65043
206268 9.65457
206269 9.65510
206289 9.65508
206290 9.65507
220000 9.63749
240000 9.58957
260000 9.54164
300000 9.40770
383715 9.04655
391221 9.01417
400000 8.97630
500000 8.58441
600000 8.12300
700000 7.78036
773939 7.49470
773939 7.49470
794556 7.41504
794556 7.41504
800000 7.39401
829352 7.29198
829352 7.29198
877427 7.12486
883289 7.10448
900000 7.04639
910303 7.01421
953022 6.88079
957752 6.86601
957752 6.86601
1.00000E+06 6.73406
1.05032E+06 6.62623
1.05032E+06 6.62622
1.06799E+06 6.58835
1.06799E+06 6.58835
1.08513E+06 6.55162
1.08513E+06 6.55161
1.08900E+06 6.54332
1.08900E+06 6.54331
1.10000E+06 6.51975
1.10361E+06 6.51054
1.10361E+06 6.51053
1.16728E+06 6.34785
1.20000E+06 6.26425
1.24509E+06 6.16028
1.30000E+06 6.03367
1.31643E+06 6.00915
1.31644E+06 6.00914
1.33807E+06 5.97685
1.33807E+06 5.97685
1.37749E+06 5.91802
1.38429E+06 5.90787
1.38429E+06 5.90787
1.39063E+06 5.89841
1.39064E+06 5.89839
1.40000E+06 5.88442
1.43206E+06 5.82304
1.44129E+06 5.80538
1.44129E+06 5.80538
1.45581E+06 5.77758
1.45581E+06 5.77758
1.50000E+06 5.69298
1.52403E+06 5.65104
1.55717E+06 5.59320
1.55717E+06 5.59320
1.56821E+06 5.57393
1.56821E+06 5.57392
1.59073E+06 5.53462
1.60000E+06 5.51844
1.63744E+06 5.45860
1.63744E+06 5.45860
1.66258E+06 5.41842
1.66259E+06 5.41841
1.67562E+06 5.39757
1.67794E+06 5.39387
1.67794E+06 5.39387
1.68371E+06 5.38465
1.68371E+06 5.38465
1.70000E+06 5.35861
1.70089E+06 5.35730
1.70089E+06 5.35730
1.71605E+06 5.33501
1.71605E+06 5.33500
1.75142E+06 5.28297
1.75243E+06 5.28149
1.76179E+06 5.26772
1.76179E+06 5.26772
1.78578E+06 5.23243
1.80000E+06 5.21151
1.80801E+06 5.20100
1.81576E+06 5.19084
1.81576E+06 5.19083
1.82519E+06 5.17846
1.82746E+06 5.17548
1.82746E+06 5.17548
1.87370E+06 5.11481
1.89897E+06 5.08165
1.89897E+06 5.08165
1.90000E+06 5.08030
1.95849E+06 5.00355
1.95849E+06 5.00355
1.97780E+06 4.97821
2.00000E+06 4.94908
2.06876E+06 4.88352
2.13849E+06 4.81704
2.22540E+06 4.73418
2.26583E+06 4.69563
2.30322E+06 4.65998
2.34061E+06 4.62434
2.41641E+06 4.55207
2.47200E+06 4.49907
2.49827E+06 4.47402
2.50000E+06 4.47237
2.54375E+06 4.44294
2.55386E+06 4.43613
2.58519E+06 4.41505
2.60237E+06 4.40350
2.65290E+06 4.36950
2.65795E+06 4.36610
2.71253E+06 4.32938
2.77215E+06 4.28927
2.80550E+06 4.26683
2.84391E+06 4.24099
2.89848E+06 4.20427
2.94295E+06 4.17435
3.00000E+06 4.13597
4.00000E+06 3.81624
5.00000E+06 3.79125
6.00000E+06 3.97830
7.00000E+06 4.13896
7.44732E+06 4.18933
7.44732E+06 4.18933
8.00000E+06 4.25156
8.72374E+06 4.29281
9.00000E+06 4.30855
9.53629E+06 4.31769
1.00000E+07 4.32559
1.10000E+07 4.29639
1.20000E+07 4.24674
1.30000E+07 4.17477
1.40000E+07 4.07098
1.45000E+07 4.01909
1.50000E+07 3.94262
1.60000E+07 3.84609
1.60276E+07 3.84343
1.60276E+07 3.84343
1.70000E+07 3.74955
1.72272E+07 3.72762
1.72272E+07 3.72762
1.80000E+07 3.65302
1.90000E+07 3.55376
2.00000E+07 3.45450