Rh-103(n,tot) ENDF/B-VII.1
Energy(eV) XS(b)
1.00000E-05 6878.24
1.25000E-05 6152.56
1.50000E-05 5616.90
2.00000E-05 4864.99
2.75000E-05 4149.56
3.50000E-05 3678.73
4.25000E-05 3338.83
5.00000E-05 3078.62
6.25000E-05 2754.12
7.50000E-05 2514.58
0.000100000 2178.35
0.000125000 1948.91
0.000150000 1779.54
0.000200000 1541.83
0.000275000 1315.66
0.000350000 1166.83
0.000425000 1059.40
0.000500000 977.169
0.000625000 874.627
0.000750000 798.949
0.00100000 692.749
0.00125000 620.302
0.00150000 566.844
0.00200000 491.848
0.00275000 420.555
0.00350000 373.690
0.00425000 339.897
0.00500000 314.057
0.00625000 281.879
0.00750000 258.174
0.0100000 224.995
0.0125000 202.445
0.0150000 185.868
0.0200000 162.743
0.0253000 146.317
0.0314750 132.837
0.0376500 122.947
0.0500000 109.248
0.0625000 100.025
0.0750000 93.4320
0.100000 84.6615
0.125000 79.1992
0.150000 75.6172
0.200000 71.7057
0.275000 70.4076
0.350000 72.4915
0.500000 85.0396
0.625000 106.631
0.750000 147.315
0.875000 232.208
0.937500 312.880
1.00000 451.009
1.04568 623.796
1.09135 919.719
1.11419 1149.88
1.13703 1469.29
1.15986 1918.23
1.18270 2544.63
1.20200 3231.23
1.22130 4007.94
1.25990 4937.65
1.27920 4616.26
1.29850 3899.18
1.33710 2408.63
1.37853 1416.81
1.41996 889.596
1.46139 597.930
1.50283 425.117
1.54426 316.025
1.58569 243.419
1.66855 156.593
1.75141 109.089
1.83428 80.5191
1.91714 62.1025
2.00000 49.5876
2.18750 32.8133
2.37500 23.9341
2.56250 18.7062
2.75000 15.3852
3.12500 11.5804
3.50000 9.57489
3.87500 8.39221
4.25000 7.63622
5.00000 6.75664
5.62500 6.34168
6.25000 6.06896
7.50000 5.73722
8.75000 5.54429
10.0000 5.41776
12.5000 5.25961
15.0000 5.16215
17.5000 5.09419
20.0000 5.04295
23.6000 4.98666
27.2000 4.94315
30.8000 4.90893
32.6000 4.90000
33.0500 4.90316
33.5000 4.91816
33.7250 4.94051
33.8375 4.96221
33.9500 4.99960
34.0625 5.07116
34.1188 5.13380
34.1750 5.23239
34.2313 5.39924
34.2875 5.71007
34.3156 5.97242
34.3438 6.36475
34.3719 6.96895
34.4000 7.90174
34.4375 9.71946
34.4750 10.9333
34.5125 9.72413
34.5500 7.90713
34.5889 6.71017
34.6278 6.05346
34.6666 5.68066
34.7055 5.45531
34.7833 5.21285
34.8610 5.09374
34.9388 5.02695
35.0165 4.98581
35.1720 4.93972
35.3275 4.91558
35.4830 4.90113
35.7940 4.88483
36.4160 4.86961
37.0380 4.86124
39.5260 4.84161
40.7699 4.83587
42.0139 4.83527
42.6359 4.83933
43.2579 4.85016
43.8799 4.87920
44.1909 4.92420
44.3464 5.00254
44.4242 5.12523
44.4630 5.26324
44.5019 5.52668
44.5360 5.89819
44.5700 6.14773
44.6041 5.90762
44.6381 5.54500
44.6711 5.31986
44.7040 5.19375
44.7699 5.08057
44.9017 5.02847
45.1654 5.06847
45.4290 5.18459
45.6927 5.41011
45.8245 5.60095
45.9563 5.88924
46.0881 6.35044
46.2199 7.14872
46.3518 8.69581
46.4177 10.0695
46.4836 12.2634
46.5495 16.0498
46.6154 23.3037
46.6484 29.5958
46.6813 39.2527
46.7143 54.6106
46.7472 79.2454
46.7881 124.970
46.8290 156.336
46.8699 127.081
46.9108 81.8834
46.9591 48.9355
47.0073 32.1405
47.0556 23.1146
47.1039 17.8528
47.1522 14.5570
47.2004 12.3686
47.2970 9.74502
47.3935 8.29515
47.4900 7.41074
47.6831 6.43046
47.8762 5.92560
48.0693 5.63023
48.2623 5.44160
48.4554 5.31322
48.8416 5.15334
49.2277 5.06012
49.6139 5.00018
50.0000 4.95882
50.9160 4.89869
51.3739 4.87971
51.6029 4.87273
51.7174 4.87141
51.8319 4.88043
51.9000 4.89504
51.9681 4.87647
52.0954 4.85993
52.2227 4.85440
52.4773 4.84723
52.9865 4.83604
54.0050 4.81862
56.0418 4.79372
60.1155 4.75976
62.1524 4.74646
64.1892 4.73657
65.2076 4.73602
65.7168 4.73938
66.2261 4.74904
66.7353 4.77492
66.9899 4.80304
67.2445 4.85590
67.4991 4.96838
67.6264 5.07684
67.7537 5.26441
67.8810 5.62650
67.9447 5.94614
68.0083 6.45303
68.0720 7.31844
68.1356 8.94755
68.1674 10.3346
68.1993 12.4243
68.2311 15.6700
68.2629 20.7313
68.3050 30.6208
68.3470 37.4458
68.3891 31.1763
68.4311 21.4253
68.4605 16.6481
68.4899 13.4394
68.5192 11.2868
68.5486 9.80971
68.6074 8.00695
68.6661 7.00794
68.7249 6.40282
68.7836 6.01032
68.9011 5.54978
69.0186 5.30001
69.1361 5.14920
69.3711 4.98298
69.6061 4.89730
69.8411 4.84675
70.3112 4.79130
70.7812 4.76203
71.2512 4.74387
72.1912 4.72181
74.0713 4.69737
75.9513 4.68074
79.7114 4.65321
81.5915 4.64145
82.5315 4.64117
82.7665 4.64563
83.0015 4.65945
83.1190 4.67707
83.2365 4.71753
83.2953 4.75970
83.3540 4.83847
83.3834 4.90501
83.4128 5.00451
83.4421 5.15770
83.4715 5.39401
83.5108 5.85528
83.5500 6.16292
83.5893 5.85526
83.6285 5.39355
83.6754 5.05720
83.7223 4.88812
83.7691 4.79814
83.8160 4.74603
83.9098 4.69195
84.0035 4.66606
84.1911 4.64259
84.3786 4.63211
84.7536 4.62207
85.1287 4.61647
86.6288 4.60215
88.1290 4.59049
89.6291 4.58157
91.1293 4.58264
91.8793 4.59507
92.6294 4.63050
93.0044 4.66723
93.3795 4.73012
93.7545 4.84354
94.1296 5.06577
94.3171 5.26044
94.5046 5.56349
94.6921 6.06523
94.8796 6.96985
95.0672 8.81868
95.1609 10.5443
95.2547 13.4383
95.3484 18.7871
95.3953 23.3074
95.4422 30.1684
95.4891 41.1868
95.5360 60.1439
95.5828 95.3734
95.6063 124.097
95.6297 164.129
95.6503 210.126
95.6709 263.139
95.7120 331.885
95.7532 269.706
95.7943 172.339
95.8406 103.439
95.8869 67.1135
95.9331 47.0985
95.9794 35.2265
96.0257 27.6934
96.0720 22.6431
96.1645 16.5264
96.2571 13.1094
96.3496 11.0084
96.5347 8.65963
96.7198 7.43925
96.9049 6.72132
97.0901 6.26202
97.2752 5.95057
97.6454 5.57342
98.0156 5.39289
98.2007 5.37552
98.3858 5.46333
98.4784 5.60691
98.5709 5.93360
98.6172 6.25061
98.6635 6.78458
98.7097 7.73746
98.7560 9.48763
98.8005 12.1470
98.8450 13.9174
98.8895 12.1306
98.9340 9.45249
98.9673 8.07627
99.0006 7.18186
99.0339 6.59793
99.0673 6.20514
99.1339 5.73423
99.2005 5.47590
99.3338 5.21508
99.4670 5.08850
99.7335 4.96431
100.000 4.89959
100.556 4.82302
101.113 4.77603
102.225 4.71560
104.450 4.64617
106.675 4.60408
107.788 4.59219
108.344 4.59836
108.483 4.60787
108.622 4.63290
108.692 4.66275
108.761 4.72852
108.796 4.79520
108.831 4.91597
108.865 5.16141
108.883 5.37945
108.900 5.70314
108.925 6.37585
108.950 6.82450
108.975 6.37649
109.000 5.70414
109.029 5.22573
109.058 4.98109
109.087 4.84870
109.115 4.77183
109.173 4.69205
109.231 4.65467
109.346 4.62332
109.461 4.61280
109.692 4.61309
109.923 4.63128
110.153 4.67719
110.269 4.72217
110.384 4.79918
110.499 4.94456
110.557 5.07010
110.614 5.26445
110.672 5.58721
110.730 6.16921
110.787 7.33950
110.816 8.36716
110.845 9.89115
110.888 13.1300
110.930 15.3025
110.973 13.1326
111.015 9.89401
111.062 7.67599
111.109 6.50845
111.156 5.86606
111.203 5.48662
111.249 5.24619
111.296 5.08576
111.390 4.89315
111.484 4.78694
111.578 4.72299
111.765 4.65508
111.953 4.62670
112.140 4.62538
112.234 4.63990
112.328 4.67854
112.374 4.71782
112.421 4.78572
112.468 4.91056
112.515 5.14830
112.558 5.49680
112.600 5.73087
112.643 5.49768
112.685 5.14987
112.726 4.93615
112.766 4.81477
112.847 4.70172
112.928 4.65819
113.009 4.64147
113.171 4.64435
113.334 4.68254
113.496 4.77483
113.577 4.86179
113.658 5.00441
113.739 5.25794
113.820 5.76178
113.861 6.21730
113.901 6.94348
113.942 8.16154
113.982 10.2466
114.026 13.7256
114.070 16.0580
114.114 13.7270
114.158 10.2466
114.203 8.00358
114.247 6.76246
114.292 6.05135
114.336 5.61828
114.425 5.14909
114.514 4.91689
114.603 4.78583
114.692 4.70481
114.870 4.61337
115.048 4.56491
115.226 4.53552
115.582 4.50161
116.294 4.46819
117.007 4.44837
118.431 4.42006
119.855 4.40200
120.567 4.40074
121.279 4.41167
121.991 4.44892
122.704 4.54899
123.060 4.65104
123.416 4.82470
123.772 5.13660
124.128 5.74539
124.306 6.27743
124.484 7.10296
124.662 8.46420
124.840 10.9036
125.018 15.8436
125.107 20.4021
125.196 27.9552
125.285 41.6603
125.330 53.0243
125.374 69.9471
125.419 96.4257
125.441 115.512
125.463 140.340
125.485 173.446
125.508 217.781
125.530 278.134
125.552 358.932
125.574 462.203
125.596 581.798
125.640 738.204
125.662 699.620
125.684 598.740
125.728 380.051
125.756 281.533
125.784 212.931
125.839 131.280
125.895 88.6443
125.950 64.2609
126.005 49.1223
126.061 39.1551
126.172 27.2519
126.283 20.6922
126.394 16.6890
126.615 12.2372
126.837 9.92866
127.059 8.56725
127.281 7.69085
127.503 7.08966
127.946 6.33320
128.390 5.88674
128.833 5.59689
129.277 5.39547
130.164 5.13588
131.052 4.97624
132.826 4.78769
134.601 4.67511
136.375 4.59497
139.924 4.47391
143.473 4.36995
145.248 4.32154
147.022 4.28359
147.909 4.27681
148.797 4.29075
149.684 4.35073
150.571 4.52266
151.015 4.70225
151.458 5.01146
151.902 5.57167
152.346 6.67228
152.567 7.63666
152.789 9.13436
153.011 11.6027
153.233 16.0152
153.455 24.8905
153.566 33.0207
153.676 46.3702
153.787 70.2509
153.843 89.7798
153.898 118.378
153.954 162.307
154.009 233.005
154.065 353.087
154.120 560.825
154.180 911.960
154.240 1159.82
154.300 943.302
154.360 600.002
154.409 408.695
154.458 288.673
154.507 212.591
154.556 162.613
154.654 104.252
154.751 73.2088
154.849 54.8553
154.947 43.1485
155.143 29.5875
155.338 22.2982
155.534 17.9142
155.730 15.0565
155.925 13.0832
156.317 10.5882
156.708 9.11423
157.099 8.16090
157.490 7.50283
158.273 6.66625
159.056 6.16431
159.838 5.83282
160.621 5.59831
162.186 5.28782
163.751 5.08878
166.882 4.83663
170.012 4.66586
173.142 4.52282
176.273 4.38517
177.838 4.32491
178.621 4.33369
178.816 4.36595
179.012 4.45666
179.110 4.56485
179.207 4.79545
179.256 5.01735
179.305 5.39584
179.354 6.09031
179.403 7.42243
179.447 9.33252
179.490 10.6053
179.534 9.32990
179.577 7.41633
179.606 6.52513
179.635 5.91717
179.693 5.21686
179.750 4.86145
179.808 4.66225
179.924 4.46027
180.039 4.36493
180.270 4.27830
180.501 4.23883
181.425 4.18512
182.349 4.19959
183.273 4.32847
183.735 4.49071
184.196 4.79292
184.658 5.37386
185.120 6.57111
185.351 7.65223
185.582 9.36795
185.813 12.2592
186.044 17.5548
186.160 21.9637
186.275 28.5454
186.391 38.9039
186.506 56.3700
186.564 69.9181
186.622 88.8673
186.679 116.467
186.737 158.390
186.795 225.985
186.853 342.285
186.882 433.071
186.910 558.561
186.939 735.283
186.968 980.916
187.019 1595.90
187.070 2029.87
187.121 1652.50
187.172 1051.69
187.220 676.521
187.268 456.913
187.316 325.725
187.364 243.287
187.461 151.077
187.557 103.981
187.653 76.7960
187.749 59.7268
187.941 40.2198
188.134 29.8634
188.326 23.6712
188.518 19.6510
188.711 16.8786
189.095 13.3770
189.480 11.3082
189.864 9.96851
190.249 9.04244
191.018 7.86289
191.788 7.15434
192.557 6.68669
193.326 6.35702
194.865 5.92536
196.403 5.65779
197.942 5.48785
198.711 5.45814
199.095 5.50709
199.288 5.59344
199.480 5.79149
199.630 6.05914
199.780 6.23425
199.930 6.03757
200.080 5.74792
200.237 5.55213
200.394 5.44061
200.708 5.32884
201.021 5.27258
201.335 5.23610
202.590 5.14831
203.218 5.11919
203.845 5.10179
204.159 5.10452
204.473 5.13419
204.629 5.18019
204.708 5.22363
204.786 5.29508
204.865 5.42188
204.943 5.67129
204.982 5.89282
205.022 6.24068
205.061 6.81018
205.100 7.75503
205.145 9.39100
205.190 10.4809
205.235 9.38844
205.280 7.74917
205.325 6.69703
205.370 6.10781
205.415 5.76643
205.460 5.55751
205.550 5.32872
205.640 5.21392
205.729 5.14788
205.819 5.10602
205.999 5.05665
206.359 5.00916
206.718 4.98335
208.156 4.92307
211.032 4.83911
216.783 4.70656
222.535 4.59106
228.286 4.47574
234.037 4.34643
236.913 4.27081
239.789 4.18329
242.665 4.07887
245.540 3.95309
246.978 3.88519
248.416 3.82906
249.135 3.82049
249.854 3.85039
250.573 3.98776
250.932 4.20908
251.112 4.56814
251.202 5.13848
251.247 5.82160
251.292 7.24536
251.360 10.2844
251.428 7.35755
251.466 6.15212
251.504 5.53874
251.580 5.05356
251.732 4.92543
252.036 5.38899
252.340 6.41614
252.644 8.43894
252.796 10.1906
252.948 12.8783
253.099 17.2427
253.251 24.8945
253.327 31.0268
253.403 39.8775
253.479 53.2300
253.555 74.5077
253.631 111.095
253.669 139.808
253.707 180.228
253.745 239.326
253.783 328.555
253.821 467.305
253.859 683.308
253.910 1110.83
253.960 1413.02
254.011 1153.47
254.061 736.698
254.096 529.931
254.132 390.471
254.167 296.606
254.203 231.991
254.273 152.842
254.344 108.753
254.415 81.9176
254.486 64.4237
254.627 43.7728
254.769 32.4662
254.910 25.5889
255.052 21.0702
255.194 17.9333
255.477 13.9440
255.760 11.5761
256.043 10.0396
256.326 8.97646
256.892 7.62164
257.459 6.80706
258.025 6.26827
258.591 5.88734
259.724 5.38868
260.856 5.10059
261.422 5.03553
261.989 5.09610
262.272 5.26520
262.413 5.44348
262.555 5.75738
262.696 6.35878
262.767 6.87874
262.838 7.68132
262.909 9.00338
262.980 11.3594
263.050 15.9798
263.086 19.9469
263.121 25.6883
263.176 38.2530
263.230 46.6020
263.285 38.2531
263.339 25.6913
263.398 17.1361
263.457 12.5676
263.516 10.0315
263.575 8.53021
263.693 6.98075
263.810 6.32611
263.928 6.15440
264.046 6.51707
264.105 7.10155
264.164 8.34960
264.193 9.48943
264.223 11.2878
264.252 14.2509
264.282 19.1472
264.316 27.7433
264.350 33.4544
264.384 27.6759
264.418 19.0528
264.448 14.0267
264.478 11.0007
264.508 9.14920
264.538 7.96749
264.598 6.61640
264.658 5.90969
264.778 5.22514
264.898 4.90641
265.137 4.60738
265.377 4.46018
265.856 4.30004
266.336 4.20437
267.294 4.09838
268.253 4.12102
268.732 4.23109
269.211 4.48262
269.691 5.01910
270.170 6.19455
270.410 7.28705
270.649 9.04653
270.889 12.0479
271.129 17.5935
271.248 22.2318
271.368 29.1603
271.488 40.0619
271.608 58.4184
271.668 72.5813
271.728 92.3417
271.788 120.900
271.847 163.978
271.907 232.445
271.967 348.278
272.027 557.952
272.057 725.028
272.087 952.890
272.144 1559.09
272.200 1993.20
272.257 1627.98
272.313 1038.91
272.347 781.992
272.381 598.548
272.449 374.926
272.517 254.875
272.585 184.774
272.653 140.722
272.721 111.346
272.857 75.8764
272.993 56.0625
273.129 43.8384
273.401 30.0745
273.673 22.8237
273.945 18.4914
274.217 15.6699
274.489 13.7144
275.033 11.2193
275.577 9.72093
276.121 8.73298
276.665 8.03706
277.753 7.12431
278.840 6.55047
279.928 6.15150
281.016 5.85253
283.192 5.41588
284.280 5.24437
285.368 5.09821
286.456 5.00136
287.000 5.00513
287.543 5.11036
287.815 5.24799
288.087 5.50378
288.359 5.98863
288.631 6.96536
288.767 7.82887
288.903 9.17283
289.039 11.3822
289.175 15.2949
289.311 23.0282
289.379 29.9595
289.447 41.0629
289.481 49.2430
289.515 60.1973
289.549 75.2429
289.583 96.5150
289.617 127.582
289.651 174.528
289.685 247.583
289.719 361.391
289.765 589.436
289.810 752.704
289.833 716.735
289.856 616.973
289.901 396.473
289.946 253.159
289.990 170.759
290.035 122.229
290.080 92.0238
290.124 72.1748
290.169 58.5042
290.258 41.4763
290.348 31.6588
290.437 25.4838
290.616 18.4121
290.795 14.6304
290.973 12.3525
291.152 10.8598
291.331 9.82147
291.688 8.49136
292.046 7.68873
292.403 7.15733
292.761 6.78129
293.476 6.28444
294.191 5.96881
295.621 5.58072
297.051 5.33863
298.481 5.16211
301.341 4.89509
304.200 4.67041
307.060 4.44717
309.920 4.20324
311.350 4.08279
312.065 4.06758
312.244 4.09739
312.423 4.18726
312.512 4.29138
312.601 4.49719
312.691 4.95825
312.735 5.40527
312.780 6.12172
312.835 7.43512
312.890 8.30892
312.945 7.42570
313.000 6.10260
313.051 5.29557
313.103 4.82458
313.205 4.36453
313.308 4.16361
313.410 4.05850
313.820 3.90236
314.640 3.83382
315.459 3.89305
316.279 4.20496
316.689 4.57704
317.099 5.25530
317.509 6.53509
317.919 9.12232
318.124 11.4221
318.328 15.0171
318.533 20.9646
318.636 25.4539
318.738 31.5757
318.841 40.1874
318.943 52.7331
319.046 71.8489
319.148 102.661
319.251 156.321
319.302 198.852
319.353 259.460
319.404 349.071
319.456 486.009
319.507 702.606
319.558 1047.88
319.624 1720.63
319.690 2207.05
319.756 1808.05
319.822 1157.04
319.878 778.724
319.935 545.131
319.991 398.848
320.047 303.891
320.160 193.864
320.272 135.759
320.384 101.475
320.497 79.5854
320.722 54.2185
320.947 40.6172
321.172 32.6855
321.397 28.8110
321.509 30.1653
321.565 34.1988
321.594 38.5492
321.622 45.8318
321.656 59.2900
321.690 68.1258
321.724 58.4033
321.758 44.0528
321.804 32.6127
321.849 27.0274
321.895 23.9925
321.940 22.1171
322.031 19.8661
322.122 18.4715
322.304 16.6325
322.486 15.3463
322.850 13.5172
323.214 12.2303
323.942 10.5151
324.670 9.43376
325.397 8.72400
326.125 8.35176
326.489 8.41406
326.671 8.60845
326.853 9.05277
327.035 10.0701
327.126 11.0542
327.217 12.7104
327.308 15.7325
327.399 21.8941
327.444 27.5504
327.490 36.6929
327.535 52.2057
327.581 78.9998
327.630 124.921
327.680 158.051
327.730 130.938
327.779 86.4933
327.831 56.5664
327.882 39.7730
327.933 30.0628
327.984 24.1024
328.035 20.2070
328.086 17.5411
328.189 14.2217
328.291 12.3056
328.393 11.0939
328.598 9.68321
328.803 8.90407
329.007 8.41435
329.417 7.82859
329.826 7.48100
330.235 7.24244
331.054 6.91958
332.691 6.52941
334.328 6.27921
337.602 5.95347
340.876 5.74040
344.150 5.58522
347.424 5.46456
350.698 5.36712
352.335 5.32844
352.744 5.32265
353.153 5.32458
353.358 5.33509
353.563 5.36905
353.665 5.41281
353.767 5.51365
353.818 5.61907
353.870 5.81577
353.895 5.98231
353.921 6.23171
353.946 6.61593
353.972 7.20662
354.006 8.35943
354.040 9.12739
354.074 8.35812
354.108 7.20378
354.142 6.47601
354.175 6.06339
354.208 5.82233
354.241 5.67341
354.308 5.50970
354.374 5.42735
354.507 5.35059
354.640 5.31624
354.905 5.28482
355.171 5.26907
355.702 5.24999
356.233 5.23595
358.358 5.19178
359.421 5.17413
360.483 5.16254
361.014 5.16328
361.546 5.18029
361.811 5.20929
361.944 5.23875
362.077 5.29149
362.210 5.39805
362.276 5.49675
362.342 5.66181
362.409 5.96753
362.442 6.22764
362.475 6.62633
362.508 7.27728
362.542 8.42814
362.575 10.6635
362.591 12.5670
362.608 15.3145
362.634 21.4370
362.660 25.4968
362.686 21.4124
362.712 15.3149
362.740 11.1958
362.768 8.98561
362.796 7.74819
362.823 7.00730
362.851 6.53378
362.879 6.21718
362.935 5.83409
362.990 5.62095
363.046 5.49124
363.157 5.34829
363.269 5.27602
363.380 5.23500
363.602 5.19423
364.048 5.17449
364.493 5.19349
364.938 5.26194
365.160 5.33609
365.383 5.47227
365.605 5.75481
365.717 6.02276
365.828 6.48114
365.939 7.36124
365.995 8.13888
366.051 9.37461
366.106 11.5082
366.162 15.5939
366.190 19.1492
366.217 24.6333
366.245 33.4171
366.273 47.6263
366.307 73.1546
366.340 90.1641
366.374 73.0765
366.407 47.5662
366.437 32.7506
366.466 23.8670
366.495 18.4236
366.525 14.9651
366.583 11.0466
366.642 9.03370
366.701 7.87589
366.759 7.15252
366.877 6.33651
366.994 5.91112
367.111 5.66200
367.346 5.39579
367.581 5.26307
367.815 5.18658
368.285 5.10433
368.754 5.06128
369.224 5.03440
370.163 5.00138
371.101 4.98235
372.040 4.97846
372.510 4.99149
372.744 5.00862
372.979 5.04227
373.214 5.11446
373.331 5.18348
373.448 5.30116
373.566 5.52422
373.625 5.71779
373.683 6.01944
373.742 6.52518
373.801 7.45271
373.830 8.22485
373.859 9.35894
373.889 11.0713
373.918 13.6580
373.959 18.9084
374.000 22.4105
374.041 18.9083
374.082 13.6570
374.119 10.5409
374.156 8.69931
374.193 7.58563
374.230 6.88401
374.305 6.09633
374.379 5.69526
374.453 5.46516
374.527 5.32190
374.675 5.16024
374.823 5.07615
374.971 5.02713
375.267 4.97697
375.563 4.95964
375.860 4.97430
376.008 5.00933
376.156 5.10479
376.230 5.21634
376.304 5.45009
376.341 5.67279
376.378 6.04714
376.415 6.72254
376.452 7.99008
376.486 9.85387
376.520 11.0908
376.554 9.84694
376.588 7.98705
376.612 7.09495
376.635 6.49466
376.682 5.81486
376.728 5.47574
376.775 5.28812
376.869 5.10039
376.962 5.01337
377.149 4.93641
377.336 4.90281
377.710 4.87153
378.084 4.85500
378.832 4.83359
379.580 4.81701
382.572 4.76014
385.563 4.70733
386.311 4.69657
387.059 4.69219
387.433 4.69863
387.807 4.72821
387.994 4.77207
388.088 4.81451
388.181 4.88739
388.275 5.02611
388.321 5.14697
388.368 5.33564
388.415 5.65286
388.462 6.23470
388.485 6.72005
388.508 7.43324
388.532 8.51733
388.555 10.1522
388.588 13.4644
388.620 15.6642
388.653 13.4532
388.685 10.1507
388.719 7.96160
388.753 6.76620
388.787 6.09033
388.821 5.68368
388.855 5.42215
388.889 5.24574
388.957 5.03127
389.025 4.91087
389.093 4.83678
389.229 4.75353
389.365 4.70960
389.500 4.68303
389.772 4.65236
390.315 4.62173
390.859 4.60282
393.032 4.54536
395.206 4.48825
397.380 4.42486
399.553 4.35240
400.640 4.31283
401.727 4.27384
402.814 4.24802
403.357 4.25495
403.901 4.30375
404.172 4.36388
404.444 4.47395
404.716 4.68099
404.988 5.09620
405.259 6.03004
405.395 6.96123
405.531 8.60333
405.667 11.8279
405.735 14.6957
405.803 19.2551
405.871 27.0427
405.939 41.5695
405.973 53.8140
406.006 71.9710
406.040 99.7520
406.074 142.091
406.098 183.116
406.122 230.628
406.170 294.284
406.194 280.498
406.218 241.901
406.266 156.421
406.307 105.718
406.349 74.6467
406.391 55.3812
406.432 42.9543
406.516 28.6178
406.599 21.0914
406.683 16.6633
406.766 13.8435
406.933 10.5709
407.099 8.80320
407.266 7.73115
407.433 7.02625
407.599 6.53430
407.933 5.90258
408.266 5.52014
408.600 5.26604
408.933 5.08541
409.600 4.84448
410.266 4.68842
411.600 4.48798
412.933 4.35189
414.267 4.24190
416.934 4.04713
419.601 3.84949
422.268 3.62637
424.935 3.36728
426.268 3.23347
426.935 3.18979
427.269 3.23687
427.435 3.42504
427.519 3.78927
427.560 4.23639
427.602 5.14246
427.636 6.37113
427.670 7.18571
427.704 6.36153
427.738 5.13084
427.777 4.25769
427.816 3.80636
427.894 3.41423
428.050 3.18269
428.361 3.07338
428.984 3.02147
430.230 3.12138
430.853 3.35138
431.476 3.86787
432.098 5.12325
432.410 6.86767
432.488 7.85735
432.566 9.65862
432.605 11.2602
432.644 13.8766
432.682 18.5478
432.721 27.3800
432.756 39.8969
432.790 48.2768
432.824 40.2419
432.859 28.1456
432.895 20.1017
432.932 15.8795
433.005 12.4074
433.151 11.2821
433.444 13.8730
433.737 19.6577
433.883 24.1999
434.029 30.4908
434.176 39.4412
434.322 52.6078
434.468 72.8776
434.615 105.961
434.761 164.366
434.834 211.272
434.907 278.727
434.981 379.642
435.054 536.321
435.127 789.326
435.200 1200.92
435.290 1973.18
435.380 2534.65
435.471 2084.46
435.561 1338.78
435.626 961.833
435.690 708.563
435.755 538.629
435.819 422.016
435.948 279.105
436.077 199.383
436.206 150.684
436.335 118.849
436.592 81.0224
436.850 60.1381
437.108 47.3194
437.366 38.8301
437.624 32.8837
438.139 25.2418
438.655 20.6398
439.171 17.6165
439.686 15.5027
440.718 12.7751
441.749 11.1159
442.781 10.0288
443.296 9.68633
443.425 9.66446
443.554 9.74640
443.619 9.89194
443.683 10.2268
443.715 10.5494
443.747 11.0801
443.780 11.9931
443.812 13.5882
443.846 16.1985
443.880 17.9320
443.914 16.1547
443.948 13.5004
443.972 12.1926
443.997 11.3200
444.045 10.3354
444.093 9.83812
444.142 9.55362
444.238 9.24477
444.335 9.07506
444.528 8.87054
444.722 8.72930
445.495 8.32435
446.268 8.03128
446.655 7.98144
446.752 8.02470
446.849 8.16154
446.897 8.31821
446.945 8.61767
446.994 9.24711
447.018 9.81896
447.042 10.6807
447.076 12.4464
447.110 13.6205
447.144 12.4253
447.178 10.6378
447.221 9.29490
447.263 8.63297
447.305 8.28144
447.348 8.07535
447.432 7.85275
447.517 7.73556
447.686 7.60709
447.855 7.52862
448.194 7.42226
448.532 7.35907
448.870 7.37229
449.040 7.44960
449.209 7.64528
449.378 8.13185
449.463 8.63103
449.547 9.51401
449.632 11.2218
449.674 12.7067
449.716 15.0027
449.759 18.7555
449.801 25.3232
449.843 37.7363
449.886 62.4184
449.904 79.3225
449.923 99.0235
449.960 126.189
449.997 105.764
450.035 70.9619
450.079 44.5284
450.123 30.8709
450.168 23.4226
450.212 19.0168
450.257 16.2164
450.301 14.3294
450.390 12.0185
450.479 10.7010
450.568 9.87316
450.745 8.91311
450.923 8.38399
451.100 8.05191
451.456 7.65564
451.811 7.42128
452.166 7.26059
452.877 7.04203
454.298 6.76957
455.719 6.58361
458.561 6.31932
461.403 6.12948
467.087 5.86658
468.508 5.81888
469.929 5.78279
470.640 5.77609
470.995 5.78064
471.351 5.79766
471.706 5.84467
471.883 5.89484
472.061 5.98668
472.239 6.17534
472.328 6.35150
472.416 6.64758
472.505 7.19863
472.550 7.66924
472.594 8.39293
472.638 9.57945
472.683 11.6894
472.727 15.8233
472.749 19.3731
472.772 24.5324
472.806 35.8705
472.840 43.4028
472.874 35.8324
472.909 24.5275
472.933 19.0259
472.956 15.3695
472.980 12.9277
473.004 11.2586
473.052 9.22972
473.100 8.11650
473.148 7.44567
473.196 7.01432
473.291 6.51199
473.387 6.24263
473.483 6.08151
473.674 5.90571
473.865 5.81563
474.057 5.76234
474.439 5.70255
474.822 5.66898
475.205 5.64630
475.970 5.61477
477.501 5.57300
478.267 5.56457
478.458 5.56952
478.649 5.58846
478.745 5.61368
478.841 5.67180
478.889 5.73192
478.936 5.84214
478.984 6.06757
479.008 6.26903
479.032 6.57145
479.066 7.19375
479.100 7.60651
479.134 7.19025
479.168 6.56842
479.196 6.22119
479.225 6.00707
479.281 5.78588
479.338 5.68500
479.394 5.63190
479.507 5.58039
479.620 5.55655
479.845 5.53415
480.071 5.52269
480.974 5.49855
482.780 5.47006
483.683 5.46442
484.134 5.46697
484.586 5.47787
485.037 5.50879
485.263 5.54213
485.488 5.60372
485.714 5.73207
485.827 5.85399
485.940 6.06261
486.053 6.46296
486.109 6.81559
486.166 7.37602
486.222 8.34170
486.279 10.1852
486.307 11.7840
486.335 14.2420
486.363 18.1619
486.391 24.4703
486.426 35.9184
486.460 43.5174
486.494 35.8840
486.529 24.4712
486.569 16.2765
486.609 12.1059
486.649 9.85921
486.689 8.55494
486.729 7.73804
486.769 7.19873
486.849 6.55452
486.929 6.20144
487.009 5.98789
487.170 5.75425
487.330 5.63645
487.490 5.56943
487.810 5.50256
488.131 5.47857
488.451 5.48821
488.611 5.51773
488.772 5.59893
488.852 5.69428
488.932 5.89715
488.972 6.09387
489.012 6.43225
489.052 7.06430
489.092 8.30881
489.126 10.0407
489.160 11.1966
489.194 10.0441
489.228 8.31354
489.249 7.55434
489.270 7.02262
489.313 6.38996
489.355 6.06005
489.397 5.87217
489.481 5.68183
489.566 5.59472
489.735 5.52465
489.903 5.50452
490.241 5.51867
490.578 5.58643
490.916 5.74905
491.085 5.91017
491.254 6.19281
491.422 6.75122
491.507 7.25763
491.591 8.08638
491.676 9.57288
491.718 10.7966
491.760 12.6113
491.802 15.4418
491.844 20.1286
491.887 28.3952
491.929 43.4224
491.969 66.2868
492.010 81.5285
492.051 66.2896
492.091 43.4248
492.122 31.5656
492.153 23.9242
492.184 18.9811
492.215 15.6872
492.277 11.7943
492.339 9.70820
492.400 8.47519
492.462 7.69033
492.586 6.78923
492.709 6.31174
492.833 6.02903
493.080 5.72459
493.327 5.57175
493.574 5.48350
494.069 5.38873
494.563 5.33948
495.057 5.30895
496.046 5.27112
497.034 5.24615
498.023 5.22659
500.000 5.19514
501.161 5.18037
502.321 5.17133
502.901 5.17364
503.481 5.19422
503.771 5.22805
503.917 5.26217
504.062 5.32278
504.207 5.44379
504.279 5.55417
504.352 5.73562
504.424 6.06336
504.461 6.33459
504.497 6.73741
504.533 7.37104
504.569 8.42537
504.606 10.3108
504.642 13.7887
504.676 18.9985
504.710 22.4601
504.744 18.9841
504.778 13.7904
504.799 11.5477
504.820 9.96503
504.861 8.06642
504.902 7.06363
504.944 6.48653
504.985 6.12868
505.026 5.89303
505.109 5.61314
505.191 5.46009
505.274 5.36745
505.439 5.26540
505.604 5.21289
505.770 5.18187
506.100 5.14744
506.761 5.11603
507.422 5.09902
508.743 5.07548
510.065 5.05586
515.352 4.98312
520.639 4.90934
521.960 4.89138
523.282 4.87679
523.943 4.87466
524.604 4.88745
524.934 4.91377
525.099 4.94184
525.265 4.99352
525.430 5.10071
525.512 5.20203
525.595 5.37460
525.678 5.70237
525.719 5.98832
525.760 6.43786
525.801 7.19840
525.843 8.61617
525.863 9.81761
525.884 11.6089
525.905 14.3857
525.925 18.6628
525.953 26.9750
525.980 32.4864
526.007 26.9441
526.035 18.6639
526.055 14.4527
526.075 11.7159
526.095 9.91551
526.115 8.71057
526.156 7.26851
526.196 6.48984
526.236 6.02527
526.276 5.72825
526.357 5.38576
526.438 5.20323
526.518 5.09475
526.679 4.97697
526.840 4.91702
527.001 4.88175
527.323 4.84246
527.968 4.80560
528.612 4.78434
529.901 4.75225
531.189 4.72287
536.343 4.59105
538.921 4.50697
541.498 4.40266
544.075 4.26846
545.363 4.18865
546.008 4.15655
546.330 4.17900
546.410 4.21103
546.491 4.28576
546.571 4.49337
546.612 4.74453
546.652 5.24315
546.686 5.93606
546.720 6.39503
546.754 5.92841
546.788 5.23204
546.820 4.80094
546.853 4.55162
546.917 4.30949
546.982 4.20383
547.046 4.14798
547.304 4.05946
547.820 3.98971
548.852 3.88078
549.884 3.77330
550.915 3.69060
551.431 3.68581
551.947 3.74670
552.463 3.95562
552.979 4.52417
553.237 5.10638
553.495 6.09476
553.753 7.85553
554.011 11.2278
554.140 14.1078
554.269 18.4692
554.398 25.4086
554.527 37.1850
554.591 46.3169
554.656 59.0804
554.720 77.5316
554.785 105.316
554.849 149.269
554.914 222.960
554.978 354.315
555.043 595.886
555.106 983.313
555.170 1268.13
555.234 1047.71
555.298 677.209
555.348 470.829
555.399 338.243
555.450 252.720
555.501 195.739
555.602 128.126
555.704 91.4979
555.806 69.5343
555.907 55.3252
556.110 38.6069
556.313 29.4362
556.517 23.8185
556.720 20.0989
556.923 17.4918
557.329 14.1308
557.736 12.0973
558.142 10.7539
558.548 9.80973
559.361 8.58260
560.174 7.82807
560.986 7.32087
561.799 6.95785
563.425 6.47407
565.050 6.16635
566.675 5.95275
568.301 5.79509
571.551 5.57609
574.802 5.43094
576.428 5.37826
578.053 5.34497
578.866 5.34698
579.272 5.36106
579.678 5.39584
580.085 5.48053
580.288 5.56739
580.491 5.72385
580.694 6.04244
580.796 6.33934
580.897 6.83789
580.999 7.76853
581.050 8.56581
581.101 9.79630
581.151 11.8244
581.202 15.4600
581.253 22.6719
581.278 28.9403
581.304 38.0975
581.342 57.8324
581.380 70.9931
581.418 57.8315
581.456 38.0951
581.497 24.8708
581.538 17.7387
581.578 13.7344
581.619 11.3319
581.659 9.79543
581.700 8.76539
581.781 7.51699
581.862 6.82101
581.943 6.39587
582.105 5.92464
582.267 5.68253
582.429 5.54131
582.753 5.38975
583.077 5.31235
583.401 5.26588
584.050 5.21159
584.698 5.17872
585.346 5.15473
586.643 5.11811
589.236 5.06159
591.829 5.01342
597.016 4.92880
598.312 4.91063
599.609 4.89651
600.257 4.89385
600.905 4.90142
601.230 4.91727
601.554 4.96282
601.716 5.02111
601.878 5.16252
601.959 5.32362
602.040 5.66327
602.080 5.99171
602.121 6.55892
602.161 7.62323
602.202 9.73354
602.236 12.6415
602.270 14.5779
602.304 12.6386
602.338 9.73137
602.370 7.96712
602.402 6.94137
602.433 6.33058
602.465 5.94866
602.528 5.52582
602.591 5.31403
602.718 5.12370
602.844 5.04928
603.097 5.01261
603.350 5.04760
603.603 5.16749
603.729 5.29346
603.856 5.51977
603.982 5.97814
604.045 6.40302
604.108 7.11460
604.172 8.43560
604.203 9.56225
604.235 11.2936
604.266 14.1303
604.298 19.1716
604.330 29.0415
604.345 37.5113
604.361 49.8144
604.386 76.8230
604.410 94.8352
604.434 76.8363
604.459 49.8303
604.482 33.4266
604.504 23.8965
604.527 18.2144
604.549 14.6550
604.595 10.6988
604.640 8.69871
604.685 7.55973
604.730 6.85294
604.821 6.06031
604.911 5.65011
605.001 5.41076
605.092 5.25889
605.182 5.15641
605.363 5.03059
605.544 4.95889
605.905 4.88433
606.267 4.85080
606.629 4.84444
606.809 4.85915
606.990 4.91127
607.081 4.97802
607.171 5.12793
607.216 5.27957
607.261 5.55249
607.307 6.09475
607.329 6.56604
607.352 7.25752
607.386 8.74824
607.420 9.74341
607.454 8.74871
607.488 7.25633
607.513 6.50371
607.538 6.01103
607.588 5.47055
607.638 5.20955
607.688 5.06736
607.788 4.92702
607.888 4.86225
608.087 4.80427
608.287 4.77795
608.686 4.75139
609.085 4.73553
609.884 4.71231
610.683 4.69239
612.280 4.65392
613.877 4.61311
615.474 4.56720
616.273 4.54194
617.071 4.51633
617.870 4.49696
618.269 4.49779
618.669 4.52172
618.868 4.55369
619.068 4.61376
619.268 4.72859
619.467 4.96052
619.667 5.48197
619.767 5.99773
619.867 6.89741
619.966 8.62644
620.016 10.1296
620.066 12.4605
620.116 16.2931
620.166 23.0702
620.216 36.0972
620.241 47.0564
620.266 62.6314
620.287 80.1814
620.308 100.692
620.350 128.638
620.392 106.980
620.434 70.6081
620.481 44.6272
620.527 30.5507
620.574 22.6258
620.620 17.8414
620.667 14.7607
620.713 12.6679
620.806 10.0899
620.899 8.61839
620.992 7.69544
621.178 6.63647
621.364 6.06648
621.550 5.71936
621.736 5.48927
621.922 5.32698
622.294 5.11485
622.666 4.98275
623.410 4.82575
624.154 4.73254
624.898 4.66764
626.386 4.57531
629.362 4.43972
632.338 4.31089
635.314 4.15941
636.802 4.06678
638.290 3.95717
639.778 3.82665
640.522 3.75458
641.266 3.68334
642.010 3.62906
642.753 3.64651
643.125 3.73661
643.497 3.98073
643.683 4.24162
643.869 4.75536
643.962 5.25297
644.055 6.20367
644.102 7.08396
644.148 8.59823
644.195 11.5242
644.241 17.7235
644.276 25.5109
644.310 30.7366
644.344 25.7642
644.379 18.2794
644.419 13.0013
644.459 10.4396
644.539 8.60286
644.699 8.80338
644.859 11.0027
645.019 15.4944
645.100 19.2410
645.180 24.7418
645.260 33.1488
645.340 46.7006
645.420 70.1409
645.460 88.6150
645.500 114.651
645.540 152.696
645.580 209.831
645.620 298.203
645.660 435.410
645.715 718.082
645.770 926.004
645.825 765.553
645.880 495.436
645.913 374.933
645.947 288.834
646.013 183.421
646.080 126.521
646.146 93.1222
646.213 71.9991
646.280 57.8663
646.413 40.6781
646.546 30.9756
646.679 24.9386
646.946 18.0519
647.212 14.3661
647.479 12.1310
647.745 10.6556
648.012 9.62034
648.545 8.27844
649.078 7.45670
649.611 6.90571
650.144 6.51186
651.210 5.98592
652.276 5.64837
653.341 5.40986
654.407 5.22893
656.539 4.96156
658.671 4.75785
659.737 4.67060
660.270 4.63376
660.803 4.60989
661.336 4.62495
661.602 4.67322
661.869 4.79324
662.135 5.09660
662.269 5.41510
662.402 5.99205
662.535 7.14895
662.602 8.18987
662.668 9.85568
662.735 12.7097
662.801 18.0543
662.835 22.5527
662.868 29.2363
662.901 39.4108
662.935 54.9256
662.959 70.1904
662.982 87.9651
663.030 112.365
663.078 93.6786
663.125 62.0652
663.177 39.9279
663.228 27.7441
663.279 20.7780
663.330 16.5411
663.381 13.7889
663.432 11.9134
663.535 9.58936
663.637 8.25347
663.739 7.41162
663.944 6.44013
664.148 5.91215
664.353 5.58741
664.762 5.21353
665.171 5.00468
665.580 4.86942
666.398 4.69791
667.216 4.58572
668.034 4.50018
669.671 4.36516
671.307 4.25208
672.943 4.15344
673.761 4.11575
674.580 4.10938
674.989 4.14807
675.193 4.19892
675.398 4.29977
675.602 4.51887
675.705 4.73056
675.807 5.09515
675.909 5.79648
675.960 6.41343
676.011 7.39112
676.062 9.06730
676.114 12.2377
676.139 14.9668
676.165 19.1045
676.190 25.6436
676.216 35.9643
676.248 55.2079
676.280 67.9708
676.312 55.1282
676.344 35.9409
676.370 25.4898
676.396 18.9360
676.422 14.7942
676.448 12.0920
676.500 8.94621
676.551 7.28767
676.603 6.31557
676.655 5.70190
676.758 4.99947
676.862 4.62707
676.965 4.40532
677.172 4.16168
677.379 4.03357
677.586 3.95435
677.999 3.85748
678.827 3.74548
679.654 3.66554
680.482 3.60208
681.309 3.57533
681.723 3.61068
681.930 3.66557
682.137 3.78014
682.344 4.03768
682.447 4.29175
682.551 4.73647
682.654 5.61002
682.706 6.39431
682.758 7.66324
682.809 9.89873
682.861 14.3331
682.887 18.3399
682.913 24.7212
682.939 35.4857
682.964 53.8700
682.992 84.3245
683.020 104.557
683.048 84.2305
683.076 53.8936
683.108 32.0861
683.141 21.0181
683.173 15.0729
683.206 11.6123
683.238 9.44935
683.271 8.01672
683.336 6.30528
683.401 5.36406
683.466 4.79195
683.596 4.15902
683.726 3.83161
683.856 3.63715
684.116 3.41933
684.636 3.21603
685.156 3.10214
686.196 2.94608
687.236 2.85209
688.276 2.91375
688.796 3.11583
689.316 3.63282
689.836 4.98560
690.096 6.45053
690.356 9.19346
690.486 11.5001
690.616 14.9592
690.746 20.4144
690.876 29.6123
690.941 36.7112
691.006 46.6138
691.071 60.9163
691.136 82.4655
691.201 116.646
691.266 174.288
691.331 278.099
691.396 472.205
691.458 772.075
691.520 986.464
691.582 807.362
691.644 516.952
691.695 353.030
691.745 249.847
691.796 184.182
691.847 141.058
691.948 90.5167
692.050 63.5327
692.151 47.5287
692.253 37.2655
692.456 25.3039
692.659 18.8165
692.862 14.8725
693.268 10.4584
693.674 8.11792
694.080 6.69430
694.892 5.07392
695.704 4.22031
696.516 3.83039
697.328 4.06189
697.734 4.92316
697.835 5.49221
697.937 6.60925
697.987 7.67490
698.038 9.55686
698.089 13.3321
698.114 16.7051
698.139 21.7666
698.175 31.9570
698.210 38.7869
698.245 32.1539
698.281 22.1602
698.323 14.9622
698.365 11.4153
698.449 8.63559
698.533 7.82503
698.616 7.68461
698.952 9.34556
699.120 11.0155
699.288 13.3413
699.456 16.5683
699.624 21.1072
699.792 27.6430
699.960 37.3603
700.128 52.4261
700.295 77.0968
700.463 120.524
700.547 155.211
700.631 204.720
700.715 277.918
700.799 389.703
700.883 566.127
700.967 845.713
701.079 1411.85
701.190 1840.87
701.302 1535.04
701.413 999.727
701.512 672.227
701.611 471.368
701.710 346.500
701.809 265.679
702.007 172.174
702.205 122.609
702.403 93.2118
702.600 74.2898
702.996 52.0557
703.392 39.8245
703.788 32.2860
704.183 27.2544
704.579 23.6978
705.371 19.0583
706.162 16.2040
706.954 14.2890
707.745 12.9229
709.328 11.1136
710.911 9.97471
712.494 9.19368
714.077 8.62502
717.243 7.85180
720.410 7.34965
723.576 7.00016
724.367 6.93272
725.159 6.88047
725.554 6.86956
725.950 6.89580
726.148 6.95456
726.247 7.01602
726.346 7.12491
726.445 7.33679
726.494 7.52309
726.544 7.81546
726.593 8.30911
726.643 9.21823
726.668 9.98059
726.692 11.1048
726.717 12.8114
726.742 15.4047
726.776 20.6148
726.810 24.0903
726.844 20.6119
726.878 15.3973
726.906 12.5680
726.933 10.7976
726.961 9.67267
726.988 8.93794
727.043 8.08125
727.098 7.62810
727.153 7.36166
727.208 7.19199
727.318 6.99537
727.427 6.88858
727.537 6.82272
727.757 6.74559
728.196 6.66825
728.635 6.62199
729.513 6.55452
730.392 6.49876
733.905 6.31764
735.661 6.24367
737.418 6.18238
738.296 6.16165
738.735 6.15768
739.174 6.16358
739.614 6.19322
739.833 6.22927
740.053 6.29884
740.272 6.44752
740.382 6.59011
740.492 6.83483
740.602 7.30431
740.656 7.71719
740.711 8.37120
740.766 9.48925
740.821 11.6063
740.849 13.4277
740.876 16.1893
740.903 20.5311
740.931 27.4023
740.965 40.2174
741.000 48.7606
741.035 40.2150
741.069 27.3977
741.100 19.8139
741.131 15.3228
741.162 12.5999
741.193 10.8829
741.256 8.95207
741.318 7.96675
741.380 7.40199
741.442 7.04970
741.566 6.65223
741.690 6.44423
741.814 6.32146
742.063 6.18784
742.311 6.11848
742.559 6.07620
743.056 6.02571
743.553 5.99415
744.049 5.97047
745.042 5.93321
747.029 5.87373
749.015 5.82245
751.002 5.77638
752.989 5.73660
753.982 5.72160
754.975 5.71668
755.472 5.72566
755.968 5.76246
756.217 5.81460
756.341 5.86444
756.465 5.94992
756.589 6.11472
756.651 6.26110
756.713 6.49562
756.775 6.90594
756.838 7.71217
756.869 8.43428
756.900 9.57596
756.931 11.4728
756.962 14.6814
756.996 20.0687
757.030 23.6576
757.064 20.0618
757.098 14.6753
757.127 11.6306
757.156 9.77527
757.185 8.62355
757.214 7.88510
757.272 7.04220
757.330 6.60795
757.388 6.35956
757.446 6.20671
757.562 6.04209
757.677 5.96856
757.793 5.94072
758.025 5.97023
758.256 6.12523
758.372 6.29112
758.488 6.58468
758.604 7.15756
758.662 7.66685
758.720 8.48073
758.777 9.88839
758.835 12.6002
758.864 14.9751
758.893 18.6404
758.922 24.5363
758.951 34.1230
758.986 51.2357
759.020 62.6529
759.055 51.2543
759.089 34.1442
759.111 26.3589
759.134 20.9942
759.178 14.7449
759.223 11.5440
759.267 9.73889
759.312 8.63498
759.356 7.91520
759.445 7.06869
759.534 6.60994
759.623 6.33453
759.801 6.03352
759.979 5.88021
760.157 5.79082
760.513 5.69382
760.870 5.64286
761.226 5.61098
761.938 5.57102
763.362 5.52259
764.787 5.48576
767.635 5.41823
770.484 5.34706
773.333 5.26248
774.757 5.21050
776.182 5.14770
776.894 5.11084
777.606 5.06978
778.318 5.02535
779.031 4.98316
779.387 4.96910
779.743 4.96953
780.099 5.00442
780.455 5.12587
780.633 5.25947
780.811 5.49310
780.989 5.91749
781.167 6.73887
781.345 8.50576
781.434 10.1882
781.523 13.0168
781.612 18.1761
781.701 28.7142
781.746 38.3615
781.790 53.8908
781.813 65.2464
781.835 80.0494
781.857 99.5882
781.879 124.940
781.904 161.780
781.930 205.081
781.980 265.517
782.005 255.183
782.030 221.947
782.081 146.026
782.135 92.5056
782.189 62.8167
782.243 45.7981
782.297 35.3858
782.351 28.6125
782.405 23.9734
782.513 18.2098
782.621 14.8825
782.729 12.7788
782.945 10.3446
783.161 9.02132
783.377 8.21067
783.592 7.67110
783.808 7.28983
784.240 6.79191
784.672 6.48435
785.104 6.27669
785.536 6.12745
786.399 5.92703
787.263 5.79794
788.991 5.63894
790.718 5.54333
792.445 5.48480
793.309 5.47365
793.741 5.47832
794.173 5.49847
794.605 5.55554
794.821 5.61702
795.036 5.73044
795.252 5.96620
795.360 6.18940
795.468 6.56975
795.576 7.29471
795.630 7.92916
795.684 8.92757
795.738 10.6271
795.792 13.8186
795.819 16.5356
795.846 20.6364
795.873 27.0220
795.900 36.9692
795.935 55.9823
795.970 68.6161
796.005 55.9233
796.040 36.9667
796.070 26.1291
796.100 19.5609
796.130 15.5012
796.160 12.9046
796.220 9.94352
796.279 8.41485
796.339 7.53006
796.399 6.97564
796.519 6.34821
796.639 6.01979
796.758 5.82666
796.998 5.61889
797.237 5.51388
797.477 5.45225
797.956 5.38366
798.435 5.34540
798.914 5.31963
799.871 5.28367
801.787 5.23300
803.703 5.19099
807.534 5.11334
811.366 5.03539
815.197 4.95154
819.029 4.85675
822.860 4.74601
824.776 4.68705
825.734 4.66901
825.974 4.67419
826.213 4.69939
826.333 4.73535
826.452 4.82291
826.512 4.91874
826.572 5.10668
826.632 5.53695
826.662 5.96787
826.692 6.68478
826.726 7.91936
826.760 8.74092
826.794 7.91529
826.828 6.67850
826.852 6.07305
826.876 5.67053
826.925 5.22045
826.973 4.99972
827.021 4.87848
827.117 4.75841
827.214 4.70336
827.407 4.65596
827.599 4.63751
827.985 4.63065
828.370 4.65250
828.756 4.72549
828.949 4.80530
829.141 4.95111
829.334 5.24613
829.431 5.51594
829.527 5.95740
829.623 6.74708
829.672 7.39328
829.720 8.34487
829.768 9.81412
829.816 12.2114
829.864 16.3513
829.912 23.6769
829.961 35.2356
830.010 42.9469
830.059 35.2382
830.108 23.6759
830.163 15.5532
830.218 11.3434
830.274 9.04672
830.329 7.69957
830.384 6.85005
830.440 6.28521
830.550 5.60555
830.661 5.22788
830.772 4.99620
830.993 4.73512
831.214 4.59532
831.436 4.50825
831.878 4.40150
832.763 4.27640
833.649 4.17970
835.419 3.98447
837.190 3.75195
838.075 3.61739
838.960 3.47464
839.845 3.34104
840.730 3.27741
841.173 3.32731
841.616 3.51098
842.058 3.98041
842.501 5.11257
842.722 6.20816
842.944 8.00388
843.165 11.0882
843.276 13.4695
843.386 16.7591
843.497 21.4349
843.607 28.2917
843.718 38.7906
843.829 55.7044
843.939 84.9295
843.995 107.825
844.050 140.020
844.105 186.728
844.161 256.280
844.216 362.578
844.271 525.391
844.351 875.874
844.430 1140.85
844.509 951.450
844.589 620.452
844.676 382.773
844.763 252.718
844.850 178.764
844.937 133.847
845.024 104.715
845.110 84.8399
845.284 60.1862
845.458 45.9885
845.632 37.0247
845.980 26.6499
846.327 21.0133
846.675 17.5584
847.023 15.2593
847.370 13.6355
848.066 11.5180
848.761 10.2137
849.457 9.33731
850.152 8.71109
851.543 7.87970
852.934 7.35452
854.324 6.99294
855.715 6.72841
858.497 6.36554
861.279 6.12600
864.060 5.95657
864.756 5.92444
865.451 5.90222
865.799 5.90198
866.146 5.92896
866.320 5.97571
866.494 6.10213
866.581 6.25362
866.668 6.58389
866.711 6.91237
866.755 7.49290
866.798 8.62429
866.820 9.58578
866.842 10.9729
866.876 14.0718
866.910 16.1301
866.944 14.0602
866.978 10.9683
867.013 8.96809
867.047 7.85394
867.082 7.21412
867.116 6.82382
867.185 6.40009
867.254 6.18989
867.392 5.99633
867.530 5.91135
867.806 5.83605
868.082 5.80036
868.633 5.76019
869.185 5.73263
871.392 5.64932
875.805 5.51586
880.218 5.39917
882.425 5.34705
882.977 5.33850
883.528 5.34072
883.804 5.35591
884.080 5.40749
884.218 5.47702
884.356 5.64711
884.425 5.83766
884.494 6.22549
884.528 6.58515
884.563 7.17641
884.597 8.20804
884.632 10.0553
884.666 12.9279
884.700 14.8365
884.734 12.9182
884.768 10.0529
884.805 8.13331
884.841 7.09622
884.877 6.51153
884.913 6.16122
884.985 5.78567
885.057 5.60189
885.202 5.43457
885.347 5.36205
885.636 5.29851
885.925 5.26863
886.503 5.23450
887.081 5.20970
888.237 5.16450
889.393 5.11675
890.550 5.06335
891.128 5.03554
891.706 5.01183
891.995 5.00591
892.284 5.01047
892.573 5.03842
892.862 5.12258
893.007 5.21086
893.151 5.36154
893.296 5.62974
893.440 6.14056
893.585 7.22433
893.657 8.24838
893.730 9.95823
893.802 13.0663
893.874 19.3789
893.910 25.1613
893.946 34.4340
893.982 50.0330
894.019 76.7683
894.059 124.235
894.100 159.467
894.141 132.981
894.182 87.8526
894.218 60.2333
894.254 43.4258
894.291 33.0337
894.327 26.3251
894.400 18.5950
894.472 14.5263
894.545 12.1211
894.617 10.5816
894.763 8.78081
894.908 7.79562
895.053 7.19115
895.199 6.78924
895.344 6.50591
895.634 6.13654
895.925 5.90882
896.215 5.75489
896.506 5.64381
897.087 5.49277
897.668 5.39264
898.830 5.26077
899.992 5.16889
901.155 5.09318
903.479 4.95505
905.803 4.80680
906.966 4.72278
908.128 4.63399
908.709 4.59261
909.290 4.56213
909.871 4.56212
910.452 4.64602
910.743 4.76221
911.033 4.98383
911.324 5.41145
911.614 6.27927
911.905 8.22606
912.050 10.1383
912.195 13.4340
912.341 19.6467
912.413 24.9255
912.486 32.9209
912.559 45.6617
912.631 67.1169
912.704 105.572
912.776 176.869
912.848 292.231
912.920 379.155
912.992 316.460
913.064 207.369
913.123 144.424
913.182 104.396
913.241 78.8014
913.301 61.8535
913.419 41.8439
913.537 31.0417
913.656 24.5562
913.774 20.3528
914.011 15.3862
914.248 12.6417
914.484 10.9468
914.721 9.81393
914.958 9.01237
915.431 7.96440
915.905 7.31615
916.378 6.87734
916.852 6.56012
917.799 6.12714
918.746 5.83669
920.640 5.43579
921.587 5.27159
922.534 5.11193
923.481 4.94678
924.427 4.76996
924.901 4.67887
925.374 4.59323
925.848 4.53244
926.321 4.55484
926.558 4.64654
926.795 4.85889
927.032 5.31585
927.268 6.31368
927.505 8.68390
927.624 11.0981
927.742 15.3734
927.801 18.7951
927.860 23.6934
927.919 30.9643
927.979 42.2274
928.038 60.7354
928.067 74.5786
928.097 93.2507
928.127 118.938
928.156 154.930
928.186 205.977
928.215 277.735
928.268 462.119
928.320 602.595
928.372 504.149
928.425 330.265
928.474 218.214
928.524 151.536
928.574 111.164
928.623 85.4818
928.722 56.2934
928.822 41.0515
928.921 32.0875
929.020 26.3463
929.218 19.6237
929.417 15.9346
929.615 13.6608
929.814 12.1425
930.012 11.0677
930.409 9.66286
930.806 8.79520
931.202 8.21065
931.599 7.79181
932.393 7.23272
933.186 6.87644
933.980 6.62854
934.773 6.44502
936.361 6.18812
937.948 6.01271
941.122 5.77501
944.296 5.60089
945.884 5.52069
947.471 5.43859
949.058 5.35179
949.851 5.30915
950.645 5.27682
951.042 5.27310
951.439 5.29021
951.835 5.35245
952.232 5.52064
952.431 5.69008
952.629 5.97304
952.827 6.46589
953.026 7.38207
953.224 9.26234
953.323 10.9832
953.423 13.7700
953.522 18.6032
953.621 27.7735
953.671 35.5708
953.720 47.2499
953.770 65.1910
953.819 92.7590
953.890 151.729
953.960 196.593
954.030 165.053
954.101 109.414
954.157 77.9531
954.214 57.6542
954.270 44.5149
954.326 35.7443
954.439 25.2664
954.552 19.5563
954.665 16.1060
954.777 13.8612
955.003 11.1938
955.228 9.71365
955.454 8.79637
955.679 8.18225
955.905 7.74718
956.356 7.17799
956.807 6.82662
957.258 6.58990
957.709 6.42025
958.611 6.19348
959.512 6.04843
960.414 5.94693
961.316 5.87131
963.120 5.76469
964.924 5.69241
966.728 5.64646
967.179 5.64426
967.630 5.65928
967.855 5.68807
968.081 5.76983
968.194 5.87227
968.306 6.10905
968.363 6.36071
968.419 6.84243
968.447 7.26179
968.475 7.90779
968.504 8.94028
968.532 10.5983
968.566 13.6010
968.600 15.6015
968.634 13.5993
968.668 10.5950
968.708 8.46105
968.747 7.36545
968.786 6.77232
968.826 6.42515
968.904 6.06212
968.983 5.88848
969.140 5.73345
969.298 5.66750
969.612 5.61120
969.927 5.58596
970.556 5.55966
971.185 5.54307
973.702 5.49741
978.735 5.43180
983.768 5.38194
986.285 5.36609
986.914 5.36740
987.543 5.38037
987.858 5.40194
988.173 5.46282
988.330 5.54127
988.487 5.73305
988.566 5.95172
988.644 6.41087
988.684 6.85178
988.723 7.60636
988.762 9.00217
988.802 11.7148
988.836 15.5457
988.870 18.1015
988.904 15.5462
988.938 11.7150
988.960 10.0127
988.981 8.82761
989.024 7.42964
989.067 6.70295
989.110 6.29082
989.196 5.87095
989.282 5.67489
989.454 5.50414
989.626 5.43377
989.969 5.37663
990.313 5.35340
991.000 5.33278
991.687 5.32213
994.435 5.29809
995.809 5.29008
997.183 5.28678
997.870 5.29087
998.557 5.31042
998.901 5.34033
999.244 5.42309
999.416 5.52970
999.502 5.62822
999.588 5.79243
999.674 6.09599
999.717 6.35388
999.760 6.74707
999.803 7.38792
999.845 8.51126
999.888 10.6709
999.910 12.4969
999.931 15.0993
999.966 21.0064
1000.00 24.9445
1000.04 20.8934
1000.07 15.0668
1000.09 12.3129
1000.12 10.4412
1000.16 8.29268
1000.21 7.21151
1000.25 6.60879
1000.30 6.24312
1000.35 6.00607
1000.44 5.73107
1000.53 5.58104
1000.62 5.49213
1000.80 5.39470
1001.17 5.31672
1001.54 5.28611
1002.27 5.26062
1003.00 5.24916
1004.47 5.24151
1005.20 5.26121
1005.38 5.28338
1005.57 5.34030
1005.66 5.40813
1005.75 5.55518
1005.80 5.70441
1005.84 5.97387
1005.89 6.51353
1005.93 7.64687
1005.97 9.09310
1006.00 10.0535
1006.03 9.09282
1006.07 7.64617
1006.10 6.73557
1006.13 6.21567
1006.20 5.72821
1006.27 5.51966
1006.33 5.41678
1006.46 5.32127
1006.59 5.28012
1006.85 5.24567
1007.12 5.23135
1008.16 5.21159
1010.25 5.19566
1014.44 5.17265
1016.53 5.16398
1018.62 5.16133
1019.67 5.16761
1020.71 5.19429
1021.24 5.23401
1021.50 5.27344
1021.76 5.34317
1022.02 5.48443
1022.15 5.61592
1022.28 5.83523
1022.41 6.24858
1022.48 6.60815
1022.55 7.15828
1022.61 8.08861
1022.68 9.75478
1022.71 11.1478
1022.74 13.1158
1022.77 16.1410
1022.81 20.5014
1022.85 29.6412
1022.90 35.6981
1022.95 29.6284
1022.99 20.4855
1023.05 14.2354
1023.10 10.8904
1023.15 9.02975
1023.20 7.93827
1023.25 7.22855
1023.30 6.76157
1023.40 6.19022
1023.50 5.87088
1023.60 5.67886
1023.80 5.46838
1024.01 5.36310
1024.21 5.30576
1024.61 5.25786
1025.02 5.26531
1025.22 5.29435
1025.42 5.35644
1025.63 5.49325
1025.73 5.62401
1025.83 5.84744
1025.93 6.27150
1025.98 6.64490
1026.03 7.21813
1026.08 8.20238
1026.13 9.98345
1026.16 11.5377
1026.18 13.7629
1026.21 17.1384
1026.23 22.2616
1026.27 32.6388
1026.30 39.2748
1026.34 32.3504
1026.37 22.2940
1026.41 15.3676
1026.44 11.6326
1026.48 9.54274
1026.52 8.29205
1026.55 7.49522
1026.59 6.96017
1026.67 6.31259
1026.74 5.95234
1026.81 5.73209
1026.96 5.48925
1027.11 5.36354
1027.26 5.29073
1027.55 5.21246
1028.14 5.14960
1028.73 5.12346
1029.91 5.09892
1031.09 5.08523
1033.45 5.06622
1035.81 5.05049
1040.53 5.02113
1045.25 4.99164
1054.69 4.92664
1059.41 4.88810
1061.77 4.86829
1062.95 4.86755
1063.25 4.87584
1063.54 4.90280
1063.69 4.93916
1063.84 5.02814
1063.91 5.12966
1063.99 5.34104
1064.06 5.87897
1064.10 6.48830
1064.13 7.58933
1064.17 9.23150
1064.20 10.3226
1064.23 9.23057
1064.27 7.58753
1064.31 6.35908
1064.35 5.75446
1064.39 5.43788
1064.44 5.25669
1064.52 5.07109
1064.60 4.98364
1064.77 4.90637
1064.94 4.87366
1065.61 4.83136
1066.95 4.80403
1067.62 4.79555
1068.29 4.79506
1068.63 4.80585
1068.96 4.84640
1069.13 4.90395
1069.30 5.04977
1069.38 5.22108
1069.47 5.59026
1069.51 5.95342
1069.55 6.59069
1069.59 7.81165
1069.63 10.2112
1069.67 13.4694
1069.70 15.6308
1069.73 13.4683
1069.77 10.2084
1069.81 7.88893
1069.85 6.68900
1069.89 6.03785
1069.92 5.66380
1070.00 5.26351
1070.08 5.07026
1070.23 4.89566
1070.39 4.82093
1070.70 4.75472
1071.00 4.72257
1071.62 4.68304
1072.24 4.65381
1072.55 4.64320
1072.86 4.63927
1073.17 4.65099
1073.47 4.70208
1073.63 4.76139
1073.78 4.86644
1073.94 5.06081
1074.09 5.43755
1074.25 6.25598
1074.32 7.03089
1074.40 8.32855
1074.48 10.6783
1074.55 15.4147
1074.59 19.7558
1074.63 26.4566
1074.67 37.8070
1074.71 56.2888
1074.73 72.2767
1074.75 91.1080
1074.80 117.640
1074.85 99.1587
1074.89 66.3606
1074.94 45.0042
1074.98 32.5674
1075.02 24.8457
1075.07 20.0418
1075.15 14.4987
1075.24 11.6264
1075.33 9.91177
1075.41 8.82423
1075.59 7.53928
1075.76 6.83279
1075.93 6.39675
1076.10 6.10528
1076.28 5.89877
1076.62 5.62802
1076.97 5.46127
1077.32 5.34902
1077.66 5.26888
1078.36 5.16412
1079.05 5.10705
1079.39 5.09836
1079.74 5.12365
1079.91 5.17465
1080.09 5.31563
1080.17 5.48624
1080.26 5.85355
1080.30 6.22689
1080.35 6.87336
1080.39 8.12058
1080.41 9.20499
1080.43 10.6908
1080.47 14.1996
1080.50 16.4655
1080.54 14.0903
1080.57 10.6859
1080.61 8.19407
1080.65 6.94351
1080.69 6.27845
1080.73 5.89353
1080.82 5.49483
1080.90 5.30642
1081.06 5.13527
1081.22 5.06171
1081.55 4.99612
1081.88 4.96465
1082.53 4.92930
1083.19 4.90602
1085.80 4.84380
1088.42 4.80012
1089.73 4.79481
1090.05 4.80595
1090.38 4.84444
1090.54 4.89754
1090.71 5.03036
1090.79 5.18528
1090.87 5.51119
1090.91 5.83190
1090.95 6.39018
1090.99 7.44737
1091.03 9.49079
1091.07 12.3146
1091.10 14.1886
1091.13 12.3140
1091.17 9.48927
1091.19 8.05551
1091.22 7.11631
1091.27 6.08513
1091.32 5.58893
1091.37 5.32397
1091.47 5.05837
1091.57 4.93913
1091.77 4.83570
1091.96 4.79237
1092.36 4.75451
1092.76 4.73614
1094.35 4.69773
1095.15 4.68488
1095.94 4.67989
1096.34 4.68772
1096.74 4.72343
1096.94 4.77656
1097.13 4.91669
1097.23 5.08697
1097.33 5.46438
1097.38 5.85587
1097.43 6.56121
1097.46 7.16020
1097.48 8.04904
1097.51 9.40282
1097.53 11.3667
1097.57 15.5152
1097.60 18.1915
1097.64 15.3889
1097.67 11.3659
1097.69 9.53638
1097.71 8.32003
1097.75 6.86284
1097.80 6.08182
1097.84 5.64569
1097.92 5.19238
1098.01 4.98079
1098.18 4.79145
1098.35 4.71176
1098.69 4.64270
1099.02 4.61040
1099.70 4.57260
1100.38 4.54371
1101.73 4.48605
1103.09 4.41666
1103.77 4.37445
1104.44 4.32571
1105.12 4.26971
1105.80 4.20952
1106.14 4.18239
1106.48 4.16546
1106.82 4.17654
1107.15 4.26348
1107.32 4.37425
1107.49 4.57855
1107.66 4.96486
1107.83 5.73666
1108.00 7.45385
1108.09 9.12354
1108.17 11.9308
1108.25 17.1844
1108.30 21.5198
1108.34 27.9528
1108.38 38.2109
1108.40 45.3621
1108.42 54.5919
1108.44 66.6487
1108.47 82.5524
1108.49 103.618
1108.51 131.304
1108.53 172.183
1108.55 218.321
1108.60 282.978
1108.62 271.635
1108.65 236.387
1108.69 156.277
1108.74 103.142
1108.78 72.4025
1108.83 53.4305
1108.87 41.6665
1108.92 33.6293
1108.96 28.1435
1109.05 21.1559
1109.14 16.9932
1109.23 14.3550
1109.40 11.2412
1109.58 9.52299
1109.76 8.47012
1109.93 7.76629
1110.11 7.26762
1110.47 6.61379
1110.82 6.21099
1111.17 5.93939
1111.53 5.74462
1112.24 5.48416
1112.95 5.31797
1113.66 5.20205
1114.36 5.11603
1115.78 4.99473
1117.20 4.91204
1118.62 4.85792
1118.97 4.85430
1119.32 4.86880
1119.50 4.89793
1119.68 4.97953
1119.77 5.07930
1119.86 5.29639
1119.90 5.51912
1119.94 5.90902
1119.99 6.67248
1120.01 7.32689
1120.03 8.27580
1120.07 10.3535
1120.10 11.7332
1120.13 10.3515
1120.17 8.27150
1120.20 7.08482
1120.23 6.37893
1120.28 5.63805
1120.34 5.30341
1120.40 5.12837
1120.51 4.96116
1120.62 4.88595
1120.85 4.81939
1121.08 4.78888
1121.99 4.73649
1123.81 4.67816
1127.46 4.58070
1131.11 4.48327
1134.75 4.37369
1138.40 4.23818
1140.22 4.15417
1142.04 4.05382
1143.86 3.93108
1145.69 3.78063
1146.60 3.69738
1147.51 3.62183
1147.97 3.60038
1148.42 3.61830
1148.65 3.66988
1148.88 3.81604
1148.99 3.99332
1149.11 4.39356
1149.16 4.81349
1149.22 5.61616
1149.28 7.39251
1149.30 9.08332
1149.33 11.7957
1149.37 16.6654
1149.40 19.8925
1149.43 16.6842
1149.47 11.8330
1149.51 8.19759
1149.55 6.41267
1149.59 5.48621
1149.64 4.97434
1149.72 4.46227
1149.80 4.25031
1150.13 4.22849
1150.47 4.74520
1150.80 5.93086
1151.13 8.67442
1151.30 11.3805
1151.38 13.3791
1151.46 16.0492
1151.55 19.7488
1151.63 24.8888
1151.71 32.3375
1151.80 43.5558
1151.88 61.2501
1151.96 90.6991
1152.00 113.129
1152.05 142.497
1152.09 183.101
1152.13 236.174
1152.21 393.195
1152.30 513.135
1152.34 493.282
1152.39 428.833
1152.47 281.531
1152.54 198.047
1152.61 144.083
1152.68 109.087
1152.75 85.9336
1152.89 57.9490
1153.02 42.6064
1153.16 33.2560
1153.30 27.2022
1153.57 19.9872
1153.85 15.9575
1154.12 13.4649
1154.40 11.7878
1154.67 10.6025
1155.22 9.04867
1155.77 8.08956
1156.32 7.44435
1156.86 6.98343
1157.96 6.36822
1159.06 5.97674
1160.16 5.70336
1161.25 5.49980
1163.45 5.20959
1165.64 5.00332
1170.03 4.69718
1174.43 4.43322
1176.62 4.29564
1178.82 4.14395
1181.01 3.96795
1182.11 3.86649
1183.21 3.75385
1184.30 3.63207
1184.85 3.57481
1185.40 3.53812
1185.95 3.58121
1186.22 3.69549
1186.50 3.98121
1186.77 4.72424
1186.91 5.51668
1187.05 6.97113
1187.18 9.91351
1187.25 12.5965
1187.29 14.4516
1187.32 16.8257
1187.36 20.0192
1187.39 24.1497
1187.41 26.7281
1187.42 29.7456
1187.46 37.5074
1187.49 48.9409
1187.53 65.2395
1187.56 89.5032
1187.60 125.583
1187.62 164.671
1187.65 208.982
1187.70 271.368
1187.73 261.010
1187.75 227.618
1187.81 150.972
1187.85 104.460
1187.89 75.7677
1187.94 57.1229
1187.98 45.1150
1188.07 30.8088
1188.16 23.1109
1188.25 18.5054
1188.34 15.5277
1188.52 12.0403
1188.69 10.1270
1188.87 8.97632
1189.23 7.76410
1189.58 7.25917
1189.94 7.14557
1190.65 7.82374
1191.36 10.2072
1191.71 12.6858
1192.07 16.9689
1192.43 24.9276
1192.60 31.5433
1192.78 41.2561
1192.96 56.2602
1193.14 80.2101
1193.31 120.568
1193.49 188.876
1193.70 313.226
1193.90 408.323
1194.11 343.515
1194.31 226.845
1194.46 165.719
1194.61 124.295
1194.75 96.3287
1194.90 77.1174
1195.20 53.3048
1195.49 39.8731
1195.79 31.5861
1196.08 26.1083
1196.67 19.5130
1197.26 15.8195
1197.85 13.5638
1198.15 12.8036
1198.44 12.3392
1198.59 12.3369
1198.74 12.7911
1198.81 13.4901
1198.88 15.0840
1198.92 16.6456
1198.96 19.3061
1199.00 24.1246
1199.03 32.8055
1199.07 46.1287
1199.10 54.6293
1199.14 45.6098
1199.17 32.5842
1199.20 25.5253
1199.22 21.1525
1199.25 18.2097
1199.28 16.3154
1199.33 14.0023
1199.38 12.7521
1199.43 11.9694
1199.49 11.4565
1199.59 10.8066
1199.80 10.1233
1200.01 9.72323
1200.43 9.18934
1200.85 8.80364
1201.69 8.26964
1201.90 8.20181
1202.11 8.22267
1202.22 8.32853
1202.32 8.63533
1202.38 8.98697
1202.43 9.65594
1202.45 10.2575
1202.48 11.1401
1202.51 12.5126
1202.53 14.6499
1202.57 18.7327
1202.60 21.4352
1202.63 18.7099
1202.67 14.5986
1202.70 12.3715
1202.72 10.9567
1202.75 10.0513
1202.78 9.45158
1202.83 8.74244
1202.88 8.36223
1202.99 7.97009
1203.10 7.77292
1203.31 7.56129
1203.53 7.43321
1203.96 7.25117
1204.38 7.10797
1206.10 6.68658
1206.96 6.53321
1207.82 6.42046
1208.24 6.39497
1208.67 6.43779
1208.89 6.54215
1209.00 6.65212
1209.10 6.84841
1209.21 7.23287
1209.26 7.57732
1209.32 8.11315
1209.37 9.04453
1209.42 10.7613
1209.45 12.2476
1209.48 14.4968
1209.50 18.0085
1209.53 23.2658
1209.57 33.6440
1209.60 40.6049
1209.64 33.6334
1209.67 23.2463
1209.70 16.9119
1209.74 13.3424
1209.77 11.2031
1209.80 9.85627
1209.86 8.33338
1209.93 7.57195
1209.99 7.12812
1210.06 6.85438
1210.19 6.54023
1210.31 6.36964
1210.44 6.26477
1210.70 6.14188
1211.22 6.01652
1211.73 5.94041
1212.76 5.82999
1213.79 5.74106
1217.91 5.46806
1222.03 5.26076
1226.15 5.08537
1234.39 4.76905
1236.45 4.69112
1238.51 4.61593
1239.54 4.58457
1240.57 4.57371
1241.09 4.59672
1241.34 4.63002
1241.60 4.69793
1241.86 4.84944
1241.99 4.99827
1242.12 5.25595
1242.24 5.76367
1242.31 6.21507
1242.37 6.94181
1242.44 8.24032
1242.50 10.7667
1242.53 13.0252
1242.57 16.6060
1242.60 22.5563
1242.63 32.6286
1242.67 49.9654
1242.70 61.1591
1242.74 49.4466
1242.77 32.6215
1242.80 22.7879
1242.83 17.0287
1242.86 13.3692
1242.89 11.1011
1242.95 8.47093
1243.02 7.11264
1243.08 6.32811
1243.14 5.83612
1243.26 5.28097
1243.38 4.98613
1243.50 4.81250
1243.74 4.62140
1243.99 4.52122
1244.23 4.45930
1244.72 4.38336
1245.69 4.29399
1246.66 4.22644
1248.61 4.09994
1250.55 3.96586
1254.44 3.64654
1256.39 3.45873
1257.36 3.38875
1257.60 3.39902
1257.85 3.47024
1257.97 3.57858
1258.09 3.84636
1258.15 4.14460
1258.21 4.73611
1258.24 5.27624
1258.27 6.10283
1258.30 7.45753
1258.33 9.70979
1258.37 13.6956
1258.40 16.2636
1258.44 13.5668
1258.47 9.69450
1258.51 6.80538
1258.55 5.39894
1258.59 4.64742
1258.63 4.21006
1258.72 3.74905
1258.80 3.52862
1258.96 3.32193
1259.13 3.22455
1259.46 3.11986
1259.79 3.05227
1261.10 2.84859
1262.42 2.68694
1263.74 2.64353
1264.40 2.74621
1265.06 3.04443
1265.72 3.74963
1266.05 4.39127
1266.37 5.37160
1266.70 6.90535
1267.03 9.36517
1267.36 13.4999
1267.69 20.9037
1267.86 26.8838
1268.02 35.4875
1268.19 48.3209
1268.35 68.1862
1268.52 101.089
1268.68 158.679
1268.84 268.823
1268.93 359.544
1269.01 487.513
1269.15 817.855
1269.30 1072.38
1269.45 898.994
1269.59 589.975
1269.71 414.409
1269.83 300.729
1269.94 226.914
1270.06 177.783
1270.29 118.426
1270.53 86.0438
1270.76 66.3350
1270.99 53.5175
1271.46 38.2321
1271.93 29.7179
1272.39 24.5039
1272.86 21.3996
1272.98 21.0840
1273.09 21.3222
1273.15 21.9587
1273.21 23.4342
1273.27 26.9790
1273.30 30.4749
1273.33 36.0939
1273.36 46.7701
1273.40 53.5696
1273.44 46.1353
1273.47 35.4510
1273.51 28.8050
1273.54 24.8757
1273.58 22.4857
1273.61 20.9812
1273.68 19.1445
1273.74 18.1163
1273.88 16.9275
1274.01 16.1998
1274.28 15.2103
1274.55 14.5202
1274.82 14.0555
1275.09 13.9732
1275.23 14.3059
1275.29 14.7142
1275.36 15.4435
1275.43 16.8475
1275.50 19.7263
1275.53 22.4264
1275.56 26.6653
1275.60 34.0908
1275.63 46.5575
1275.67 67.3732
1275.70 80.6863
1275.74 66.6738
1275.77 46.3751
1275.80 34.0996
1275.83 26.9673
1275.87 22.5813
1275.90 19.7617
1275.96 16.5282
1276.02 14.8233
1276.08 13.7949
1276.15 13.1356
1276.27 12.3272
1276.39 11.8368
1276.52 11.4985
1276.77 11.0256
1277.26 10.3972
1277.76 9.93765
1278.76 9.24073
1279.75 8.71559
1280.75 8.30232
1281.74 7.97879
1282.24 7.85802
1282.74 7.80219
1282.99 7.84597
1283.11 7.91814
1283.23 8.06462
1283.36 8.38054
1283.42 8.67237
1283.48 9.15063
1283.55 9.99783
1283.61 11.6745
1283.64 13.1752
1283.67 15.5524
1283.70 19.4921
1283.73 26.1277
1283.77 37.5072
1283.80 44.7927
1283.84 37.1463
1283.87 26.0976
1283.91 18.2218
1283.95 14.1928
1283.99 11.9175
1284.02 10.6059
1284.06 9.75265
1284.10 9.19582
1284.18 8.51627
1284.25 8.12772
1284.33 7.88805
1284.48 7.60766
1284.64 7.44888
1284.79 7.34510
1285.10 7.20793
1285.71 7.03344
1286.32 6.90270
1288.77 6.49527
1291.22 6.15489
1293.67 5.82752
1296.12 5.46590
1297.35 5.25031
1298.58 4.99298
1299.19 4.84279
1299.80 4.67659
1300.41 4.49905
1301.03 4.33682
1301.33 4.28893
1301.64 4.30605
1301.95 4.47262
1302.25 5.00341
1302.56 6.53927
1302.71 8.24955
1302.86 11.4520
1302.94 14.1293
1303.02 18.0099
1303.09 24.0052
1303.17 33.4593
1303.21 40.5534
1303.25 49.7198
1303.29 62.0743
1303.32 79.0885
1303.36 103.817
1303.40 138.701
1303.44 189.813
1303.48 264.496
1303.54 444.606
1303.60 585.842
1303.63 565.629
1303.66 493.904
1303.73 327.366
1303.80 198.438
1303.87 131.121
1303.95 93.6331
1304.02 71.0870
1304.09 56.3994
1304.17 46.5481
1304.31 34.3162
1304.46 27.2051
1304.60 22.7197
1304.90 17.4717
1305.19 14.5663
1305.48 12.7597
1305.78 11.5404
1306.07 10.6698
1306.65 9.50806
1307.24 8.77435
1307.82 8.26794
1308.41 7.89611
1309.58 7.38147
1310.75 7.03557
1313.09 6.57693
1315.43 6.25214
1316.60 6.10812
1317.77 5.96678
1318.95 5.82835
1319.53 5.76934
1320.12 5.74079
1320.41 5.75652
1320.70 5.81787
1320.99 5.97226
1321.29 6.33165
1321.58 7.21384
1321.73 8.11581
1321.87 9.70974
1322.02 12.8057
1322.09 15.4623
1322.16 19.5247
1322.24 26.0489
1322.31 37.1546
1322.38 57.2703
1322.46 95.0253
1322.53 156.755
1322.60 204.853
1322.67 173.203
1322.74 115.557
1322.80 83.0669
1322.86 62.2133
1322.91 48.5140
1322.97 39.2435
1323.08 27.9697
1323.19 21.8015
1323.31 18.0084
1323.42 15.5420
1323.64 12.5710
1323.87 10.9047
1324.09 9.86244
1324.32 9.15866
1324.54 8.65578
1324.99 7.99070
1325.44 7.57349
1325.89 7.28798
1326.34 7.08036
1327.24 6.79544
1328.14 6.60692
1329.94 6.36447
1331.74 6.20718
1333.54 6.09074
1337.14 5.91720
1340.74 5.78069
1344.33 5.65791
1346.13 5.59746
1347.93 5.53727
1348.83 5.50952
1349.73 5.49184
1350.18 5.49785
1350.63 5.54542
1350.86 5.62234
1351.08 5.83239
1351.19 6.09311
1351.25 6.32189
1351.31 6.68471
1351.36 7.30489
1351.42 8.47695
1351.45 9.48037
1351.47 11.0024
1351.50 13.3862
1351.53 17.1382
1351.57 24.2169
1351.60 28.7279
1351.64 24.0005
1351.67 16.9628
1351.71 12.1275
1351.75 9.64125
1351.79 8.23287
1351.83 7.41880
1351.91 6.54406
1351.99 6.12046
1352.07 5.88448
1352.15 5.73936
1352.30 5.57598
1352.62 5.43498
1352.94 5.36999
1353.57 5.29676
1354.20 5.24287
1355.46 5.13793
1356.73 5.01420
1357.36 4.94046
1357.99 4.85731
1358.62 4.76652
1359.25 4.68066
1359.57 4.65314
1359.89 4.65735
1360.20 4.73655
1360.52 5.00171
1360.83 5.78409
1360.99 6.66936
1361.15 8.34568
1361.31 11.8267
1361.39 15.0241
1361.47 20.1962
1361.51 24.0704
1361.54 29.1174
1361.58 36.1890
1361.62 45.8339
1361.66 60.0495
1361.70 80.4840
1361.74 111.086
1361.78 156.903
1361.84 262.368
1361.90 344.920
1361.93 333.602
1361.96 291.748
1362.02 193.629
1362.08 126.964
1362.14 88.6540
1362.20 65.6789
1362.26 51.1460
1362.32 41.4533
1362.38 34.6851
1362.49 26.0931
1362.61 21.0283
1362.73 17.7731
1362.97 13.9393
1363.20 11.8174
1363.44 10.4989
1363.67 9.61179
1363.91 8.97947
1364.38 8.14566
1364.85 7.62519
1365.33 7.27139
1365.80 7.01590
1366.74 6.67157
1367.69 6.45017
1368.63 6.29490
1369.57 6.17929
1371.46 6.01721
1373.35 5.91036
1374.30 5.87397
1375.24 5.85879
1375.71 5.87395
1376.18 5.94691
1376.42 6.05578
1376.54 6.16176
1376.66 6.34519
1376.77 6.69898
1376.83 7.01137
1376.89 7.50781
1376.95 8.35988
1377.01 9.98235
1377.04 11.4121
1377.07 13.5261
1377.10 16.9940
1377.13 22.3427
1377.16 32.4232
1377.20 38.8947
1377.24 32.1413
1377.27 22.3512
1377.30 17.6024
1377.32 14.4018
1377.37 10.8166
1377.42 9.01066
1377.47 8.00259
1377.52 7.39009
1377.57 6.99239
1377.67 6.52620
1377.76 6.27414
1377.86 6.12240
1378.06 5.95549
1378.45 5.81717
1378.84 5.75823
1379.63 5.70067
1380.41 5.66695
1381.98 5.61881
1383.55 5.58014
1385.12 5.54694
1386.69 5.52235
1387.48 5.51979
1388.26 5.54359
1388.66 5.59027
1388.85 5.63940
1389.05 5.72919
1389.24 5.91411
1389.34 6.08785
1389.44 6.38201
1389.54 6.93594
1389.59 7.41497
1389.64 8.16125
1389.68 9.40758
1389.73 11.6857
1389.76 13.6185
1389.78 16.3440
1389.81 20.6196
1389.83 26.7889
1389.87 39.6959
1389.90 47.9305
1389.94 39.2948
1389.97 26.7761
1390.00 19.7944
1390.03 15.4221
1390.05 12.6635
1390.08 10.9135
1390.14 8.82514
1390.19 7.71900
1390.25 7.06993
1390.30 6.65869
1390.41 6.18802
1390.52 5.93765
1390.63 5.79088
1390.85 5.63163
1391.07 5.54997
1391.29 5.50169
1391.73 5.44659
1392.61 5.39121
1393.49 5.35560
1395.26 5.29389
1397.02 5.22640
1397.90 5.18683
1398.78 5.14159
1399.66 5.08932
1400.54 5.03040
1400.99 5.00062
1401.43 4.97538
1401.87 4.96543
1402.31 5.00121
1402.53 5.06115
1402.75 5.18112
1402.97 5.41903
1403.19 5.90850
1403.41 7.01328
1403.52 8.08490
1403.63 9.90470
1403.74 13.2412
1403.85 20.0419
1403.90 26.2190
1403.96 36.0526
1403.99 43.2913
1404.01 52.3412
1404.04 64.5420
1404.07 79.7097
1404.10 103.383
1404.13 131.460
1404.20 171.971
1404.23 166.451
1404.27 145.953
1404.33 97.8345
1404.38 74.6078
1404.42 58.5235
1404.50 39.0123
1404.59 28.4606
1404.67 22.3636
1404.76 18.4627
1404.84 15.8715
1405.01 12.6918
1405.18 10.8665
1405.35 9.71974
1405.68 8.40812
1406.02 7.72693
1406.36 7.41813
1406.53 7.43709
1406.61 7.53508
1406.69 7.75173
1406.78 8.21812
1406.82 8.63175
1406.86 9.27726
1406.91 10.3387
1406.95 12.2085
1406.99 15.7845
1407.01 18.7737
1407.03 23.0192
1407.07 32.9828
1407.10 39.3601
1407.14 32.6392
1407.17 22.9420
1407.19 18.3391
1407.21 15.3140
1407.26 11.7504
1407.30 9.90246
1407.35 8.84713
1407.39 8.19277
1407.43 7.75933
1407.52 7.23563
1407.61 6.93828
1407.70 6.74877
1407.87 6.51998
1408.23 6.28782
1408.58 6.15829
1409.28 5.99910
1409.99 5.89625
1411.40 5.76285
1412.81 5.67654
1414.22 5.61432
1415.63 5.56635
1418.45 5.49524
1421.27 5.44405
1424.09 5.40882
1425.50 5.40173
1426.91 5.41857
1427.61 5.45796
1427.97 5.50115
1428.32 5.58194
1428.67 5.75464
1428.85 5.92224
1429.02 6.21673
1429.20 6.80914
1429.29 7.35242
1429.38 8.25713
1429.47 9.92418
1429.51 11.3356
1429.55 13.4889
1429.60 16.9814
1429.64 23.0963
1429.69 34.7966
1429.71 44.6135
1429.73 58.6056
1429.77 90.7981
1429.80 111.366
1429.84 89.8529
1429.87 58.6113
1429.91 36.7299
1429.95 25.1048
1429.99 18.6733
1430.03 14.9323
1430.07 12.4874
1430.10 10.8898
1430.18 8.92826
1430.26 7.82828
1430.34 7.16761
1430.49 6.43747
1430.64 6.06284
1430.80 5.84774
1431.11 5.62042
1431.42 5.50789
1431.72 5.44347
1432.34 5.37456
1432.96 5.33839
1433.58 5.31558
1434.81 5.28629
1437.28 5.24942
1439.75 5.22115
1442.22 5.19617
1444.69 5.17446
1445.93 5.16678
1447.16 5.16762
1447.78 5.17945
1448.40 5.22253
1448.71 5.28481
1449.01 5.45334
1449.17 5.66815
1449.25 5.86353
1449.32 6.18583
1449.40 6.77087
1449.44 7.26605
1449.48 7.99015
1449.52 9.16977
1449.55 11.1171
1449.59 14.7666
1449.63 21.5369
1449.67 31.5237
1449.70 37.9242
1449.74 31.2291
1449.77 21.5479
1449.79 17.2875
1449.81 14.2832
1449.85 10.7386
1449.89 8.81267
1449.94 7.72923
1449.98 7.03974
1450.02 6.59638
1450.10 6.06670
1450.18 5.77295
1450.27 5.59741
1450.43 5.40334
1450.76 5.24719
1451.09 5.18573
1451.75 5.13521
1452.41 5.11248
1453.73 5.08716
1455.05 5.06936
1457.69 5.04088
1459.01 5.03885
1459.67 5.07984
1459.84 5.12275
1460.00 5.23042
1460.09 5.35620
1460.17 5.62155
1460.21 5.88761
1460.25 6.34132
1460.29 7.19874
1460.33 8.91263
1460.37 11.2404
1460.40 12.7857
1460.43 11.2424
1460.47 8.91447
1460.51 7.31905
1460.54 6.46623
1460.62 5.71564
1460.69 5.41253
1460.76 5.26717
1460.91 5.13517
1461.06 5.07924
1461.35 5.03187
1461.64 5.01137
1462.81 4.97874
1465.16 4.94155
1467.50 4.90458
1469.85 4.86327
1472.19 4.81547
1473.37 4.78886
1474.54 4.76138
1475.71 4.73723
1476.30 4.73108
1476.88 4.73709
1477.47 4.77626
1477.76 4.82733
1478.05 4.92980
1478.35 5.15635
1478.49 5.37997
1478.64 5.76954
1478.79 6.54323
1478.86 7.23849
1478.93 8.36996
1479.01 10.4192
1479.04 12.1038
1479.08 14.5152
1479.12 18.3437
1479.15 24.4206
1479.19 35.2296
1479.23 53.9249
1479.26 83.8792
1479.30 103.983
1479.34 83.8910
1479.37 53.9369
1479.40 38.9747
1479.43 29.4879
1479.45 22.9801
1479.48 18.7364
1479.53 13.5168
1479.59 10.6716
1479.64 8.97077
1479.69 7.87937
1479.80 6.61572
1479.90 5.94197
1480.01 5.54166
1480.22 5.11330
1480.43 4.90439
1480.65 4.79809
1481.07 4.76407
1481.49 5.00370
1481.70 5.33997
1481.92 6.01393
1482.13 7.48437
1482.23 8.87941
1482.34 11.1997
1482.45 15.3490
1482.55 23.5331
1482.60 30.7420
1482.66 41.8907
1482.71 59.6931
1482.76 87.6579
1482.83 144.604
1482.90 188.684
1482.97 159.316
1483.04 106.051
1483.09 77.1830
1483.14 58.2789
1483.19 45.6239
1483.24 36.9348
1483.35 26.2070
1483.45 20.2658
1483.55 16.5811
1483.65 14.1763
1483.86 11.2790
1484.06 9.64196
1484.27 8.61952
1484.68 7.44304
1485.09 6.79848
1485.50 6.39968
1485.90 6.13026
1486.31 5.93684
1487.13 5.67802
1487.95 5.51289
1488.77 5.39742
1489.59 5.31158
1491.22 5.19000
1492.86 5.10529
1496.14 4.98684
1499.41 4.89877
1502.68 4.82304
1505.96 4.75342
1507.60 4.72780
1508.41 4.74829
1508.62 4.78024
1508.82 4.86710
1508.93 4.97476
1509.03 5.21651
1509.08 5.46688
1509.13 5.93306
1509.18 6.91321
1509.21 7.83729
1509.23 9.20433
1509.27 11.8957
1509.30 13.6792
1509.33 11.8930
1509.37 9.19973
1509.40 7.38940
1509.44 6.42544
1509.48 5.86285
1509.51 5.53261
1509.58 5.17127
1509.65 4.99555
1509.79 4.83375
1509.93 4.76375
1510.22 4.70336
1510.50 4.67604
1511.63 4.62760
1513.88 4.56527
1518.40 4.43605
1520.66 4.36294
1522.91 4.28664
1524.04 4.25398
1525.17 4.24729
1525.74 4.28254
1526.02 4.33015
1526.30 4.42624
1526.58 4.63893
1526.72 4.84789
1526.87 5.21434
1527.01 5.93661
1527.08 6.59535
1527.15 7.65367
1527.22 9.56763
1527.25 11.1116
1527.29 13.3787
1527.32 16.9941
1527.36 22.7533
1527.39 32.6790
1527.43 50.2460
1527.47 78.3114
1527.50 96.3018
1527.54 77.4820
1527.57 50.2438
1527.59 37.6205
1527.62 28.9240
1527.66 18.9365
1527.71 13.6823
1527.75 10.7786
1527.80 8.95935
1527.84 7.79798
1527.93 6.42315
1528.03 5.66724
1528.12 5.21255
1528.30 4.71633
1528.48 4.46021
1528.66 4.30972
1529.02 4.14118
1529.39 4.04711
1529.75 3.98339
1530.48 3.89273
1531.93 3.75933
1533.38 3.66153
1534.10 3.64195
1534.83 3.67169
1535.56 3.80982
1536.28 4.20411
1537.01 5.28267
1537.37 6.45592
1537.73 8.61552
1538.10 12.9563
1538.28 16.8456
1538.46 22.9415
1538.64 33.1634
1538.82 51.3339
1539.00 86.4409
1539.10 116.132
1539.19 158.065
1539.34 265.962
1539.50 350.112
1539.66 296.113
1539.82 196.642
1539.94 138.485
1540.07 101.297
1540.20 77.0615
1540.33 60.9899
1540.59 41.7153
1540.84 31.1977
1541.10 24.7893
1541.36 20.5961
1541.87 15.5867
1542.38 12.7704
1542.90 11.0098
1543.92 8.96383
1544.95 7.83497
1545.98 7.14285
1546.49 6.91400
1546.75 6.83661
1547.00 6.80201
1547.26 6.85586
1547.39 6.95570
1547.52 7.16414
1547.65 7.61829
1547.71 8.03993
1547.77 8.73317
1547.84 9.96602
1547.90 12.4199
1547.93 14.6293
1547.97 18.1508
1548.00 24.0362
1548.03 34.0558
1548.07 50.8006
1548.10 61.9821
1548.14 50.7997
1548.17 34.0378
1548.21 23.2987
1548.24 17.4119
1548.27 13.9666
1548.31 11.8343
1548.34 10.4072
1548.38 9.46202
1548.44 8.28900
1548.51 7.60865
1548.58 7.18807
1548.72 6.70103
1548.85 6.43044
1548.99 6.25952
1549.26 6.04582
1549.54 5.90732
1549.81 5.80241
1550.36 5.63737
1551.45 5.37739
1552.54 5.15152
1553.63 4.93477
1554.18 4.82705
1554.73 4.72234
1555.27 4.63555
1555.55 4.61671
1555.82 4.64697
1556.09 4.81283
1556.23 5.02655
1556.37 5.44746
1556.50 6.35931
1556.57 7.21142
1556.64 8.61680
1556.71 11.1557
1556.78 16.0647
1556.81 20.3579
1556.84 26.9616
1556.88 37.4487
1556.91 54.2353
1556.93 70.2734
1556.96 88.3432
1557.00 113.538
1557.05 94.8870
1557.09 63.3651
1557.14 41.5247
1557.18 29.1732
1557.23 21.9814
1557.27 17.5298
1557.32 14.6082
1557.37 12.5925
1557.46 10.0643
1557.55 8.58971
1557.64 7.64633
1557.82 6.53744
1558.01 5.90953
1558.19 5.50897
1558.56 5.01220
1558.93 4.69885
1559.29 4.46858
1560.03 4.13080
1560.40 4.01524
1560.76 3.96270
1561.13 4.04211
1561.50 4.43915
1561.86 5.72268
1562.05 7.21618
1562.23 10.0624
1562.32 12.4752
1562.42 16.0685
1562.51 21.6356
1562.60 30.5845
1562.69 46.2904
1562.74 58.6572
1562.78 76.0828
1562.83 101.331
1562.87 138.967
1562.92 196.365
1562.97 281.687
1563.03 475.632
1563.10 624.506
1563.17 526.023
1563.24 348.346
1563.28 258.726
1563.33 197.651
1563.42 125.134
1563.51 87.0919
1563.60 65.0868
1563.69 51.1519
1563.78 41.9469
1563.96 30.7134
1564.14 24.2896
1564.32 20.2683
1564.68 15.5874
1565.04 13.0182
1565.40 11.4218
1565.76 10.3436
1566.12 9.57031
1566.85 8.53934
1567.57 7.88450
1568.29 7.43102
1569.01 7.09760
1570.45 6.63507
1571.90 6.32530
1574.78 5.92288
1577.67 5.65858
1580.56 5.45930
1586.33 5.14492
1592.11 4.85843
1597.88 4.52946
1600.77 4.32072
1603.66 4.05656
1605.10 3.89424
1606.54 3.70787
1607.27 3.60818
1607.99 3.51636
1608.35 3.48898
1608.71 3.51680
1608.89 3.60111
1609.07 3.85513
1609.16 4.17121
1609.25 4.87403
1609.30 5.58020
1609.34 6.84292
1609.39 9.32674
1609.41 11.5210
1609.43 14.5702
1609.47 21.4249
1609.50 25.7976
1609.54 21.2088
1609.57 14.5512
1609.59 11.4941
1609.61 9.45080
1609.66 6.94913
1609.70 5.64135
1609.74 4.89244
1609.83 4.12191
1609.91 3.75433
1610.09 3.41967
1610.26 3.26811
1610.60 3.12332
1610.94 3.05432
1611.63 3.04837
1612.32 3.33436
1612.66 3.72053
1613.01 4.44576
1613.35 5.82165
1613.52 6.94625
1613.69 8.54601
1613.87 10.9047
1614.04 14.4757
1614.21 20.1062
1614.38 29.4693
1614.55 46.1789
1614.64 59.6314
1614.73 78.9578
1614.81 107.628
1614.90 151.627
1614.98 221.169
1615.07 330.119
1615.19 558.208
1615.30 735.358
1615.42 621.636
1615.53 410.473
1615.65 267.003
1615.76 183.489
1615.88 133.777
1616.00 102.717
1616.11 81.8663
1616.23 67.4558
1616.46 49.0925
1616.69 38.2404
1616.92 31.3024
1617.38 23.1255
1617.85 18.5864
1618.31 15.7690
1618.77 13.8671
1619.23 12.5129
1620.16 10.7222
1621.08 9.60220
1622.01 8.83954
1622.93 8.28786
1624.78 7.54312
1626.63 7.06172
1628.48 6.72227
1630.33 6.46750
1634.03 6.10296
1637.73 5.84465
1641.43 5.64360
1643.28 5.56634
1643.75 5.55773
1644.21 5.57188
1644.44 5.60761
1644.67 5.71517
1644.79 5.85352
1644.90 6.17414
1644.96 6.51992
1645.02 7.18987
1645.05 7.77792
1645.07 8.69196
1645.10 10.1694
1645.13 12.4792
1645.17 16.7949
1645.20 19.5792
1645.24 16.6598
1645.27 12.4729
1645.30 10.0332
1645.33 8.56461
1645.36 7.66671
1645.39 7.10887
1645.45 6.45853
1645.51 6.12057
1645.63 5.79821
1645.74 5.65623
1645.98 5.53217
1646.22 5.47710
1646.69 5.42174
1647.17 5.38793
1649.06 5.29063
1652.85 5.11190
1654.75 5.01574
1656.64 4.91153
1657.59 4.85778
1658.54 4.81189
1659.01 4.80447
1659.48 4.84428
1659.72 4.92618
1659.96 5.16623
1660.08 5.47401
1660.14 5.74869
1660.20 6.19041
1660.25 6.95914
1660.31 8.45046
1660.34 9.78907
1660.37 11.8037
1660.40 15.1858
1660.43 20.5441
1660.47 30.2033
1660.50 36.3805
1660.54 29.9067
1660.57 20.5356
1660.59 16.2424
1660.61 13.3771
1660.66 9.87491
1660.70 8.04858
1660.74 7.02454
1660.78 6.37403
1660.83 5.94705
1660.91 5.44446
1661.00 5.16414
1661.08 4.99417
1661.25 4.80060
1661.59 4.62463
1661.94 4.53534
1662.62 4.42402
1663.30 4.35650
1663.98 4.38258
1664.33 4.50066
1664.67 4.81186
1665.01 5.62773
1665.18 6.49220
1665.35 8.03873
1665.52 11.0808
1665.61 13.7149
1665.69 17.7642
1665.78 24.3970
1665.86 35.6434
1665.95 56.1156
1666.03 94.7437
1666.12 158.527
1666.20 209.239
1666.28 177.884
1666.37 118.899
1666.42 92.0332
1666.47 72.8896
1666.57 48.9562
1666.67 35.7134
1666.77 27.7800
1666.87 22.6388
1666.97 19.1797
1667.17 14.8874
1667.37 12.3942
1667.57 10.8154
1667.97 8.96152
1668.37 7.92853
1668.77 7.27998
1669.57 6.51620
1670.38 6.07786
1671.18 5.78899
1672.78 5.41466
1674.38 5.16176
1675.99 4.95918
1679.19 4.59824
1680.80 4.41257
1682.40 4.21136
1684.00 3.98949
1685.60 3.75419
1686.41 3.64606
1687.21 3.57126
1688.01 3.58806
1688.81 3.85347
1689.21 4.20316
1689.61 4.85600
1690.01 6.08863
1690.41 8.51732
1690.61 10.6154
1690.81 13.7616
1691.01 18.6876
1691.21 26.8031
1691.42 41.1949
1691.52 52.5992
1691.62 68.7996
1691.72 92.4951
1691.82 128.215
1691.92 183.436
1692.02 269.090
1692.16 455.893
1692.30 602.534
1692.44 510.716
1692.59 339.331
1692.70 241.311
1692.81 177.200
1692.92 135.234
1693.04 106.917
1693.26 72.7865
1693.49 53.9960
1693.71 42.4701
1693.94 34.8975
1694.39 25.8196
1694.84 20.7002
1695.29 17.4978
1695.75 15.3277
1696.20 13.7801
1697.10 11.7335
1698.00 10.4560
1698.91 9.58900
1699.81 8.96499
1701.61 8.12753
1703.42 7.59380
1705.23 7.23409
1705.68 7.17142
1706.13 7.13776
1706.36 7.15272
1706.58 7.24349
1706.69 7.37666
1706.81 7.70133
1706.86 8.05742
1706.92 8.73438
1706.95 9.32275
1706.98 10.2272
1707.00 11.6681
1707.03 13.9841
1707.07 18.3112
1707.10 21.1002
1707.14 18.1676
1707.17 13.9631
1707.19 11.9093
1707.22 10.5381
1707.26 9.01717
1707.31 8.24408
1707.36 7.82400
1707.45 7.39605
1707.55 7.19461
1707.74 7.00962
1707.93 6.92220
1708.31 6.82756
1708.69 6.76676
1710.20 6.59828
1713.23 6.35866
1716.27 6.17932
1719.30 6.03699
1722.33 5.92078
1725.36 5.82840
1726.88 5.79673
1727.64 5.78952
1728.39 5.79551
1729.15 5.83345
1729.53 5.88143
1729.91 5.97621
1730.29 6.18448
1730.48 6.39059
1730.67 6.75372
1730.86 7.48779
1730.95 8.16817
1731.05 9.29259
1731.14 11.3969
1731.19 13.2150
1731.24 15.9509
1731.29 20.5345
1731.33 28.5100
1731.38 44.0100
1731.40 57.5620
1731.43 76.3270
1731.46 119.166
1731.50 147.909
1731.54 119.191
1731.57 76.3569
1731.60 54.3210
1731.63 40.1460
1731.66 30.9835
1731.69 24.8797
1731.74 17.6671
1731.80 13.8539
1731.85 11.5493
1731.91 10.0840
1732.02 8.41324
1732.13 7.51997
1732.24 6.99590
1732.36 6.65695
1732.47 6.42863
1732.69 6.14464
1732.91 5.98120
1733.36 5.80722
1733.80 5.71778
1734.25 5.66329
1735.14 5.59715
1736.92 5.52152
1738.70 5.46739
1742.27 5.37653
1744.05 5.34326
1744.50 5.34387
1744.94 5.36471
1745.16 5.40088
1745.39 5.50158
1745.50 5.62767
1745.61 5.91569
1745.67 6.22327
1745.72 6.79844
1745.78 8.07919
1745.80 9.31340
1745.83 11.2041
1745.87 14.8277
1745.90 17.1576
1745.94 14.7156
1745.97 11.2008
1746.00 9.19945
1746.03 8.00499
1746.08 6.76014
1746.14 6.18220
1746.20 5.88434
1746.31 5.59688
1746.42 5.46897
1746.65 5.35922
1746.87 5.31246
1747.32 5.26871
1747.77 5.24460
1749.58 5.18086
1751.38 5.12127
1753.19 5.05410
1754.99 4.97118
1755.90 4.91938
1756.80 4.85660
1757.70 4.77860
1758.15 4.73420
1758.60 4.69174
1759.06 4.67568
1759.28 4.70603
1759.51 4.81398
1759.73 5.13827
1759.85 5.50578
1759.96 6.19151
1760.07 7.61472
1760.13 8.92597
1760.18 10.9917
1760.24 14.5770
1760.30 21.0540
1760.33 26.3570
1760.35 34.0146
1760.38 45.2554
1760.41 61.7133
1760.43 80.0455
1760.46 101.783
1760.50 132.429
1760.52 128.311
1760.55 112.574
1760.59 76.3555
1760.63 55.4711
1760.66 42.0864
1760.70 33.2139
1760.73 27.1668
1760.80 19.7281
1760.87 15.6529
1760.94 13.1207
1761.01 11.4766
1761.16 9.48158
1761.30 8.35774
1761.44 7.65261
1761.58 7.17546
1761.72 6.83406
1762.00 6.38222
1762.28 6.09896
1762.85 5.76539
1763.41 5.57381
1763.97 5.44781
1765.10 5.28693
1766.23 5.18206
1767.36 5.10301
1769.61 4.97915
1771.87 4.87349
1774.12 4.77279
1775.25 4.72387
1776.38 4.68156
1776.94 4.67117
1777.50 4.69245
1777.79 4.74482
1778.07 4.90550
1778.21 5.11624
1778.35 5.62727
1778.42 6.20341
1778.49 7.36108
1778.53 8.42959
1778.56 10.1801
1778.60 13.2208
1778.63 18.6589
1778.67 27.1599
1778.70 32.8385
1778.74 27.1581
1778.77 18.6535
1778.79 14.7375
1778.82 12.1548
1778.86 9.05339
1778.91 7.46301
1778.95 6.56494
1779.04 5.65542
1779.13 5.23097
1779.31 4.85810
1779.49 4.70046
1779.85 4.56147
1780.21 4.49378
1780.93 4.41056
1781.64 4.34429
1783.08 4.21194
1784.52 4.05851
1785.95 3.87136
1786.67 3.76669
1787.39 3.66983
1787.75 3.63937
1788.11 3.64390
1788.47 3.72920
1788.82 4.01157
1789.18 4.83465
1789.36 5.76123
1789.54 7.49329
1789.72 11.0811
1789.81 14.3592
1789.90 19.5624
1789.99 28.5546
1790.04 35.5361
1790.08 45.2527
1790.13 59.1219
1790.17 79.4201
1790.22 109.703
1790.26 153.628
1790.33 257.584
1790.40 338.891
1790.44 327.587
1790.47 286.174
1790.54 189.337
1790.62 120.200
1790.69 81.9049
1790.76 59.6513
1790.84 45.8823
1790.91 36.7407
1790.99 30.5264
1791.13 22.7170
1791.28 18.1304
1791.43 15.2208
1791.73 11.8032
1792.02 9.90661
1792.32 8.72910
1792.62 7.93015
1792.91 7.35858
1793.51 6.59204
1794.10 6.10236
1795.29 5.50001
1796.47 5.12628
1797.66 4.85715
1798.85 4.65808
1799.14 4.63063
1799.44 4.64297
1799.59 4.69652
1799.74 4.85877
1799.81 5.05558
1799.88 5.47441
1799.92 5.87407
1799.96 6.54785
1799.99 7.76214
1800.03 10.0368
1800.07 13.4888
1800.10 15.7173
1800.14 13.3740
1800.17 10.0171
1800.20 8.16335
1800.23 7.00792
1800.28 5.80416
1800.34 5.25031
1800.39 4.95955
1800.50 4.66795
1800.62 4.53103
1800.84 4.39615
1801.06 4.32235
1801.95 4.14336
1803.73 3.85650
1805.51 3.57147
1807.29 3.29914
1808.19 3.19517
1809.08 3.15882
1809.97 3.28485
1810.86 3.81653
1811.30 4.42121
1811.75 5.48037
1812.19 7.38539
1812.42 8.89295
1812.64 10.9897
1812.86 13.9994
1813.08 18.4265
1813.31 25.1740
1813.53 35.8682
1813.75 53.9687
1813.97 86.5432
1814.09 113.126
1814.20 150.747
1814.31 205.153
1814.42 283.579
1814.61 483.487
1814.80 642.783
1814.99 546.931
1815.18 364.199
1815.35 250.736
1815.51 180.063
1815.68 135.158
1815.85 105.837
1816.18 71.2629
1816.51 52.5888
1816.85 41.3384
1817.18 33.9978
1817.84 25.2336
1818.51 20.3031
1819.18 17.2121
1819.84 15.1121
1820.51 13.6069
1821.84 11.6009
1823.17 10.3345
1824.50 9.47320
1825.17 9.18624
1825.33 9.16173
1825.50 9.21899
1825.58 9.33480
1825.67 9.62329
1825.71 9.92615
1825.75 10.4529
1825.79 11.4920
1825.83 13.5435
1825.87 16.4380
1825.90 18.2976
1825.94 16.3199
1825.97 13.4852
1826.01 11.4349
1826.05 10.3804
1826.13 9.47120
1826.21 9.10102
1826.29 8.90808
1826.44 8.70408
1826.60 8.58550
1827.24 8.29734
1828.50 7.89701
1829.13 7.73832
1829.77 7.63157
1830.08 7.63543
1830.24 7.67806
1830.40 7.78324
1830.56 8.03142
1830.64 8.27464
1830.71 8.68907
1830.79 9.45871
1830.83 10.1178
1830.87 11.0892
1830.91 12.6808
1830.95 15.3281
1830.99 20.3260
1831.03 29.6996
1831.07 43.2579
1831.10 52.3182
1831.14 43.2483
1831.17 29.6740
1831.19 23.2018
1831.22 18.8486
1831.27 13.9816
1831.31 11.5286
1831.36 10.1558
1831.41 9.31801
1831.45 8.77064
1831.55 8.12067
1831.64 7.75983
1831.74 7.53433
1831.92 7.26726
1832.30 6.99503
1832.68 6.82564
1833.43 6.55160
1834.18 6.27835
1834.93 5.97564
1835.31 5.82074
1835.69 5.69793
1836.06 5.73165
1836.25 5.93882
1836.44 6.49997
1836.63 7.96851
1836.72 9.50728
1836.81 12.2350
1836.91 17.4287
1836.95 21.8232
1837.00 28.3927
1837.05 38.5967
1837.07 46.0063
1837.10 55.1408
1837.12 67.5357
1837.14 83.0980
1837.17 104.446
1837.19 131.131
1837.22 173.109
1837.25 223.551
1837.30 297.868
1837.33 290.649
1837.36 256.152
1837.41 173.983
1837.46 126.021
1837.50 94.9644
1837.54 74.3125
1837.58 60.1921
1837.67 42.9158
1837.76 33.2123
1837.84 27.1594
1837.93 23.1932
1838.10 18.3655
1838.27 15.5940
1838.45 13.8452
1838.79 11.7792
1839.14 10.6192
1839.48 9.88201
1840.17 9.00141
1840.86 8.49599
1841.55 8.18306
1841.90 8.08983
1842.24 8.07939
1842.41 8.16004
1842.59 8.43469
1842.67 8.78290
1842.76 9.55339
1842.80 10.3184
1842.84 11.6648
1842.89 14.2492
1842.91 16.4820
1842.93 19.5242
1842.97 26.6765
1843.00 31.4684
1843.04 26.6627
1843.07 19.4944
1843.11 14.9199
1843.14 12.3626
1843.18 10.8879
1843.21 9.98465
1843.28 8.99789
1843.35 8.50792
1843.49 8.04031
1843.63 7.82826
1843.91 7.62541
1844.19 7.51851
1844.74 7.38517
1845.30 7.28998
1846.41 7.14340
1847.53 7.02762
1849.76 6.84686
1851.99 6.70732
1856.44 6.49771
1860.90 6.34171
1869.82 6.11273
1874.27 6.02385
1876.50 5.99311
1877.06 5.99464
1877.62 6.01685
1877.90 6.05463
1878.17 6.16053
1878.31 6.29657
1878.45 6.62074
1878.52 6.98399
1878.59 7.71087
1878.63 8.39214
1878.66 9.51510
1878.70 11.4816
1878.73 14.8965
1878.77 20.3810
1878.80 23.9084
1878.84 20.2127
1878.87 14.8943
1878.90 11.9488
1878.93 10.1115
1878.95 8.95509
1878.98 8.22262
1879.04 7.34942
1879.09 6.88720
1879.20 6.44142
1879.31 6.24550
1879.53 6.07890
1879.75 6.01097
1880.19 5.95343
1880.64 5.92726
1882.40 5.87947
1884.17 5.86145
1884.61 5.87139
1885.05 5.91328
1885.27 5.97490
1885.49 6.13719
1885.60 6.33732
1885.71 6.79077
1885.77 7.26704
1885.82 8.17075
1885.85 8.96547
1885.88 10.1336
1885.90 12.0470
1885.93 14.9780
1885.97 20.5955
1886.00 24.2097
1886.04 20.4282
1886.07 14.9818
1886.09 12.2244
1886.12 10.4718
1886.17 8.49752
1886.22 7.50684
1886.26 6.97432
1886.36 6.44110
1886.46 6.19796
1886.65 5.98878
1886.85 5.90232
1887.23 5.82962
1887.62 5.79692
1889.17 5.73604
1890.73 5.69006
1892.28 5.63903
1893.83 5.57520
1894.61 5.53571
1895.38 5.49031
1896.16 5.44397
1896.55 5.42939
1896.93 5.44045
1897.32 5.53601
1897.52 5.67288
1897.71 5.96331
1897.90 6.62872
1898.00 7.28360
1898.10 8.40396
1898.19 10.4726
1898.29 14.7197
1898.34 18.6481
1898.39 24.7986
1898.44 34.9783
1898.48 52.0624
1898.54 84.6531
1898.60 110.391
1898.66 94.3034
1898.72 64.1280
1898.78 43.2712
1898.83 31.2112
1898.89 24.0720
1898.95 19.6586
1899.01 16.6738
1899.07 14.6002
1899.19 11.9967
1899.30 10.4517
1899.42 9.46779
1899.66 8.30576
1899.89 7.65769
1900.12 7.25520
1900.36 6.98209
1900.59 6.78738
1901.06 6.52781
1901.53 6.36451
1902.47 6.17012
1903.41 6.05727
1904.35 5.98250
1906.22 5.88666
1908.10 5.82574
1909.98 5.78499
1910.92 5.77376
1911.86 5.77971
1912.32 5.80375
1912.79 5.88359
1913.03 5.99459
1913.26 6.28281
1913.38 6.63817
1913.44 6.95439
1913.50 7.45067
1913.56 8.32473
1913.61 9.98147
1913.64 11.4861
1913.67 13.7506
1913.70 17.3890
1913.73 23.2912
1913.77 33.8868
1913.80 40.6363
1913.84 33.5721
1913.87 23.0474
1913.89 18.5749
1913.91 15.4164
1913.95 11.6783
1914.00 9.63911
1914.04 8.48846
1914.08 7.75450
1914.12 7.28170
1914.20 6.71572
1914.28 6.40114
1914.37 6.21097
1914.53 6.00314
1914.86 5.83434
1915.19 5.76723
1915.85 5.71049
1916.52 5.68384
1917.84 5.65296
1919.16 5.63102
1924.45 5.56267
1927.09 5.53315
1929.74 5.50804
1931.06 5.50068
1932.38 5.50768
1933.05 5.53042
1933.71 5.60597
1934.04 5.71260
1934.20 5.81614
1934.37 5.99768
1934.53 6.36105
1934.62 6.69449
1934.70 7.23885
1934.78 8.24317
1934.82 9.07402
1934.86 10.3233
1934.91 12.3716
1934.95 15.7996
1934.99 22.1071
1935.03 34.2728
1935.06 51.5134
1935.10 62.9767
1935.14 51.4899
1935.17 34.2428
1935.20 26.1831
1935.22 20.6931
1935.27 14.4693
1935.32 11.2448
1935.36 9.47823
1935.41 8.37987
1935.46 7.68163
1935.55 6.85366
1935.65 6.40775
1935.74 6.14097
1935.93 5.85136
1936.12 5.70548
1936.31 5.62140
1936.69 5.53204
1937.45 5.45951
1938.21 5.42740
1939.73 5.39233
1941.25 5.36840
1942.77 5.34917
1944.29 5.33794
1945.05 5.34239
1945.81 5.37490
1946.19 5.42817
1946.57 5.57982
1946.76 5.77821
1946.86 5.96328
1946.95 6.27487
1947.05 6.85740
1947.09 7.36403
1947.14 8.13123
1947.19 9.42766
1947.24 11.7116
1947.28 16.2327
1947.31 20.2558
1947.33 25.9025
1947.37 38.4862
1947.40 46.5765
1947.44 38.1302
1947.47 25.9223
1947.50 19.6790
1947.52 15.7195
1947.55 13.0824
1947.57 11.2826
1947.62 9.10124
1947.67 7.90234
1947.72 7.17030
1947.77 6.70976
1947.87 6.17368
1947.97 5.88401
1948.07 5.71302
1948.28 5.52621
1948.68 5.37622
1949.08 5.31566
1949.88 5.26163
1950.69 5.23285
1952.29 5.19247
1953.90 5.15718
1957.12 5.08914
1957.92 5.07668
1958.72 5.07820
1959.13 5.09832
1959.53 5.17089
1959.73 5.27329
1959.93 5.53895
1960.03 5.86002
1960.13 6.57102
1960.18 7.29933
1960.23 8.64049
1960.26 9.75921
1960.28 11.4143
1960.31 13.9268
1960.33 17.7443
1960.37 25.4921
1960.40 30.4525
1960.44 25.2588
1960.47 17.7456
1960.50 13.3344
1960.53 10.7364
1960.56 9.07594
1960.59 8.04465
1960.65 6.84421
1960.70 6.23025
1960.82 5.63945
1960.94 5.38207
1961.17 5.16366
1961.41 5.07356
1961.88 4.99411
1962.35 4.95440
1963.29 4.90321
1964.23 4.86143
1966.10 4.78222
1967.98 4.71154
1968.92 4.69029
1969.86 4.69624
1970.80 4.76498
1971.74 4.98629
1972.67 5.62433
1973.14 6.33487
1973.61 7.65547
1974.08 10.3413
1974.32 12.7542
1974.55 16.5510
1974.79 22.9214
1975.02 34.2698
1975.26 56.3263
1975.37 74.7927
1975.49 101.151
1975.70 169.033
1975.90 223.034
1976.11 189.865
1976.31 127.338
1976.52 84.2579
1976.73 59.1849
1976.93 44.2631
1977.14 34.9093
1977.35 28.6546
1977.55 24.3136
1977.96 18.7890
1978.38 15.5294
1978.79 13.4305
1979.62 10.9501
1980.44 9.56878
1981.27 8.70706
1982.10 8.12428
1982.92 7.70687
1984.57 7.15322
1986.23 6.80834
1987.05 6.68508
1987.88 6.59486
1988.29 6.57254
1988.70 6.59792
1988.91 6.66744
1989.12 6.87360
1989.22 7.13515
1989.32 7.72577
1989.38 8.34504
1989.43 9.47226
1989.45 10.4370
1989.48 11.8796
1989.51 14.0978
1989.53 17.3553
1989.57 23.9829
1989.60 28.4167
1989.64 23.9599
1989.67 17.3218
1989.71 12.5811
1989.75 10.2199
1989.79 8.91443
1989.83 8.17129
1989.91 7.38354
1989.99 7.00899
1990.16 6.66706
1990.32 6.51934
1990.64 6.38645
1990.96 6.32133
1991.61 6.24529
1992.25 6.19277
1993.54 6.11183
1994.84 6.04745
1997.42 5.95213
1998.71 5.92370
2000.00 5.92532
2000.73 5.96562
2001.10 6.01582
2001.46 6.11414
2001.83 6.32935
2002.01 6.54076
2002.19 6.91114
2002.38 7.65425
2002.47 8.33278
2002.56 9.45627
2002.65 11.5387
2002.70 13.2965
2002.74 15.8968
2002.79 20.1598
2002.83 27.3329
2002.88 41.0232
2002.92 67.3315
2002.96 104.482
2003.00 129.349
2003.04 104.538
2003.08 67.4015
2003.12 40.6772
2003.17 27.3812
2003.21 20.1973
2003.26 15.9973
2003.31 13.3175
2003.35 11.5848
2003.44 9.50940
2003.53 8.35681
2003.62 7.66640
2003.80 6.90618
2003.98 6.51698
2004.16 6.29287
2004.52 6.05398
2004.88 5.93418
2005.25 5.86384
2005.97 5.78486
2007.41 5.70926
2008.86 5.66588
2011.74 5.60900
2013.19 5.60405
2013.55 5.61850
2013.91 5.66722
2014.09 5.73424
2014.27 5.90318
2014.36 6.10411
2014.45 6.53770
2014.50 6.96971
2014.54 7.74021
2014.59 9.25669
2014.61 10.6002
2014.63 12.4749
2014.67 16.7244
2014.70 19.4623
2014.74 16.5935
2014.77 12.4727
2014.79 10.3905
2014.82 9.06849
2014.87 7.58072
2014.92 6.83475
2014.96 6.43395
2015.06 6.03279
2015.16 5.85128
2015.35 5.69368
2015.54 5.62849
2015.93 5.57376
2016.32 5.54956
2017.86 5.50758
2020.95 5.45812
2024.04 5.41683
2025.59 5.40796
2026.36 5.44332
2026.55 5.48353
2026.75 5.58775
2026.84 5.71313
2026.94 5.98844
2026.99 6.27544
2027.04 6.79115
2027.08 7.84219
2027.11 8.77978
2027.13 10.1849
2027.17 13.0400
2027.20 14.9296
2027.24 12.9502
2027.27 10.1140
2027.31 8.00472
2027.35 6.98126
2027.43 6.12087
2027.52 5.79427
2027.60 5.63918
2027.76 5.50152
2027.93 5.44417
2028.59 5.37593
2029.90 5.35034
2030.56 5.35417
2031.22 5.38758
2031.54 5.44211
2031.87 5.59560
2032.04 5.79470
2032.20 6.28078
2032.28 6.83638
2032.37 8.00959
2032.41 9.14168
2032.45 11.0891
2032.49 14.7166
2032.53 21.8239
2032.57 31.6592
2032.60 38.1854
2032.64 31.6886
2032.67 21.8599
2032.71 14.9945
2032.75 11.3734
2032.79 9.38108
2032.83 8.22643
2032.90 6.97178
2032.98 6.37437
2033.14 5.83693
2033.29 5.61160
2033.60 5.42779
2033.91 5.35405
2034.53 5.29078
2035.15 5.26000
2036.39 5.22139
2037.62 5.19003
2040.10 5.12656
2042.58 5.05125
2043.81 5.00600
2045.05 4.95380
2046.29 4.89327
2047.53 4.82515
2048.15 4.79100
2048.77 4.76237
2049.39 4.75201
2050.00 4.79512
2050.31 4.86497
2050.62 5.00300
2050.93 5.27424
2051.24 5.82193
2051.55 7.02732
2051.71 8.17499
2051.86 10.0649
2052.02 13.4351
2052.17 19.9695
2052.25 25.6527
2052.33 34.1435
2052.40 47.2901
2052.48 67.7158
2052.59 112.379
2052.70 148.158
2052.81 126.789
2052.92 85.7291
2053.01 62.5089
2053.09 47.1956
2053.18 37.1008
2053.26 30.3168
2053.43 22.0136
2053.61 17.3872
2053.78 14.5340
2053.95 12.6630
2054.29 10.4035
2054.63 9.12171
2054.98 8.31709
2055.32 7.77069
2055.66 7.37860
2056.34 6.85736
2057.03 6.52968
2057.71 6.30556
2058.40 6.14289
2059.77 5.92121
2061.14 5.77608
2063.88 5.59253
2066.61 5.47589
2069.35 5.39310
2070.72 5.36274
2072.09 5.34657
2072.78 5.35291
2073.46 5.39382
2073.80 5.45713
2074.15 5.62902
2074.32 5.84696
2074.40 6.04812
2074.49 6.37782
2074.57 6.99003
2074.62 7.50821
2074.66 8.27606
2074.70 9.54391
2074.75 11.7619
2074.79 16.0019
2074.81 19.4575
2074.83 24.3386
2074.87 35.7693
2074.90 43.3674
2074.94 35.6532
2074.97 24.1946
2075.00 18.3849
2075.02 14.7330
2075.05 12.2407
2075.07 10.6271
2075.12 8.65330
2075.17 7.58547
2075.23 6.95121
2075.28 6.54677
2075.38 6.08620
2075.58 5.70033
2075.78 5.55757
2076.19 5.48134
2076.60 5.52583
2077.01 5.70217
2077.21 5.89212
2077.41 6.23529
2077.62 6.93978
2077.72 7.59903
2077.82 8.69803
2077.92 10.7749
2077.97 12.5643
2078.02 15.2736
2078.07 19.8378
2078.12 28.0916
2078.15 35.0097
2078.18 44.6742
2078.20 58.9049
2078.23 79.8038
2078.26 125.188
2078.30 154.401
2078.34 124.062
2078.38 79.9837
2078.41 54.5098
2078.44 38.9621
2078.47 29.3588
2078.50 23.3403
2078.57 16.2180
2078.63 12.5796
2078.69 10.4372
2078.76 9.11340
2078.88 7.60577
2079.01 6.80898
2079.14 6.34371
2079.26 6.04403
2079.39 5.84218
2079.64 5.59035
2079.90 5.44543
2080.40 5.28883
2080.91 5.20597
2081.41 5.15338
2082.43 5.08464
2084.45 4.99128
2086.48 4.90621
2088.50 4.81019
2089.52 4.75387
2090.53 4.68977
2091.54 4.61832
2092.05 4.58385
2092.56 4.56117
2093.06 4.58539
2093.32 4.65113
2093.57 4.81439
2093.82 5.22746
2093.95 5.66051
2094.07 6.42864
2094.20 7.93769
2094.26 9.24196
2094.33 11.2500
2094.39 14.5686
2094.45 20.2179
2094.52 30.6195
2094.58 50.5467
2094.64 82.2565
2094.70 106.928
2094.76 90.7511
2094.82 61.1639
2094.87 43.4676
2094.92 32.4710
2094.97 25.3141
2095.02 20.6745
2095.12 15.1286
2095.22 12.1469
2095.32 10.3285
2095.43 9.14423
2095.63 7.73783
2095.83 6.94566
2096.03 6.45100
2096.43 5.87049
2096.84 5.54265
2097.24 5.32957
2098.04 5.05885
2098.85 4.87997
2099.66 4.73970
2101.27 4.50239
2102.07 4.39253
2102.88 4.29085
2103.69 4.21388
2104.49 4.21467
2105.30 4.47227
2105.70 4.87151
2106.10 5.73279
2106.51 7.70197
2106.71 9.62201
2106.91 12.8322
2107.11 18.6190
2107.31 29.8830
2107.41 39.7038
2107.51 54.4562
2107.61 77.6487
2107.71 113.514
2107.86 193.181
2108.00 257.850
2108.14 221.605
2108.29 149.753
2108.43 101.287
2108.56 72.1478
2108.70 54.3605
2108.84 43.0216
2108.98 35.3093
2109.11 29.8754
2109.39 22.9211
2109.67 18.7501
2109.94 16.0485
2110.49 12.8202
2111.04 10.9998
2111.59 9.85305
2112.14 9.07219
2112.69 8.51047
2113.80 7.75808
2114.90 7.28085
2116.00 6.95154
2117.10 6.71047
2119.30 6.37983
2121.50 6.16192
2125.91 5.88626
2130.32 5.71182
2134.72 5.58525
2139.13 5.48692
2141.33 5.45718
2141.88 5.46201
2142.43 5.49405
2142.71 5.54522
2142.98 5.68598
2143.12 5.86455
2143.26 6.28632
2143.32 6.75488
2143.39 7.70265
2143.43 8.59073
2143.46 9.99938
2143.50 12.4154
2143.53 16.6683
2143.57 23.4684
2143.60 28.0187
2143.64 23.4768
2143.67 16.6779
2143.71 11.8910
2143.75 9.46617
2143.79 8.13408
2143.83 7.34624
2143.91 6.50858
2143.98 6.11129
2144.14 5.75464
2144.30 5.60502
2144.61 5.48213
2144.93 5.43190
2145.55 5.38718
2146.18 5.36439
2147.43 5.33647
2148.69 5.31926
2149.94 5.31591
2151.20 5.35438
2151.82 5.42861
2152.14 5.50715
2152.45 5.65088
2152.76 5.95046
2152.92 6.23507
2153.08 6.71884
2153.23 7.65131
2153.31 8.48024
2153.39 9.78181
2153.47 12.0517
2153.55 16.3395
2153.59 20.0494
2153.63 25.7403
2153.67 34.7920
2153.70 49.3239
2153.75 75.9875
2153.80 93.8334
2153.85 75.9686
2153.90 49.2998
2153.93 35.9655
2153.97 27.4408
2154.00 21.6495
2154.03 17.8425
2154.10 13.1889
2154.17 10.6550
2154.24 9.14142
2154.31 8.17083
2154.45 7.05355
2154.59 6.45244
2154.72 6.09705
2155.00 5.71006
2155.27 5.51432
2155.55 5.40026
2156.10 5.27568
2157.20 5.16474
2158.30 5.10487
2160.50 5.01575
2162.70 4.92571
2164.90 4.81337
2166.00 4.74099
2167.10 4.65032
2167.65 4.59530
2168.20 4.53197
2168.75 4.45941
2169.30 4.38032
2169.57 4.34301
2169.85 4.31564
2170.12 4.31655
2170.40 4.39502
2170.67 4.70340
2170.81 5.08715
2170.95 5.84057
2171.09 7.47330
2171.16 9.00969
2171.22 11.4917
2171.29 15.8997
2171.33 19.4524
2171.36 24.3364
2171.40 31.6592
2171.43 42.3114
2171.47 58.5410
2171.50 83.3103
2171.53 109.616
2171.55 139.746
2171.60 183.632
2171.63 177.751
2171.65 156.002
2171.70 105.031
2171.76 65.5516
2171.82 44.4504
2171.88 32.6698
2171.94 25.5719
2172.00 20.9917
2172.06 17.8657
2172.17 14.0035
2172.29 11.7418
2172.41 10.3011
2172.64 8.61641
2172.88 7.67687
2173.11 7.09069
2173.35 6.69003
2173.59 6.40171
2174.06 6.01142
2174.53 5.75783
2175.47 5.43822
2176.41 5.23114
2177.35 5.07160
2179.24 4.79774
2180.18 4.65752
2181.12 4.50170
2182.06 4.31932
2183.00 4.09827
2183.47 3.97037
2183.95 3.83359
2184.42 3.70080
2184.89 3.61820
2185.12 3.63795
2185.36 3.75765
2185.59 4.09080
2185.83 4.90458
2186.07 6.96154
2186.18 9.09648
2186.30 12.8399
2186.36 15.8290
2186.42 20.0584
2186.48 26.2238
2186.54 35.3440
2186.59 49.9091
2186.65 73.9932
2186.71 115.795
2186.77 188.312
2186.84 319.966
2186.90 426.053
2186.97 364.220
2187.03 243.673
2187.08 178.342
2187.13 134.120
2187.17 104.304
2187.22 84.0721
2187.32 58.6790
2187.41 44.2615
2187.51 35.3039
2187.60 29.3409
2187.79 22.0884
2187.98 17.9422
2188.17 15.3387
2188.36 13.5681
2188.55 12.2972
2188.93 10.6080
2189.31 9.55285
2189.69 8.83345
2190.07 8.31612
2190.84 7.62154
2191.60 7.17835
2192.36 6.87099
2193.12 6.64493
2194.64 6.33324
2196.16 6.12659
2199.21 5.86427
2202.25 5.69881
2205.29 5.58018
2211.38 5.40996
2217.47 5.28041
2223.55 5.16601
2226.60 5.11074
2229.64 5.05784
2231.16 5.03587
2232.69 5.02884
2233.45 5.04628
2234.21 5.12222
2234.59 5.23717
2234.78 5.35136
2234.97 5.55451
2235.16 5.96428
2235.25 6.34431
2235.35 6.98138
2235.44 8.16628
2235.49 9.19213
2235.54 10.7392
2235.59 13.3394
2235.63 17.8867
2235.68 27.0671
2235.71 35.0551
2235.73 46.1920
2235.76 70.8716
2235.80 87.2771
2235.84 70.8103
2235.87 46.1144
2235.91 30.5976
2235.94 21.9547
2235.98 16.8382
2236.01 13.6487
2236.08 10.1191
2236.15 8.34181
2236.21 7.33219
2236.28 6.70671
2236.42 6.00628
2236.55 5.64225
2236.69 5.43185
2236.96 5.20820
2237.24 5.09751
2237.51 5.03557
2238.05 4.97711
2238.60 4.97144
2239.14 5.04753
2239.41 5.17794
2239.55 5.30850
2239.69 5.53901
2239.82 5.99437
2239.89 6.40568
2239.96 7.07441
2240.03 8.26037
2240.09 10.6367
2240.13 12.8015
2240.16 16.3008
2240.20 22.2685
2240.23 32.7770
2240.27 49.8225
2240.30 60.8889
2240.34 49.9106
2240.37 32.8856
2240.41 20.6445
2240.46 14.4034
2240.50 11.1176
2240.54 9.26527
2240.58 8.08540
2240.63 7.31032
2240.71 6.39955
2240.80 5.89516
2240.88 5.59324
2241.05 5.25917
2241.22 5.08559
2241.40 4.98279
2241.74 4.86824
2242.42 4.76114
2243.10 4.69956
2244.47 4.60131
2245.83 4.49603
2247.20 4.36058
2247.88 4.27414
2248.56 4.17210
2248.91 4.11640
2249.25 4.06250
2249.59 4.02251
2249.93 4.03285
2250.10 4.08750
2250.27 4.21618
2250.44 4.49312
2250.61 5.08665
2250.78 6.46552
2250.87 7.81666
2250.95 10.1195
2251.04 14.4073
2251.08 17.9568
2251.12 23.0293
2251.17 30.9084
2251.21 43.0352
2251.25 63.3335
2251.29 96.0954
2251.32 126.323
2251.35 162.481
2251.40 214.581
2251.43 208.188
2251.45 182.320
2251.51 122.404
2251.54 92.2945
2251.58 71.7327
2251.65 47.0289
2251.72 33.7568
2251.79 26.1382
2251.86 21.2585
2251.93 18.0238
2252.07 14.0221
2252.21 11.7290
2252.35 10.2760
2252.63 8.58160
2252.92 7.63885
2253.20 7.05044
2253.48 6.64869
2253.76 6.35968
2254.32 5.96944
2254.89 5.71870
2256.01 5.41023
2257.14 5.22129
2258.27 5.08785
2260.52 4.89661
2262.77 4.74864
2265.03 4.61554
2267.28 4.48837
2268.41 4.44580
2268.69 4.45458
2268.97 4.50598
2269.11 4.58342
2269.25 4.78040
2269.32 5.00698
2269.39 5.46720
2269.46 6.59988
2269.50 7.83265
2269.53 10.0545
2269.57 13.5390
2269.60 15.7743
2269.64 13.4315
2269.67 10.0493
2269.70 7.82239
2269.74 6.58438
2269.81 5.45123
2269.88 4.98032
2269.95 4.74448
2270.09 4.52396
2270.22 4.42585
2270.50 4.33435
2270.78 4.28684
2271.88 4.17480
2274.10 3.97874
2276.31 3.74967
2278.52 3.46929
2279.63 3.30767
2280.73 3.13736
2281.84 2.97843
2282.95 2.89874
2283.50 2.94882
2284.05 3.14224
2284.61 3.63363
2285.16 4.79096
2285.44 5.88389
2285.71 7.62043
2285.99 10.5043
2286.26 15.5139
2286.40 19.4643
2286.54 24.9526
2286.68 32.8375
2286.82 44.5392
2286.96 62.7387
2287.09 91.8411
2287.23 140.572
2287.37 223.441
2287.54 382.007
2287.70 510.671
2287.87 436.961
2288.03 292.121
2288.17 202.269
2288.32 145.749
2288.46 109.951
2288.61 86.3777
2288.89 58.6039
2289.18 43.5911
2289.47 34.4823
2289.76 28.5257
2290.33 21.3955
2290.91 17.3694
2291.48 14.8386
2292.06 13.1145
2292.63 11.8763
2293.79 10.2217
2294.94 9.17089
2296.09 8.44201
2297.24 7.90211
2299.54 7.13053
2301.84 6.55490
2302.99 6.29369
2303.57 6.16943
2304.14 6.06330
2304.72 6.02640
2305.01 6.08925
2305.29 6.30158
2305.58 6.90200
2305.73 7.54975
2305.87 8.70764
2306.01 10.9663
2306.16 15.8597
2306.23 20.5330
2306.30 28.3097
2306.37 41.9114
2306.44 65.8268
2306.52 109.336
2306.60 144.108
2306.68 123.723
2306.76 84.4862
2306.82 60.4419
2306.89 45.3457
2306.96 35.6424
2307.02 29.1787
2307.16 21.4325
2307.29 17.2266
2307.42 14.6485
2307.55 12.9662
2307.82 10.9325
2308.08 9.77034
2308.35 9.03349
2308.87 8.15456
2309.40 7.64890
2309.93 7.31666
2310.99 6.89467
2312.05 6.62329
2313.11 6.42179
2315.22 6.10946
2317.34 5.82922
2318.40 5.67698
2319.46 5.50019
2320.51 5.27920
2321.04 5.14484
2321.57 4.99582
2321.84 4.92205
2322.10 4.86165
2322.37 4.84232
2322.63 4.94028
2322.90 5.39316
2323.03 5.96874
2323.16 7.11208
2323.29 9.57887
2323.36 11.8523
2323.42 15.5235
2323.49 21.7937
2323.52 26.6254
2323.56 33.2892
2323.59 42.6794
2323.62 56.1880
2323.66 75.9162
2323.69 104.663
2323.72 137.887
2323.74 177.901
2323.80 238.348
2323.83 232.658
2323.86 205.314
2323.91 138.852
2323.96 100.838
2324.00 76.1840
2324.04 59.4475
2324.09 48.2929
2324.17 34.4917
2324.26 26.7606
2324.35 21.9913
2324.43 18.8276
2324.61 15.0016
2324.78 12.8048
2324.95 11.4193
2325.13 10.4673
2325.30 9.78451
2325.65 8.86698
2326.00 8.28770
2326.34 7.88909
2326.69 7.59819
2327.39 7.20068
2328.08 6.94076
2329.47 6.61536
2330.86 6.41378
2332.24 6.27222
2335.02 6.07734
2337.80 5.94168
2340.58 5.83790
2341.96 5.79615
2343.35 5.76706
2344.05 5.76616
2344.74 5.80070
2345.09 5.86369
2345.44 6.04637
2345.61 6.28594
2345.70 6.50847
2345.78 6.87527
2345.87 7.55909
2345.91 8.14720
2345.96 9.02485
2346.00 10.4846
2346.04 12.9851
2346.09 17.7426
2346.11 21.8277
2346.13 27.5905
2346.17 40.8166
2346.20 49.5390
2346.24 40.8207
2346.27 27.5942
2346.31 18.3788
2346.35 13.6433
2346.39 11.0364
2346.43 9.49289
2346.47 8.49662
2346.51 7.85081
2346.58 7.07193
2346.66 6.63569
2346.74 6.37342
2346.90 6.08122
2347.21 5.84297
2347.53 5.74724
2348.15 5.66493
2348.78 5.62525
2350.03 5.57870
2351.29 5.54839
2352.54 5.53309
2353.80 5.55845
2354.42 5.62400
2354.74 5.69660
2355.05 5.83188
2355.36 6.11694
2355.52 6.38897
2355.68 6.85215
2355.83 7.74537
2355.91 8.53901
2355.99 9.78395
2356.07 11.9512
2356.15 16.0322
2356.19 19.5511
2356.23 24.9298
2356.26 33.4442
2356.30 47.0321
2356.35 72.3971
2356.40 88.8848
2356.45 71.8436
2356.50 47.0294
2356.55 29.6812
2356.61 20.5818
2356.66 15.5905
2356.71 12.6864
2356.77 10.8117
2356.82 9.56260
2356.93 8.07252
2357.04 7.23999
2357.14 6.73740
2357.36 6.18026
2357.57 5.89226
2357.79 5.72410
2358.21 5.54033
2359.07 5.38148
2359.93 5.30154
2361.65 5.19229
2363.36 5.08867
2365.08 4.96564
2365.94 4.89235
2366.80 4.81265
2367.66 4.74513
2368.08 4.74150
2368.51 4.80881
2368.94 5.08672
2369.16 5.43459
2369.37 6.11878
2369.59 7.58771
2369.69 8.94833
2369.80 11.1572
2369.91 15.0108
2370.02 22.1356
2370.07 28.1135
2370.12 36.6766
2370.18 49.6465
2370.23 68.5375
2370.32 114.577
2370.40 151.298
2370.49 129.722
2370.57 88.1541
2370.63 66.1164
2370.69 51.1910
2370.75 40.7980
2370.81 33.6508
2370.93 24.6243
2371.05 19.4883
2371.18 16.2472
2371.30 14.0823
2371.54 11.4485
2371.78 9.93617
2372.02 8.98157
2372.50 7.85964
2372.99 7.23449
2373.47 6.84022
2373.95 6.56990
2374.44 6.37307
2375.40 6.10463
2376.37 5.92824
2378.30 5.70438
2380.23 5.56195
2382.16 5.46298
2383.13 5.43120
2384.10 5.43125
2384.58 5.47027
2385.06 5.61247
2385.30 5.81478
2385.42 6.00991
2385.54 6.34327
2385.67 6.99051
2385.73 7.55761
2385.79 8.45783
2385.85 10.0362
2385.91 13.0102
2385.94 15.5836
2385.97 19.5311
2386.00 25.8101
2386.03 36.1022
2386.06 54.4638
2386.10 66.9294
2386.14 54.4762
2386.17 36.1155
2386.20 26.6299
2386.23 20.5664
2386.26 16.4735
2386.28 13.8336
2386.34 10.6312
2386.39 8.90838
2386.45 7.88723
2386.50 7.23574
2386.61 6.48506
2386.72 6.08581
2386.83 5.84803
2387.05 5.58983
2387.49 5.37731
2387.93 5.28646
2388.81 5.19575
2389.69 5.13932
2391.44 5.04904
2393.20 4.96335
2394.96 4.87484
2396.71 4.78829
2397.59 4.75888
2398.47 4.78221
2398.91 4.86889
2399.13 4.96980
2399.35 5.16113
2399.57 5.56862
2399.68 5.95804
2399.79 6.61689
2399.90 7.88055
2399.95 8.98421
2400.01 10.7195
2400.06 13.6538
2400.12 19.1153
2400.15 23.8219
2400.17 30.6031
2400.20 40.9452
2400.23 56.9687
2400.26 88.3522
2400.30 109.514
2400.34 88.3728
2400.37 56.9891
2400.40 42.4085
2400.42 32.5405
2400.47 20.9015
2400.52 15.0367
2400.57 11.7649
2400.62 9.77853
2400.67 8.48968
2400.76 6.99106
2400.86 6.17084
2400.96 5.67762
2401.16 5.13715
2401.35 4.85501
2401.55 4.68609
2401.94 4.49071
2402.33 4.37748
2402.72 4.30232
2403.50 4.23381
2404.28 4.35871
2404.67 4.61250
2405.07 5.19510
2405.46 6.57527
2405.65 7.94575
2405.85 10.2633
2406.04 14.4904
2406.24 22.8254
2406.34 30.1739
2406.43 41.3134
2406.53 59.0274
2406.63 86.7537
2406.76 147.134
2406.90 196.917
2407.04 170.023
2407.17 115.368
2407.30 78.2457
2407.44 56.1184
2407.57 42.5135
2407.70 33.8581
2407.83 27.9748
2407.96 23.8584
2408.22 18.5459
2408.49 15.3677
2408.75 13.2982
2409.28 10.8232
2409.80 9.41999
2410.33 8.53138
2411.38 7.47532
2412.43 6.86850
2413.48 6.46825
2415.58 5.94634
2417.68 5.57284
2418.73 5.39844
2419.79 5.21380
2420.84 5.00306
2421.36 4.88410
2421.89 4.76226
2422.15 4.70860
2422.41 4.67436
2422.68 4.69001
2422.94 4.83430
2423.20 5.34744
2423.33 5.96252
2423.46 7.13996
2423.60 9.62072
2423.66 11.8974
2423.73 15.4868
2423.79 21.6670
2423.83 26.4206
2423.86 32.7390
2423.89 41.8668
2423.92 54.9840
2423.96 74.1139
2423.99 100.917
2424.02 132.581
2424.05 170.441
2424.10 225.312
2424.13 219.078
2424.16 192.461
2424.21 130.031
2424.26 88.1408
2424.32 63.3156
2424.37 48.0286
2424.42 38.1640
2424.53 26.6846
2424.63 20.6414
2424.73 16.9951
2424.84 14.6495
2425.05 11.8369
2425.26 10.2577
2425.47 9.26385
2425.67 8.58733
2425.88 8.10161
2426.30 7.44718
2426.72 7.02996
2427.55 6.52303
2428.39 6.22016
2429.22 6.01236
2430.89 5.73006
2432.56 5.52929
2434.23 5.36330
2437.57 5.05948
2439.24 4.89931
2440.91 4.72096
2442.58 4.51343
2444.25 4.26525
2445.09 4.12436
2445.93 3.97743
2446.76 3.84201
2447.60 3.77688
2448.01 3.82244
2448.43 3.99102
2448.85 4.41491
2449.27 5.40173
2449.68 7.79721
2449.89 10.2143
2450.10 14.3694
2450.21 17.6263
2450.31 22.1072
2450.41 28.5573
2450.52 37.9436
2450.62 52.3646
2450.73 74.9329
2450.83 111.771
2450.94 172.553
2451.07 295.634
2451.20 395.499
2451.33 339.393
2451.47 228.413
2451.60 149.344
2451.74 103.873
2451.88 76.6995
2452.01 59.7505
2452.15 48.3978
2452.28 40.5364
2452.56 30.5018
2452.83 24.5621
2453.10 20.7228
2453.65 16.1601
2454.20 13.6019
2454.74 11.9926
2455.29 10.8976
2455.83 10.1102
2456.92 9.05580
2458.02 8.38737
2459.11 7.92616
2460.20 7.58935
2462.38 7.12881
2464.57 6.82839
2466.75 6.62197
2467.84 6.56765
2468.11 6.57863
2468.39 6.63946
2468.52 6.72961
2468.66 6.95428
2468.73 7.20703
2468.80 7.72107
2468.86 8.96839
2468.90 10.3054
2468.93 12.7079
2468.97 16.5002
2469.00 18.9595
2469.03 16.4986
2469.07 12.7026
2469.10 10.5102
2469.13 9.17157
2469.19 7.86780
2469.25 7.29527
2469.31 7.00037
2469.44 6.72160
2469.56 6.59681
2469.80 6.48568
2470.05 6.43365
2471.02 6.33982
2472.98 6.23420
2476.88 6.08102
2480.79 5.96463
2484.70 5.87071
2488.61 5.79204
2492.51 5.72495
2496.42 5.67161
2498.38 5.66928
2498.87 5.68706
2499.35 5.74562
2499.60 5.82663
2499.84 6.03793
2499.96 6.29610
2500.09 6.89173
2500.15 7.52791
2500.21 8.76201
2500.24 9.87115
2500.27 11.5474
2500.30 14.3723
2500.33 18.9825
2500.37 27.0698
2500.40 32.3626
2500.44 27.0689
2500.47 18.9809
2500.49 15.3685
2500.52 12.9142
2500.56 10.0034
2500.60 8.48823
2500.65 7.62456
2500.74 6.74395
2500.82 6.33208
2501.00 5.97228
2501.18 5.82577
2501.53 5.70846
2501.88 5.66330
2502.59 5.63022
2503.29 5.62519
2504.00 5.64416
2504.70 5.72331
2505.06 5.83772
2505.41 6.14379
2505.59 6.52900
2505.68 6.87637
2505.76 7.44418
2505.85 8.46145
2505.90 9.29816
2505.94 10.5382
2505.98 12.4710
2506.03 15.6695
2506.07 21.3082
2506.12 31.5911
2506.16 47.4499
2506.20 57.6912
2506.24 46.9849
2506.29 31.5017
2506.31 24.7075
2506.34 20.0891
2506.39 14.3897
2506.44 11.3737
2506.49 9.63626
2506.54 8.55854
2506.59 7.84891
2506.69 7.00679
2506.80 6.54736
2506.90 6.27018
2507.10 5.96700
2507.51 5.72421
2507.92 5.62940
2508.73 5.55199
2509.55 5.51775
2511.18 5.48105
2512.81 5.45715
2514.44 5.43908
2516.07 5.42965
2516.88 5.43446
2517.70 5.46441
2518.11 5.51220
2518.51 5.64656
2518.72 5.82251
2518.92 6.26534
2519.02 6.78921
2519.13 7.94964
2519.18 9.13255
2519.23 11.3005
2519.25 13.1428
2519.28 15.7507
2519.30 19.6535
2519.33 25.5495
2519.36 37.6343
2519.40 45.7626
2519.44 37.6525
2519.47 25.5718
2519.50 20.0615
2519.52 16.1581
2519.57 11.7449
2519.61 9.50087
2519.66 8.24138
2519.76 6.96591
2519.85 6.38480
2520.04 5.88121
2520.23 5.67759
2520.60 5.51579
2520.98 5.45474
2521.74 5.41152
2522.49 5.40639
2523.25 5.43300
2524.00 5.53915
2524.38 5.69213
2524.57 5.84140
2524.75 6.10109
2524.94 6.61621
2525.04 7.08092
2525.13 7.84008
2525.23 9.21769
2525.27 10.3409
2525.32 12.0028
2525.37 14.5867
2525.41 18.8451
2525.46 26.3037
2525.51 39.7766
2525.55 60.4282
2525.60 74.2093
2525.65 60.5632
2525.69 39.9454
2525.74 25.6362
2525.79 18.0784
2525.85 13.9138
2525.90 11.4856
2525.95 9.91262
2526.00 8.88009
2526.10 7.61858
2526.20 6.91846
2526.30 6.49110
2526.50 6.01841
2526.70 5.77626
2526.91 5.63534
2527.31 5.48485
2528.12 5.36397
2528.93 5.31330
2530.54 5.26418
2532.16 5.23644
2533.78 5.21946
2535.39 5.22211
2536.20 5.24756
2537.01 5.33903
2537.41 5.47148
2537.62 5.60215
2537.82 5.83408
2538.02 6.30218
2538.12 6.73733
2538.22 7.46911
2538.32 8.83717
2538.37 10.0272
2538.42 11.8341
2538.48 14.8911
2538.53 20.3070
2538.55 24.9343
2538.58 31.4296
2538.60 41.0519
2538.63 55.4221
2538.66 85.5366
2538.70 105.772
2538.74 85.5541
2538.77 55.4433
2538.80 42.5058
2538.82 33.0778
2538.87 21.9000
2538.91 16.0927
2538.96 12.8446
2539.00 10.7932
2539.05 9.45251
2539.14 7.88565
2539.23 7.02522
2539.32 6.51363
2539.50 5.95434
2539.69 5.67003
2539.87 5.50709
2540.23 5.33425
2540.96 5.19737
2541.69 5.14038
2543.16 5.08410
2544.62 5.04887
2547.54 4.99158
2550.46 4.93638
2556.30 4.81546
2562.14 4.66776
2567.98 4.47433
2573.82 4.19833
2576.74 4.00480
2579.66 3.74438
2581.12 3.57385
2581.85 3.47443
2582.58 3.36474
2583.31 3.25076
2583.68 3.20211
2584.04 3.18054
2584.41 3.24881
2584.59 3.37813
2584.77 3.66989
2584.96 4.36695
2585.05 5.06250
2585.14 6.26794
2585.23 8.56672
2585.32 13.3844
2585.37 17.9834
2585.41 25.4081
2585.44 31.0588
2585.46 38.6114
2585.48 48.7549
2585.50 61.5955
2585.53 80.4413
2585.55 101.734
2585.60 131.723
2585.63 126.764
2585.65 110.751
2585.70 73.9440
2585.73 54.4461
2585.77 41.5344
2585.80 32.5051
2585.84 26.4185
2585.90 18.7445
2585.97 14.3984
2586.04 11.7080
2586.11 9.92386
2586.25 7.76368
2586.39 6.53832
2586.53 5.76372
2586.80 4.85322
2587.08 4.33162
2587.35 3.98984
2587.90 3.54660
2589.00 3.01520
2590.11 2.66506
2590.66 2.56100
2591.21 2.55754
2591.76 2.76938
2592.31 3.48774
2592.59 4.25470
2592.86 5.55087
2593.14 7.81851
2593.41 11.9528
2593.55 15.3148
2593.69 20.1469
2593.83 27.3081
2593.96 38.2277
2594.10 55.9096
2594.24 85.9437
2594.38 139.892
2594.52 238.741
2594.66 410.204
2594.80 548.952
2594.94 470.738
2595.09 315.999
2595.18 239.672
2595.27 185.350
2595.46 119.860
2595.64 84.5659
2595.83 63.9441
2596.01 50.7680
2596.20 41.9082
2596.57 30.9583
2596.94 24.6166
2597.31 20.5745
2598.05 15.8190
2598.79 13.1561
2599.53 11.4762
2600.28 10.3231
2601.02 9.48244
2602.50 8.33114
2603.98 7.56566
2605.47 7.00091
2606.95 6.54669
2609.91 5.77530
2611.40 5.39015
2612.88 4.95933
2613.62 4.71254
2614.36 4.43718
2615.10 4.12951
2615.84 3.80463
2616.22 3.65738
2616.59 3.55851
2616.96 3.58818
2617.33 3.95319
2617.70 5.27175
2617.88 6.82937
2617.98 8.07244
2618.07 9.78816
2618.16 12.2538
2618.25 15.8492
2618.35 21.2501
2618.44 29.5547
2618.53 43.2073
2618.62 66.3564
2618.72 108.799
2618.76 142.029
2618.81 187.251
2618.91 325.200
2619.00 439.652
2619.05 430.853
2619.10 381.040
2619.19 258.876
2619.29 171.077
2619.39 119.687
2619.49 88.9735
2619.58 69.5543
2619.68 56.5768
2619.78 47.4821
2619.97 35.9014
2620.17 28.9547
2620.37 24.4573
2620.76 19.0520
2621.15 15.9851
2621.54 14.0452
2621.93 12.7148
2622.32 11.7498
2623.10 10.4465
2623.89 9.61064
2624.67 9.02766
2625.45 8.59672
2627.02 7.99820
2628.58 7.59797
2631.71 7.08442
2634.84 6.75675
2637.97 6.52140
2639.53 6.42760
2641.10 6.35503
2641.88 6.33823
2642.66 6.36962
2643.05 6.44703
2643.45 6.68669
2643.64 7.00908
2643.74 7.31219
2643.84 7.81781
2643.93 8.77290
2643.98 9.59443
2644.03 10.8670
2644.08 12.9746
2644.13 16.7790
2644.16 19.9660
2644.18 24.4070
2644.20 30.9413
2644.23 40.9762
2644.26 61.8954
2644.30 75.7873
2644.34 61.8865
2644.37 40.9627
2644.41 27.0703
2644.45 19.4994
2644.49 15.2383
2644.52 12.6776
2644.56 11.0413
2644.60 9.94007
2644.68 8.60420
2644.75 7.85926
2644.83 7.40294
2644.98 6.89841
2645.13 6.63612
2645.28 6.48327
2645.59 6.31729
2646.19 6.18247
2646.80 6.13499
2647.40 6.14305
2647.71 6.18128
2648.01 6.26996
2648.31 6.47733
2648.47 6.68562
2648.62 7.05079
2648.77 7.77770
2648.84 8.43643
2648.92 9.49297
2649.00 11.3932
2649.03 12.9446
2649.07 15.2253
2649.11 18.7407
2649.15 24.4638
2649.19 34.3174
2649.22 51.4247
2649.26 78.5877
2649.30 97.0174
2649.34 78.5992
2649.38 51.4349
2649.41 37.2184
2649.44 28.1930
2649.47 22.3197
2649.49 18.3859
2649.55 13.7110
2649.61 11.1908
2649.67 9.67442
2649.73 8.72525
2649.84 7.62811
2649.96 7.03833
2650.08 6.68918
2650.31 6.30545
2650.54 6.10439
2650.77 5.98170
2651.24 5.83464
2652.17 5.66568
2653.10 5.53586
2654.03 5.41883
2654.50 5.37926
2654.96 5.38962
2655.43 5.56066
2655.66 5.81223
2655.89 6.33984
2656.13 7.52592
2656.24 8.65545
2656.36 10.5242
2656.47 13.8474
2656.59 20.1376
2656.65 25.4586
2656.71 33.3535
2656.76 45.3092
2656.82 63.4261
2656.91 105.803
2657.00 140.682
2657.09 121.730
2657.18 83.3368
2657.28 54.2476
2657.38 38.2811
2657.48 29.0239
2657.58 23.3937
2657.68 19.6686
2657.78 17.1228
2657.97 13.8985
2658.17 12.0044
2658.37 10.7844
2658.77 9.33851
2659.17 8.52340
2659.57 8.00815
2659.96 7.65524
2660.36 7.39962
2661.16 7.05254
2661.95 6.82787
2663.54 6.55012
2665.13 6.38030
2666.72 6.26195
2669.90 6.09940
2673.09 5.98523
2676.27 5.89609
2679.45 5.83158
2680.24 5.82769
2681.04 5.84936
2681.44 5.89333
2681.83 6.02448
2682.03 6.19933
2682.23 6.64126
2682.33 7.16718
2682.43 8.31520
2682.48 9.48983
2682.53 11.5755
2682.55 13.3214
2682.58 15.8767
2682.60 19.7020
2682.63 25.1719
2682.66 36.8329
2682.70 44.6518
2682.74 36.8617
2682.77 25.2069
2682.80 19.5496
2682.82 15.7824
2682.85 13.2629
2682.87 11.5386
2682.92 9.41319
2682.97 8.27150
2683.07 7.13151
2683.18 6.61369
2683.38 6.17170
2683.58 5.99313
2683.98 5.84955
2684.39 5.79325
2685.19 5.75001
2686.00 5.74346
2686.81 5.77438
2687.21 5.81874
2687.61 5.90845
2688.01 6.10772
2688.22 6.30575
2688.42 6.65560
2688.62 7.36434
2688.72 8.02256
2688.82 9.11337
2688.92 11.1596
2688.97 12.9314
2689.02 15.6088
2689.07 20.1066
2689.12 27.9890
2689.17 43.4486
2689.20 56.7399
2689.22 76.1708
2689.26 119.071
2689.30 146.800
2689.34 119.091
2689.38 76.1940
2689.42 49.2159
2689.45 34.0579
2689.49 25.0971
2689.53 19.7719
2689.57 16.2395
2689.61 13.9062
2689.68 11.0378
2689.76 9.40170
2689.84 8.40779
2689.99 7.29201
2690.14 6.71784
2690.30 6.38347
2690.60 6.02745
2690.91 5.84892
2691.21 5.74521
2691.83 5.63005
2693.05 5.52057
2694.28 5.45418
2696.73 5.34162
2699.18 5.21416
2701.63 5.03964
2702.85 4.91877
2704.07 4.75890
2704.69 4.65722
2705.30 4.53601
2705.91 4.39048
2706.52 4.22058
2706.83 4.13133
2707.14 4.05161
2707.44 4.00927
2707.75 4.08300
2708.06 4.52182
2708.21 5.11080
2708.36 6.30954
2708.51 8.91829
2708.59 11.3839
2708.67 15.3476
2708.71 18.3579
2708.74 22.2761
2708.78 27.5909
2708.82 34.9508
2708.86 45.6979
2708.90 60.9174
2708.94 83.2905
2708.97 116.119
2709.04 199.560
2709.10 267.509
2709.13 261.344
2709.16 230.432
2709.23 156.310
2709.30 98.1505
2709.38 66.6641
2709.45 48.9088
2709.52 38.1209
2709.60 31.1083
2709.67 26.2904
2709.82 20.2809
2709.97 16.7334
2710.11 14.4661
2710.41 11.7644
2710.70 10.2464
2711.00 9.28680
2711.29 8.62963
2711.59 8.15266
2712.18 7.50564
2712.77 7.08566
2713.36 6.78607
2713.95 6.55648
2715.13 6.20839
2715.72 6.06320
2716.31 5.92846
2716.90 5.81207
2717.20 5.77735
2717.49 5.79293
2717.79 5.95498
2717.93 6.18040
2718.08 6.63513
2718.23 7.62131
2718.30 8.53709
2718.38 9.98966
2718.45 12.4878
2718.52 17.0367
2718.60 25.9918
2718.64 33.6124
2718.67 44.2441
2718.74 72.7953
2718.80 95.9691
2718.87 83.2912
2718.93 57.9179
2718.97 45.5739
2719.01 36.6875
2719.09 25.8760
2719.17 19.9645
2719.25 16.4423
2719.34 14.1587
2719.42 12.6247
2719.58 10.7131
2719.74 9.59237
2719.90 8.87669
2720.23 8.02183
2720.55 7.53700
2720.88 7.22645
2721.53 6.85121
2722.18 6.63046
2722.83 6.48306
2724.13 6.29564
2725.43 6.18312
2726.73 6.12701
2727.38 6.13675
2728.03 6.23236
2728.35 6.38797
2728.52 6.54489
2728.68 6.82188
2728.84 7.37932
2728.92 7.88708
2729.00 8.72440
2729.08 10.2420
2729.12 11.5231
2729.16 13.3950
2729.21 16.4320
2729.25 21.4334
2729.29 30.7486
2729.33 48.4389
2729.36 73.6502
2729.40 90.9648
2729.44 73.6848
2729.47 48.4797
2729.51 30.7819
2729.56 21.4570
2729.60 16.3532
2729.64 13.4024
2729.68 11.4862
2729.72 10.2111
2729.80 8.69522
2729.88 7.84631
2729.96 7.33575
2730.13 6.76760
2730.29 6.47641
2730.45 6.30639
2730.78 6.12311
2731.43 5.97114
2732.08 5.90287
2733.38 5.82948
2734.69 5.78206
2737.29 5.71065
2739.90 5.65195
2745.12 5.55236
2747.72 5.52240
2748.37 5.53031
2749.03 5.57414
2749.35 5.64299
2749.68 5.83481
2749.84 6.08130
2750.00 6.68433
2750.09 7.37834
2750.17 8.82302
2750.21 10.2311
2750.25 12.5797
2750.29 17.0356
2750.33 25.6221
2750.37 37.8471
2750.40 45.8620
2750.44 37.8778
2750.47 25.6596
2750.49 20.0006
2750.52 16.2158
2750.56 11.8179
2750.61 9.57610
2750.66 8.31539
2750.75 7.03569
2750.84 6.45118
2751.03 5.94234
2751.21 5.73390
2751.58 5.56536
2751.95 5.49710
2752.69 5.43597
2753.43 5.40365
2756.39 5.32034
2759.34 5.24129
2762.30 5.14980
2765.26 5.03555
2768.22 4.88237
2769.70 4.78249
2771.17 4.66079
2772.65 4.52490
2773.02 4.50436
2773.39 4.52755
2773.58 4.59691
2773.76 4.80948
2773.85 5.07887
2773.95 5.67715
2773.99 6.28172
2774.04 7.36931
2774.08 9.52937
2774.11 11.4073
2774.13 14.2672
2774.17 20.2113
2774.20 24.2882
2774.24 20.2128
2774.27 14.2597
2774.29 11.4905
2774.31 9.63962
2774.36 7.45776
2774.40 6.30782
2774.45 5.67007
2774.54 5.00792
2774.62 4.69405
2774.80 4.39924
2774.98 4.25631
2775.33 4.09322
2775.69 3.97484
2776.39 3.75559
2777.10 3.53088
2777.46 3.42708
2777.81 3.35508
2778.17 3.37067
2778.52 3.62273
2778.87 4.56119
2779.05 5.69372
2779.23 7.88165
2779.32 9.73196
2779.40 12.4272
2779.49 16.5754
2779.58 23.0725
2779.67 34.0290
2779.76 53.2409
2779.80 68.8261
2779.85 90.2008
2779.89 120.388
2779.94 162.826
2780.02 281.309
2780.10 378.279
2780.14 369.254
2780.18 325.829
2780.27 220.221
2780.36 140.727
2780.45 96.6305
2780.54 71.0255
2780.63 55.1564
2780.72 44.7002
2780.81 37.4481
2780.99 28.2752
2781.17 22.8399
2781.35 19.3532
2781.71 15.2060
2782.07 12.8705
2782.43 11.4025
2782.79 10.3988
2783.15 9.67682
2783.87 8.70880
2784.59 8.09384
2785.31 7.66992
2786.03 7.36067
2787.47 6.93839
2788.92 6.66331
2790.36 6.46863
2791.80 6.32285
2794.68 6.11638
2797.56 5.97462
2800.45 5.87276
2801.89 5.84962
2802.61 5.90820
2802.79 5.97657
2802.97 6.15245
2803.06 6.35960
2803.15 6.80977
2803.20 7.25715
2803.24 8.05217
2803.29 9.60776
2803.33 12.9331
2803.37 17.1919
2803.40 20.0854
2803.44 17.1892
2803.47 12.9283
2803.50 10.7615
2803.52 9.32206
2803.57 7.77944
2803.62 7.02625
2803.68 6.62746
2803.78 6.23358
2803.88 6.05680
2804.09 5.90338
2804.29 5.83895
2805.11 5.75481
2806.75 5.69768
2810.03 5.62030
2816.60 5.48597
2819.88 5.41903
2823.16 5.34818
2826.45 5.27484
2828.09 5.26260
2828.50 5.28430
2828.91 5.36257
2829.11 5.47277
2829.32 5.75763
2829.42 6.10049
2829.52 6.85634
2829.58 7.64696
2829.63 9.07801
2829.68 12.0271
2829.70 14.7544
2829.73 18.7662
2829.77 27.0037
2829.80 32.3159
2829.84 26.9696
2829.87 18.7214
2829.90 14.3318
2829.93 11.5045
2829.96 9.73169
2829.99 8.61159
2830.04 7.26684
2830.10 6.57387
2830.22 5.90688
2830.33 5.61197
2830.56 5.36255
2830.79 5.25940
2831.25 5.16932
2831.71 5.12464
2832.63 5.06756
2833.55 5.02267
2834.47 4.98650
2835.39 4.98195
2835.85 5.02709
2836.31 5.20558
2836.54 5.46613
2836.65 5.71862
2836.77 6.15419
2836.88 6.98978
2836.94 7.73096
2837.00 8.88037
2837.05 10.8687
2837.11 14.5266
2837.14 17.6808
2837.17 22.2380
2837.20 29.5159
2837.22 40.4688
2837.26 61.8810
2837.30 76.2792
2837.34 61.9446
2837.38 40.5423
2837.40 30.2133
2837.43 23.1098
2837.46 18.4016
2837.48 15.3028
2837.54 11.4537
2837.59 9.33408
2837.64 8.05725
2837.69 7.23264
2837.80 6.26952
2837.91 5.74869
2838.01 5.43332
2838.22 5.08013
2838.65 4.76619
2839.07 4.60482
2839.92 4.37761
2840.77 4.15438
2841.19 4.03022
2841.62 3.89854
2842.04 3.76996
2842.47 3.68565
2842.68 3.69774
2842.89 3.79889
2843.10 4.08751
2843.31 4.79740
2843.53 6.56283
2843.63 8.36145
2843.74 11.4827
2843.79 13.9083
2843.84 17.2748
2843.90 22.0639
2843.95 29.0754
2844.00 39.6836
2844.06 56.3123
2844.11 83.2232
2844.16 127.165
2844.23 219.023
2844.30 294.093
2844.34 287.614
2844.37 253.917
2844.44 172.454
2844.50 122.068
2844.56 90.1800
2844.61 69.5155
2844.67 55.6609
2844.79 38.9273
2844.91 29.7858
2845.02 24.1480
2845.14 20.4604
2845.37 15.9903
2845.60 13.4342
2845.84 11.8150
2846.07 10.7094
2846.30 9.91481
2846.77 8.84791
2847.23 8.17360
2847.70 7.70998
2848.16 7.37217
2849.09 6.91230
2850.02 6.61322
2850.95 6.40107
2851.88 6.24143
2853.75 6.01187
2855.61 5.85014
2856.54 5.78728
2857.47 5.74415
2857.93 5.74342
2858.40 5.79619
2858.63 5.89023
2858.86 6.15221
2858.98 6.48218
2859.10 7.23939
2859.16 8.04233
2859.21 9.58101
2859.24 10.9179
2859.27 12.9770
2859.30 16.2700
2859.33 21.8040
2859.37 31.5613
2859.40 38.0428
2859.44 31.5528
2859.47 21.7898
2859.50 15.6970
2859.54 12.2130
2859.57 10.1775
2859.61 8.92096
2859.67 7.54279
2859.74 6.86086
2859.88 6.22518
2860.01 5.94885
2860.28 5.71232
2860.55 5.60938
2861.09 5.50607
2861.63 5.44161
2862.71 5.33505
2863.80 5.22659
2864.88 5.10906
2865.42 5.05464
2865.96 5.02636
2866.50 5.09861
2866.77 5.24703
2867.04 5.59413
2867.31 6.43507
2867.44 7.27527
2867.58 8.71672
2867.71 11.3605
2867.85 16.6760
2867.92 21.4449
2867.98 28.7389
2868.05 40.5877
2868.12 59.3993
2868.21 99.4397
2868.30 132.029
2868.39 114.156
2868.48 78.3547
2868.58 50.7886
2868.69 35.7566
2868.79 27.0876
2868.89 21.8308
2868.99 18.3614
2869.10 15.9930
2869.30 13.0088
2869.51 11.2471
2869.71 10.1181
2870.12 8.77419
2870.53 8.01835
2870.94 7.54307
2871.35 7.21900
2871.76 6.98574
2872.57 6.67873
2873.39 6.50878
2873.80 6.47894
2874.21 6.54090
2874.42 6.67617
2874.62 7.05863
2874.72 7.53507
2874.83 8.59954
2874.88 9.69277
2874.93 11.7068
2874.95 13.4261
2874.98 15.8707
2875.00 19.7333
2875.03 25.5155
2875.07 37.2034
2875.10 44.8530
2875.14 37.1975
2875.17 25.5024
2875.19 20.2788
2875.22 16.7291
2875.26 12.4516
2875.31 10.2516
2875.35 9.02861
2875.44 7.75451
2875.53 7.16526
2875.71 6.64333
2875.89 6.42393
2876.24 6.23676
2876.60 6.15893
2876.96 6.12772
2877.32 6.15215
2877.49 6.21795
2877.67 6.40677
2877.76 6.63834
2877.85 7.14185
2877.90 7.65015
2877.94 8.53138
2877.99 10.2888
2878.03 13.9048
2878.07 18.6466
2878.10 21.8473
2878.14 18.6509
2878.17 13.9065
2878.21 10.5117
2878.25 8.74776
2878.29 7.80405
2878.33 7.25600
2878.42 6.68681
2878.50 6.41722
2878.66 6.17184
2878.82 6.06610
2879.15 5.97149
2879.48 5.92580
2880.78 5.83956
2883.40 5.74973
2884.71 5.72061
2886.01 5.70781
2886.67 5.71890
2887.32 5.77529
2887.65 5.86195
2887.98 6.10091
2888.14 6.40776
2888.30 7.15123
2888.38 8.00244
2888.47 9.76418
2888.51 11.4714
2888.55 14.3964
2888.59 19.8155
2888.63 30.2942
2888.66 44.9459
2888.70 55.0261
2888.74 44.9691
2888.77 30.3219
2888.80 22.4617
2888.83 17.5769
2888.85 14.3202
2888.88 12.2397
2888.94 9.74001
2888.99 8.42595
2889.05 7.63419
2889.10 7.13932
2889.21 6.56400
2889.43 6.07815
2889.64 5.88258
2890.08 5.72604
2890.52 5.66288
2891.39 5.60684
2892.26 5.57789
2895.75 5.51326
2899.24 5.47873
2900.11 5.48353
2900.98 5.51817
2901.42 5.57479
2901.85 5.73646
2902.07 5.94939
2902.29 6.48851
2902.40 7.13005
2902.45 7.69408
2902.51 8.56169
2902.56 10.0513
2902.62 12.7585
2902.65 15.1215
2902.67 18.5257
2902.70 23.7162
2902.73 31.7200
2902.76 47.4940
2902.80 58.1101
2902.84 47.5387
2902.87 31.7752
2902.91 22.1994
2902.94 16.5073
2902.98 13.1520
2903.01 11.0687
2903.08 8.77310
2903.15 7.62198
2903.22 6.96968
2903.29 6.56613
2903.43 6.11685
2903.71 5.74551
2903.99 5.59973
2904.55 5.48355
2905.11 5.43616
2906.23 5.39201
2907.34 5.36696
2911.81 5.29822
2916.28 5.23390
2920.75 5.16166
2925.22 5.07111
2927.45 5.01274
2929.69 4.93863
2931.92 4.83736
2933.04 4.77015
2934.16 4.68667
2935.27 4.58507
2935.83 4.53284
2936.39 4.49712
2936.95 4.53697
2937.23 4.64632
2937.51 4.91895
2937.79 5.60710
2937.93 6.31485
2938.07 7.54211
2938.21 9.85747
2938.35 14.6034
2938.42 18.9581
2938.49 25.8893
2938.56 37.3250
2938.63 56.0670
2938.71 94.0678
2938.80 125.003
2938.89 108.066
2938.98 74.1161
2939.03 57.0565
2939.09 44.9645
2939.21 30.4939
2939.32 22.7490
2939.44 18.1987
2939.55 15.2852
2939.67 13.3335
2939.90 10.9194
2940.13 9.51737
2940.36 8.62598
2940.82 7.57115
2941.28 6.98009
2941.74 6.60637
2942.20 6.35001
2942.66 6.16355
2943.59 5.91021
2944.51 5.74518
2946.35 5.53984
2948.20 5.41499
2950.04 5.33744
2950.96 5.32169
2951.88 5.35069
2952.34 5.41971
2952.81 5.63070
2953.04 5.91451
2953.15 6.18145
2953.27 6.63572
2953.38 7.49903
2953.44 8.26175
2953.50 9.44346
2953.55 11.4900
2953.61 15.2722
2953.64 18.5548
2953.67 23.5451
2953.70 31.3893
2953.73 43.7464
2953.76 66.4751
2953.80 82.0366
2953.84 66.2440
2953.87 43.4585
2953.91 28.5827
2953.95 20.4593
2953.98 15.6448
2954.02 12.7850
2954.06 10.8840
2954.09 9.62963
2954.16 8.08703
2954.24 7.20675
2954.31 6.67283
2954.45 6.07432
2954.60 5.76604
2954.75 5.58921
2955.04 5.40407
2955.62 5.27188
2956.20 5.25162
2956.78 5.31622
2957.07 5.40636
2957.36 5.58312
2957.65 5.96658
2957.80 6.33703
2957.94 6.98035
2958.09 8.24688
2958.16 9.38615
2958.23 11.2013
2958.30 14.4414
2958.38 20.7683
2958.41 26.6370
2958.45 35.7838
2958.49 51.0817
2958.52 77.8486
2958.56 121.909
2958.60 151.110
2958.64 122.207
2958.68 78.2189
2958.72 48.7701
2958.76 33.0575
2958.80 24.1702
2958.84 18.8077
2958.88 15.3700
2958.93 13.0507
2959.01 10.2294
2959.09 8.63713
2959.17 7.67437
2959.34 6.60278
2959.50 6.04743
2959.67 5.72465
2959.99 5.37639
2960.32 5.19686
2960.65 5.08810
2961.31 4.95816
2962.62 4.80707
2963.94 4.68151
2965.25 4.53569
2965.91 4.44440
2966.57 4.33406
2967.23 4.20199
2967.55 4.13445
2967.88 4.08743
2968.21 4.13329
2968.38 4.26571
2968.54 4.59748
2968.70 5.43861
2968.79 6.29768
2968.87 7.79629
2968.95 10.5967
2968.99 12.9277
2969.03 16.3619
2969.07 21.6002
2969.11 29.8991
2969.14 36.0120
2969.16 43.5164
2969.18 53.6956
2969.20 66.1220
2969.22 86.8393
2969.25 111.808
2969.30 149.666
2969.33 146.266
2969.35 129.347
2969.40 88.0064
2969.46 57.2887
2969.52 40.2962
2969.57 30.2442
2969.63 24.1257
2969.69 20.0211
2969.74 17.2253
2969.86 13.6763
2969.97 11.5601
2970.08 10.1943
2970.31 8.57516
2970.53 7.65876
2970.76 7.08100
2971.21 6.39441
2971.66 6.00147
2972.11 5.74476
2973.01 5.42102
2973.91 5.21361
2974.82 5.05787
2976.62 4.80773
2978.42 4.57541
2979.33 4.45822
2980.23 4.35206
2981.13 4.31334
2981.58 4.38269
2982.03 4.62390
2982.48 5.31682
2982.71 6.07223
2982.93 7.43097
2983.16 10.0711
2983.38 15.6933
2983.50 20.9927
2983.61 29.5478
2983.72 44.2043
2983.83 69.2747
2983.97 117.585
2984.10 158.022
2984.23 137.351
2984.37 93.9824
2984.49 65.7820
2984.61 48.2478
2984.73 37.2520
2984.85 30.0583
2985.09 21.6218
2985.33 17.0569
2985.58 14.2942
2985.82 12.4810
2986.30 10.2936
2986.79 9.04832
2987.27 8.25577
2987.75 7.71089
2988.24 7.31522
2989.21 6.77728
2990.17 6.42792
2992.11 5.99356
2994.04 5.72248
2995.98 5.52546
2999.85 5.22129
3003.72 4.93500
3005.66 4.76850
3007.59 4.56341
3008.56 4.43707
3009.53 4.28725
3010.49 4.10593
3011.46 3.88521
3011.95 3.76010
3012.43 3.63157
3012.91 3.51930
3013.40 3.48531
3013.64 3.55058
3013.88 3.74261
3014.12 4.19174
3014.36 5.20123
3014.61 7.57599
3014.73 9.92216
3014.85 13.9081
3014.91 16.9862
3014.97 21.1372
3015.03 27.0617
3015.09 35.4608
3015.15 48.1486
3015.21 67.2721
3015.27 97.2641
3015.33 144.523
3015.42 248.613
3015.50 333.408
3015.54 325.327
3015.59 287.102
3015.67 194.189
3015.74 134.922
3015.82 97.7536
3015.89 74.2785
3015.97 58.8452
3016.12 40.6747
3016.27 30.8701
3016.42 24.8876
3016.57 20.9676
3016.87 16.2664
3017.17 13.5952
3017.47 11.9123
3017.77 10.7635
3018.06 9.93460
3018.66 8.82440
3019.26 8.12117
3019.86 7.63574
3020.46 7.28155
3021.66 6.79636
3022.85 6.47789
3024.05 6.24999
3025.25 6.07666
3027.64 5.82522
3030.04 5.65080
3031.23 5.59041
3032.43 5.57207
3033.03 5.61319
3033.33 5.67093
3033.63 5.78796
3033.93 6.04813
3034.08 6.30401
3034.23 6.74930
3034.38 7.63243
3034.45 8.43202
3034.53 9.71470
3034.60 12.0252
3034.64 13.9448
3034.68 16.6974
3034.71 21.0689
3034.75 28.0195
3034.79 39.9506
3034.82 61.1185
3034.86 94.5044
3034.90 116.936
3034.94 94.5704
3034.98 61.1979
3035.00 45.0952
3035.03 34.3559
3035.05 27.1351
3035.08 22.1718
3035.13 16.0290
3035.19 12.7110
3035.24 10.6740
3035.29 9.38580
3035.40 7.86959
3035.50 7.05668
3035.61 6.57074
3035.81 6.04302
3036.02 5.77224
3036.23 5.61355
3036.65 5.43667
3037.49 5.27268
3038.33 5.17991
3040.01 5.03849
3041.68 4.89726
3043.36 4.72480
3044.20 4.61547
3045.04 4.48081
3045.87 4.31136
3046.29 4.21470
3046.71 4.12353
3047.13 4.09459
3047.34 4.16758
3047.55 4.41277
3047.76 5.12328
3047.87 5.90479
3047.97 7.31770
3048.07 10.1221
3048.13 12.5918
3048.18 16.3030
3048.23 22.3595
3048.28 32.3601
3048.31 39.8897
3048.34 49.9918
3048.36 63.6153
3048.39 81.8601
3048.42 107.573
3048.44 138.432
3048.50 184.945
3048.53 180.732
3048.56 159.883
3048.61 108.726
3048.66 78.6962
3048.70 58.9632
3048.75 46.0058
3048.79 37.2366
3048.88 26.6199
3048.97 20.7158
3049.06 17.0893
3049.15 14.6899
3049.33 11.7813
3049.51 10.1245
3049.69 9.07356
3049.87 8.35492
3050.05 7.83562
3050.41 7.13898
3050.77 6.69437
3051.13 6.38550
3051.49 6.15788
3052.21 5.83916
3052.93 5.62179
3054.37 5.32742
3055.81 5.11699
3057.25 4.94519
3057.97 4.87394
3058.69 4.83381
3059.05 4.85458
3059.41 4.98466
3059.59 5.18534
3059.77 5.71216
3059.86 6.33504
3059.95 7.68330
3059.99 9.01283
3060.04 11.3504
3060.08 15.8424
3060.11 19.5232
3060.13 24.8532
3060.16 37.1397
3060.20 45.1560
3060.24 37.1520
3060.27 24.8610
3060.31 17.3498
3060.34 13.0492
3060.38 10.4938
3060.41 8.89605
3060.48 7.12060
3060.55 6.22039
3060.68 5.37671
3060.82 5.00708
3061.09 4.67906
3061.36 4.52520
3061.91 4.34918
3062.45 4.21938
3063.54 3.97178
3064.63 3.69550
3065.18 3.54361
3065.73 3.39110
3066.27 3.26282
3066.82 3.23658
3067.36 3.57542
3067.63 4.13978
3067.91 5.37833
3068.04 6.50914
3068.18 8.24967
3068.31 11.0355
3068.45 15.7006
3068.52 19.2839
3068.59 24.0849
3068.66 30.7383
3068.72 40.1829
3068.79 53.9472
3068.86 74.5518
3068.93 106.073
3069.00 154.380
3069.10 267.043
3069.20 359.959
3069.30 310.990
3069.41 210.671
3069.51 138.514
3069.62 96.8758
3069.72 72.0116
3069.83 56.3001
3069.93 45.7240
3070.04 38.3978
3070.25 29.0371
3070.46 23.4407
3070.67 19.8248
3071.09 15.4999
3071.51 13.0521
3071.93 11.5040
3072.35 10.4454
3072.77 9.68099
3073.61 8.65036
3074.45 7.99139
3075.30 7.53237
3076.14 7.19388
3077.82 6.72317
3079.50 6.40606
3082.87 5.98846
3086.23 5.70321
3089.60 5.47316
3092.97 5.26462
3094.65 5.17403
3095.49 5.18081
3095.70 5.22541
3095.91 5.35854
3096.02 5.52664
3096.12 5.91158
3096.17 6.31782
3096.23 7.06269
3096.28 8.66946
3096.30 10.1301
3096.33 12.4137
3096.37 16.8214
3096.40 19.7979
3096.44 16.8282
3096.47 12.4185
3096.51 9.43181
3096.54 7.83238
3096.62 6.39270
3096.69 5.80804
3096.77 5.52553
3096.92 5.26494
3097.07 5.14987
3097.66 4.99088
3098.85 4.86763
3101.23 4.65609
3103.62 4.40603
3106.00 4.08284
3107.19 3.87944
3108.38 3.63790
3109.57 3.34950
3110.76 3.01397
3111.36 2.83933
3111.95 2.68480
3112.55 2.60671
3113.15 2.76232
3113.44 3.05247
3113.74 3.64347
3114.04 4.80948
3114.19 5.77379
3114.34 7.14466
3114.49 9.15540
3114.63 12.1591
3114.78 16.7877
3114.93 24.2118
3115.08 36.7417
3115.23 59.2682
3115.31 77.4434
3115.38 102.756
3115.45 138.806
3115.53 189.931
3115.66 331.101
3115.80 449.211
3115.94 389.744
3116.07 264.497
3116.21 174.641
3116.35 122.025
3116.49 90.5632
3116.63 70.6618
3116.77 57.3563
3116.91 48.0282
3117.19 36.0993
3117.47 28.9851
3117.75 24.3569
3118.31 18.8219
3118.87 15.6840
3119.43 13.6966
3119.99 12.3371
3120.55 11.3558
3121.67 10.0399
3122.79 9.21981
3123.35 8.93676
3123.91 8.76215
3124.19 8.76592
3124.47 8.97415
3124.61 9.31542
3124.75 10.1934
3124.82 11.1894
3124.89 13.2194
3124.92 15.0899
3124.96 18.1410
3124.99 23.4002
3125.03 32.5579
3125.06 47.0567
3125.10 56.9351
3125.14 47.0205
3125.17 32.4955
3125.20 24.1348
3125.23 19.1248
3125.26 16.0084
3125.29 13.9915
3125.35 11.6456
3125.41 10.4422
3125.53 9.27937
3125.65 8.75625
3125.90 8.28089
3126.14 8.05740
3126.62 7.81463
3127.10 7.65980
3128.07 7.43415
3129.04 7.25873
3130.97 6.98581
3132.90 6.77705
3134.83 6.61087
3136.76 6.48267
3137.73 6.44198
3138.69 6.45131
3139.18 6.51906
3139.42 6.60004
3139.66 6.75483
3139.90 7.08644
3140.02 7.40519
3140.14 7.94866
3140.26 9.00144
3140.32 9.92195
3140.38 11.3802
3140.45 13.9290
3140.51 18.7085
3140.54 22.8225
3140.57 29.0991
3140.60 39.0093
3140.63 54.7714
3140.66 84.3586
3140.70 103.417
3140.74 83.5831
3140.78 54.8358
3140.80 41.6733
3140.82 32.5680
3140.87 22.0494
3140.92 16.4916
3140.97 13.4059
3141.01 11.4695
3141.06 10.2298
3141.16 8.74874
3141.25 7.94416
3141.35 7.45913
3141.54 6.92680
3141.73 6.65372
3141.92 6.49263
3142.29 6.31415
3143.05 6.15024
3143.81 6.05968
3145.33 5.92692
3146.85 5.80064
3148.37 5.65639
3149.13 5.57294
3149.88 5.48379
3150.64 5.40916
3151.02 5.40428
3151.40 5.47376
3151.78 5.75998
3151.97 6.11252
3152.16 6.79312
3152.35 8.21598
3152.45 9.50539
3152.54 11.5457
3152.64 14.9383
3152.73 20.9314
3152.83 32.2485
3152.92 54.1977
3153.01 90.2790
3153.10 120.334
3153.19 104.698
3153.28 72.2223
3153.37 49.9354
3153.46 36.5866
3153.54 28.4633
3153.63 23.3109
3153.72 19.7913
3153.81 17.3116
3153.98 14.1406
3154.16 12.2299
3154.33 10.9915
3154.68 9.50409
3155.03 8.65867
3155.39 8.12240
3155.74 7.75462
3156.09 7.48830
3156.79 7.12712
3157.49 6.89422
3158.89 6.60828
3160.30 6.43591
3161.70 6.31762
3164.50 6.15978
3167.31 6.05453
3170.12 5.97968
3171.52 5.95465
3172.92 5.95038
3173.62 5.97309
3174.32 6.06197
3174.68 6.19239
3175.03 6.54626
3175.20 7.00067
3175.29 7.41949
3175.38 8.10660
3175.46 9.38083
3175.51 10.4567
3175.55 12.0468
3175.60 14.6575
3175.64 19.1868
3175.68 27.7330
3175.73 44.5143
3175.76 67.5325
3175.80 83.1540
3175.84 67.5404
3175.87 44.5233
3175.90 33.6976
3175.92 26.4499
3175.97 17.9108
3176.02 13.6128
3176.07 11.2174
3176.12 9.76466
3176.17 8.82323
3176.26 7.73116
3176.36 7.13626
3176.46 6.78096
3176.66 6.39709
3177.05 6.09108
3177.44 5.97225
3178.22 5.87713
3179.00 5.83896
3179.78 5.82427
3180.57 5.83976
3180.96 5.87979
3181.35 6.00291
3181.54 6.16848
3181.74 6.58540
3181.84 7.08044
3181.93 8.17360
3181.98 9.28225
3182.03 11.3004
3182.06 13.0047
3182.08 15.3969
3182.11 18.9461
3182.13 24.3117
3182.17 35.5853
3182.20 42.9598
3182.24 35.6552
3182.27 24.3985
3182.30 18.8499
3182.32 15.1177
3182.35 12.6747
3182.37 11.0843
3182.42 9.12651
3182.48 8.05919
3182.58 7.01108
3182.68 6.53604
3182.88 6.13056
3183.09 5.96567
3183.50 5.83239
3183.90 5.77798
3184.72 5.72899
3185.54 5.70321
3188.80 5.64329
3192.07 5.60411
3193.70 5.61492
3194.11 5.64240
3194.51 5.72552
3194.72 5.83698
3194.92 6.12086
3195.02 6.45905
3195.13 7.21282
3195.18 7.98588
3195.23 9.41249
3195.28 12.3744
3195.31 15.1338
3195.33 19.1984
3195.37 27.3848
3195.40 32.8742
3195.44 27.4178
3195.47 19.2390
3195.50 14.6642
3195.53 11.7716
3195.56 9.99147
3195.59 8.85042
3195.65 7.55382
3195.71 6.88459
3195.83 6.25638
3195.95 5.98230
3196.19 5.75420
3196.43 5.66280
3196.91 5.58852
3197.39 5.55696
3199.31 5.50643
3203.15 5.45122
3206.99 5.41043
3207.95 5.40949
3208.91 5.43070
3209.39 5.47098
3209.87 5.59174
3210.11 5.75476
3210.35 6.17664
3210.47 6.69011
3210.59 7.87008
3210.65 9.12436
3210.71 11.5417
3210.74 13.6552
3210.77 16.9300
3210.80 22.2030
3210.83 30.5644
3210.86 45.6404
3210.90 55.8690
3210.94 45.7050
3210.97 30.6442
3211.00 22.2773
3211.03 17.1330
3211.06 13.8873
3211.09 11.7653
3211.15 9.30474
3211.20 8.00969
3211.32 6.77469
3211.44 6.22905
3211.67 5.77093
3211.90 5.58876
3212.37 5.44317
3212.83 5.38450
3213.76 5.33190
3214.69 5.30366
3218.41 5.22992
3222.13 5.16103
3225.85 5.08441
3229.57 4.99425
3233.29 4.88274
3235.15 4.81544
3237.01 4.73942
3238.87 4.67249
3239.34 4.67741
3239.80 4.73861
3240.03 4.84283
3240.27 5.13211
3240.38 5.49269
3240.50 6.32575
3240.56 7.20946
3240.61 8.90259
3240.64 10.3728
3240.67 12.6347
3240.70 16.2458
3240.73 22.1942
3240.77 32.9009
3240.80 39.9172
3240.84 32.9367
3240.87 22.2348
3240.90 16.4373
3240.93 12.8558
3240.96 10.5770
3240.98 9.07709
3241.04 7.30321
3241.10 6.38295
3241.21 5.48978
3241.32 5.09006
3241.55 4.74452
3241.77 4.59510
3242.22 4.44988
3242.68 4.36260
3243.58 4.21746
3244.48 4.05877
3245.38 3.85856
3245.83 3.73707
3246.29 3.60455
3246.74 3.49271
3246.96 3.48642
3247.19 3.59445
3247.41 4.03563
3247.53 4.57690
3247.64 5.61279
3247.75 7.77137
3247.81 9.73732
3247.86 12.7749
3247.92 17.8775
3247.95 21.6218
3247.98 26.6288
3248.01 33.4286
3248.03 42.7890
3248.06 55.7763
3248.09 73.6894
3248.12 97.5220
3248.15 126.260
3248.20 169.248
3248.23 165.821
3248.26 146.809
3248.31 100.609
3248.37 66.7441
3248.43 47.0909
3248.49 35.4268
3248.54 28.0887
3248.60 23.2022
3248.66 19.7863
3248.78 15.4302
3248.89 12.8383
3249.01 11.1537
3249.24 9.14182
3249.47 7.99416
3249.70 7.26606
3250.16 6.39580
3250.63 5.89773
3251.09 5.57947
3252.02 5.23841
3252.94 5.24986
3253.41 5.49245
3253.87 6.09440
3254.33 7.51600
3254.56 8.89428
3254.80 11.1637
3255.03 15.1429
3255.26 22.5700
3255.37 28.7690
3255.49 37.8199
3255.61 51.2557
3255.72 70.9619
3255.91 120.257
3256.10 161.192
3256.29 139.943
3256.48 95.8828
3256.67 65.3125
3256.85 47.0731
3257.04 36.0055
3257.23 28.9635
3257.41 24.1919
3257.60 20.8303
3257.97 16.5194
3258.35 13.9277
3258.72 12.2394
3259.47 10.2044
3260.21 9.04469
3260.96 8.30378
3262.46 7.41710
3263.95 6.90467
3265.44 6.56990
3266.94 6.34782
3267.68 6.32926
3267.87 6.38162
3268.06 6.54515
3268.15 6.75362
3268.24 7.21686
3268.29 7.69187
3268.34 8.52893
3268.38 10.2332
3268.43 13.8261
3268.47 18.4387
3268.50 21.5270
3268.54 18.4340
3268.57 13.8143
3268.61 10.7157
3268.65 9.00906
3268.72 7.50904
3268.80 6.90751
3268.87 6.61148
3269.02 6.33822
3269.17 6.21511
3269.77 6.03616
3270.97 5.89348
3273.37 5.69545
3275.77 5.52166
3278.17 5.34453
3280.57 5.13516
3281.77 5.00302
3282.97 4.83655
3283.57 4.73378
3284.17 4.61281
3284.77 4.46898
3285.37 4.30044
3285.97 4.12675
3286.27 4.07230
3286.57 4.11409
3286.87 4.46532
3287.02 4.95689
3287.17 5.97132
3287.32 8.19439
3287.40 10.2816
3287.47 13.6786
3287.55 19.5172
3287.59 24.1032
3287.62 30.2734
3287.66 39.2209
3287.70 51.7642
3287.74 70.5937
3287.77 97.3008
3287.84 166.675
3287.90 224.834
3287.93 220.359
3287.96 195.304
3288.03 133.094
3288.07 99.6254
3288.12 76.5433
3288.17 60.7304
3288.21 49.8682
3288.30 35.9130
3288.39 27.9690
3288.49 22.9233
3288.58 19.5715
3288.76 15.4414
3288.94 13.0444
3289.13 11.5145
3289.31 10.4651
3289.49 9.70942
3289.86 8.69051
3290.22 8.04493
3290.59 7.59875
3290.95 7.27363
3291.68 6.82843
3292.41 6.53585
3293.88 6.16609
3295.34 5.93210
3296.80 5.76827
3297.53 5.71389
3298.26 5.70998
3298.63 5.77060
3298.99 5.99380
3299.18 6.30642
3299.27 6.60378
3299.36 7.09911
3299.45 8.02870
3299.50 8.82005
3299.54 9.99827
3299.59 11.9450
3299.63 15.2544
3299.68 21.6648
3299.70 27.0208
3299.72 34.4738
3299.76 51.7864
3299.80 63.5931
3299.84 51.8105
3299.88 34.4976
3299.90 26.4916
3299.92 21.1058
3299.97 14.6822
3300.02 11.4057
3300.07 9.59116
3300.12 8.45422
3300.17 7.72591
3300.26 6.85400
3300.46 6.08665
3300.65 5.75997
3301.04 5.47070
3301.43 5.32695
3302.21 5.13715
3302.98 4.96251
3303.76 4.75942
3304.15 4.64342
3304.54 4.52831
3304.92 4.46756
3305.12 4.52027
3305.31 4.74199
3305.51 5.41985
3305.60 6.17623
3305.70 7.56376
3305.80 10.2849
3305.85 12.6617
3305.89 16.1897
3305.94 21.8669
3305.99 31.0201
3306.02 38.0923
3306.04 47.0940
3306.06 59.0032
3306.09 74.6462
3306.12 98.3970
3306.14 127.093
3306.20 171.306
3306.23 168.236
3306.26 149.603
3306.31 102.839
3306.36 74.0998
3306.41 55.4656
3306.45 43.3728
3306.50 35.2579
3306.59 25.5051
3306.69 20.1094
3306.78 16.8000
3306.88 14.6097
3307.06 11.9493
3307.25 10.4280
3307.44 9.45919
3307.63 8.79434
3307.82 8.31467
3308.19 7.66548
3308.57 7.25146
3308.94 6.96339
3309.32 6.75206
3310.07 6.46009
3310.82 6.26616
3312.32 6.01868
3313.82 5.86138
3315.33 5.74935
3316.83 5.67475
3317.58 5.69631
3317.96 5.87781
3318.05 6.04064
3318.14 6.40258
3318.24 7.43173
3318.28 8.76145
3318.33 11.6092
3318.37 15.2082
3318.40 17.6598
3318.44 15.2201
3318.47 11.6216
3318.51 9.25762
3318.54 7.93487
3318.61 6.72978
3318.69 6.24050
3318.76 6.00165
3318.90 5.78024
3319.04 5.68307
3319.62 5.55566
3320.76 5.47674
3323.05 5.37470
3325.34 5.27912
3327.63 5.17588
3329.92 5.04985
3331.07 4.96935
3332.21 4.86732
3333.36 4.72772
3333.93 4.63512
3334.51 4.52092
3335.08 4.38436
3335.36 4.31738
3335.65 4.27848
3335.94 4.35678
3336.08 4.52897
3336.22 4.93689
3336.37 5.92138
3336.44 6.91098
3336.51 8.57057
3336.58 11.6151
3336.62 14.0808
3336.65 17.5050
3336.69 22.6774
3336.72 30.5313
3336.76 42.7408
3336.80 61.1193
3336.82 81.0236
3336.85 104.195
3336.90 139.706
3336.93 136.854
3336.95 121.561
3337.01 83.7924
3337.06 56.1507
3337.12 40.0929
3337.17 30.5685
3337.23 24.5774
3337.28 20.5873
3337.34 17.7976
3337.44 14.2630
3337.55 12.1358
3337.66 10.7540
3337.88 9.10629
3338.10 8.16871
3338.32 7.57634
3338.76 6.87308
3339.20 6.47381
3339.64 6.21715
3340.52 5.90640
3341.40 5.72752
3342.27 5.62706
3342.71 5.61497
3343.15 5.67586
3343.37 5.79301
3343.59 6.12035
3343.70 6.52742
3343.81 7.45854
3343.87 8.43457
3343.92 10.2773
3343.95 11.8877
3343.98 14.2386
3344.00 17.8828
3344.03 23.6358
3344.07 34.7008
3344.10 41.8922
3344.14 34.7148
3344.17 23.6492
3344.20 17.0856
3344.24 13.1576
3344.27 10.8249
3344.30 9.40359
3344.37 7.78685
3344.43 6.96515
3344.56 6.19684
3344.69 5.86478
3344.95 5.58155
3345.21 5.46105
3345.74 5.34921
3346.26 5.28919
3348.35 5.15074
3352.52 4.95596
3356.69 4.77187
3360.87 4.57191
3362.96 4.46308
3365.04 4.35131
3367.13 4.24831
3369.22 4.19292
3371.30 4.32041
3372.35 4.58622
3373.39 5.20224
3374.44 6.66029
3374.96 8.08926
3375.48 10.4775
3376.00 14.7149
3376.52 22.7981
3376.78 29.6135
3377.04 39.6724
3377.31 54.7877
3377.57 77.3852
3377.98 133.082
3378.40 180.488
3378.82 157.921
3379.24 108.610
3379.68 71.9049
3380.13 50.8558
3380.58 38.4194
3381.02 30.6440
3381.47 25.4650
3381.91 21.8560
3382.81 17.2478
3383.70 14.5032
3384.59 12.7167
3386.38 10.5730
3388.16 9.35426
3389.95 8.58246
3390.84 8.30066
3391.74 8.08134
3392.18 8.00781
3392.63 8.00153
3392.85 8.07486
3393.07 8.33022
3393.19 8.66403
3393.30 9.41929
3393.35 10.2028
3393.41 11.6437
3393.47 14.6019
3393.49 17.2568
3393.52 21.2398
3393.56 29.2946
3393.60 34.8295
3393.64 29.2848
3393.68 21.2168
3393.72 16.0422
3393.76 13.1083
3393.80 11.4039
3393.83 10.3766
3393.91 9.21576
3393.99 8.63933
3394.14 8.09555
3394.30 7.85131
3394.61 7.62281
3394.92 7.50691
3395.54 7.36819
3396.15 7.27550
3396.77 7.21286
3397.39 7.20512
3397.70 7.26261
3398.01 7.47311
3398.17 7.76374
3398.32 8.47925
3398.40 9.30342
3398.47 10.9955
3398.51 12.6176
3398.55 15.2665
3398.59 20.1529
3398.63 29.2288
3398.66 42.4934
3398.70 51.5402
3398.74 42.4852
3398.77 29.2132
3398.79 23.2277
3398.82 19.0108
3398.86 14.1601
3398.91 11.6039
3398.95 10.1890
3399.04 8.73304
3399.14 8.05271
3399.32 7.45496
3399.50 7.20290
3399.86 6.98317
3400.23 6.88089
3400.95 6.76719
3401.68 6.69119
3404.58 6.47699
3407.49 6.31678
3410.40 6.18619
3413.30 6.07732
3416.21 5.99019
3417.66 5.96131
3419.12 5.96478
3419.84 6.00792
3420.57 6.16333
3420.93 6.38779
3421.11 6.60810
3421.30 6.99380
3421.48 7.76674
3421.57 8.47642
3421.66 9.63669
3421.75 11.7752
3421.80 13.5938
3421.84 16.2829
3421.89 20.6884
3421.93 28.0921
3421.98 41.7722
3422.02 68.9218
3422.06 106.990
3422.10 132.142
3422.14 107.063
3422.18 69.0128
3422.22 44.0091
3422.26 30.4890
3422.30 22.6148
3422.34 17.9725
3422.38 14.9170
3422.42 12.9055
3422.50 10.4445
3422.58 9.04773
3422.66 8.19254
3422.82 7.24879
3422.99 6.76117
3423.15 6.47927
3423.47 6.17851
3423.79 6.02716
3424.12 5.93866
3424.76 5.84024
3426.05 5.74730
3427.34 5.69390
3429.92 5.61645
3432.50 5.55098
3437.67 5.43234
3440.25 5.39073
3440.89 5.39526
3441.54 5.43466
3441.86 5.50003
3442.18 5.68399
3442.35 5.92283
3442.51 6.50360
3442.59 7.16946
3442.67 8.54755
3442.71 9.90350
3442.75 12.1669
3442.79 16.3179
3442.83 24.3192
3442.87 35.8984
3442.90 43.3729
3442.94 35.9272
3442.97 24.3541
3443.00 17.3960
3443.04 13.3557
3443.07 10.8950
3443.10 9.41079
3443.17 7.74254
3443.24 6.90485
3443.37 6.13504
3443.51 5.80630
3443.77 5.53215
3444.04 5.42219
3444.58 5.32988
3445.11 5.28767
3447.25 5.20976
3448.32 5.18912
3449.39 5.19334
3449.92 5.22793
3450.46 5.35101
3450.73 5.52729
3450.99 5.99430
3451.13 6.57550
3451.19 7.09699
3451.26 7.92412
3451.33 9.39539
3451.39 12.3052
3451.43 14.9681
3451.46 19.0847
3451.49 25.9139
3451.53 37.8639
3451.56 57.3511
3451.60 70.8295
3451.64 57.4790
3451.67 38.0209
3451.72 24.0535
3451.76 16.8314
3451.80 12.9221
3451.84 10.6774
3451.88 9.22775
3451.92 8.28528
3452.01 7.13652
3452.09 6.50163
3452.17 6.11480
3452.34 5.68684
3452.67 5.33658
3453.00 5.19561
3453.67 5.07346
3454.33 5.01285
3455.66 4.93461
3456.99 4.86943
3459.65 4.73459
3462.31 4.57078
3464.97 4.34966
3466.30 4.20208
3467.62 4.01443
3468.29 3.89997
3468.95 3.76868
3469.62 3.62063
3470.28 3.46713
3470.62 3.40215
3470.95 3.36851
3471.28 3.41357
3471.61 3.65973
3471.95 4.47254
3472.11 5.41197
3472.28 7.18721
3472.36 8.65790
3472.44 10.8045
3472.53 14.0393
3472.61 19.1123
3472.69 27.4724
3472.78 42.1016
3472.82 53.7174
3472.86 69.4401
3472.90 91.9932
3472.94 122.647
3473.02 210.398
3473.10 281.478
3473.14 274.536
3473.18 241.673
3473.26 163.090
3473.34 108.077
3473.42 76.0921
3473.50 56.6253
3473.58 44.4361
3473.66 36.1729
3473.74 30.4531
3473.89 23.1271
3474.05 18.7353
3474.21 15.9023
3474.53 12.5072
3474.85 10.5888
3475.16 9.38020
3475.48 8.55294
3475.80 7.95301
3476.43 7.14046
3477.07 6.61433
3478.33 5.95734
3479.60 5.54101
3480.87 5.23049
3483.41 4.72551
3484.68 4.48140
3485.95 4.21998
3487.22 3.92523
3488.48 3.58290
3489.12 3.39302
3489.75 3.19953
3490.39 3.02879
3491.02 2.96478
3491.66 3.29582
3491.97 3.89135
3492.29 5.23056
3492.45 6.45832
3492.61 8.35525
3492.77 11.4201
3492.92 16.5284
3493.08 25.6815
3493.16 32.9318
3493.24 43.1951
3493.32 58.3252
3493.40 80.6398
3493.48 114.581
3493.56 166.262
3493.68 289.115
3493.80 391.523
3493.92 339.303
3494.04 230.217
3494.14 164.940
3494.24 122.562
3494.34 94.4792
3494.44 75.6738
3494.63 52.7546
3494.83 39.9858
3495.03 32.1237
3495.23 26.9088
3495.62 20.5766
3496.01 16.9421
3496.41 14.6332
3496.80 13.0453
3497.19 11.8982
3497.98 10.3540
3498.77 9.36814
3499.55 8.68475
3500.34 8.18225
3501.91 7.48836
3503.49 7.02516
3506.64 6.42314
3509.79 6.01935
3512.93 5.69881
3516.08 5.41409
3517.66 5.30682
3518.05 5.31052
3518.44 5.38410
3518.64 5.50906
3518.84 5.85050
3518.94 6.26892
3519.03 7.19389
3519.08 8.13402
3519.13 9.84516
3519.18 13.3154
3519.21 16.4747
3519.23 21.1220
3519.27 30.8274
3519.30 37.1905
3519.34 30.8570
3519.37 21.1536
3519.40 15.7559
3519.43 12.3874
3519.46 10.3055
3519.49 9.00228
3519.55 7.47212
3519.61 6.67162
3519.73 5.90400
3519.84 5.56433
3520.08 5.26629
3520.32 5.13365
3520.79 4.99784
3521.26 4.91249
3523.16 4.64073
3525.05 4.34468
3526.95 3.97685
3527.89 3.75386
3528.84 3.49915
3529.79 3.21459
3530.73 2.92761
3531.21 2.81488
3531.68 2.77379
3532.15 2.90609
3532.63 3.46620
3532.86 4.09625
3533.10 5.18692
3533.34 7.10848
3533.57 10.6115
3533.69 13.4603
3533.81 17.4874
3533.93 23.3726
3534.05 32.2478
3534.17 46.2872
3534.28 69.0590
3534.40 107.782
3534.52 174.728
3534.66 305.504
3534.80 415.877
3534.94 362.203
3535.08 246.747
3535.25 153.922
3535.42 103.798
3535.58 75.5829
3535.75 58.5229
3535.92 47.3423
3536.08 39.6503
3536.42 30.0040
3536.75 24.3122
3537.08 20.6467
3537.75 16.2663
3538.42 13.7887
3539.08 12.2142
3539.75 11.1317
3540.42 10.3450
3541.75 9.27674
3543.08 8.58555
3544.42 8.09963
3545.75 7.73733
3548.42 7.22533
3551.09 6.87162
3556.42 6.38026
3561.76 5.99647
3564.42 5.80286
3567.09 5.58210
3569.76 5.29586
3571.09 5.10398
3572.43 4.85263
3573.09 4.69252
3573.76 4.49939
3574.43 4.26260
3575.09 3.97201
3575.76 3.63665
3576.09 3.48820
3576.43 3.44350
3576.76 3.77897
3576.93 4.35817
3577.09 5.63085
3577.18 6.79501
3577.26 8.56936
3577.34 11.3824
3577.43 16.0264
3577.51 24.2459
3577.55 30.7006
3577.59 39.4714
3577.64 52.2559
3577.68 70.3769
3577.72 97.7632
3577.76 137.108
3577.83 239.221
3577.90 326.756
3577.94 321.419
3577.97 285.488
3578.04 194.859
3578.08 151.049
3578.13 119.226
3578.22 80.0737
3578.30 58.2359
3578.39 45.2954
3578.48 36.8472
3578.57 31.1320
3578.74 23.9323
3578.92 19.7143
3579.09 16.9947
3579.44 13.7533
3579.79 11.9198
3580.14 10.7540
3580.49 9.95187
3580.84 9.36941
3581.54 8.57716
3582.24 8.06493
3582.94 7.70555
3583.64 7.43866
3585.04 7.06433
3586.44 6.81065
3589.24 6.47662
3592.03 6.25335
3594.83 6.08287
3597.63 5.94569
3599.03 5.91188
3599.38 5.92849
3599.73 5.99990
3599.91 6.10313
3600.08 6.36823
3600.17 6.68149
3600.26 7.34923
3600.30 8.01387
3600.34 9.15021
3600.39 11.3754
3600.43 15.8363
3600.47 21.9272
3600.50 25.8853
3600.54 21.9289
3600.57 15.8359
3600.60 12.9511
3600.62 11.0310
3600.67 8.81095
3600.72 7.71439
3600.77 7.11002
3600.86 6.51038
3600.96 6.23718
3601.16 5.99632
3601.35 5.89459
3602.13 5.75815
3603.70 5.65690
3606.82 5.49544
3609.95 5.31896
3613.08 5.10202
3614.64 4.96733
3616.20 4.80515
3617.76 4.60285
3619.33 4.34049
3620.11 4.17779
3620.89 3.98907
3621.67 3.77291
3622.45 3.54413
3622.84 3.44419
3623.24 3.38640
3623.63 3.43758
3624.02 3.76723
3624.41 4.87285
3624.60 6.15230
3624.80 8.52967
3624.90 10.4819
3624.99 13.2947
3625.09 17.4596
3625.19 23.7560
3625.29 33.8693
3625.38 50.5193
3625.48 79.8211
3625.58 131.389
3625.69 229.081
3625.80 311.474
3625.86 305.831
3625.91 271.376
3626.02 185.319
3626.09 142.278
3626.17 111.417
3626.31 73.7490
3626.45 53.3826
3626.60 41.3230
3626.74 33.6060
3626.89 28.3548
3627.17 21.8359
3627.46 18.0181
3627.75 15.5706
3628.32 12.6517
3628.90 10.9990
3629.47 9.94920
3630.05 9.22556
3630.62 8.69732
3631.77 7.97678
3632.92 7.50671
3634.07 7.17254
3635.22 6.91997
3637.53 6.55555
3639.83 6.29769
3640.98 6.19647
3642.13 6.12225
3642.70 6.11154
3643.28 6.16728
3643.57 6.27987
3643.85 6.60808
3644.00 7.03210
3644.14 8.05139
3644.21 9.18270
3644.28 11.4756
3644.32 13.5887
3644.36 17.0446
3644.39 23.0307
3644.43 33.4910
3644.46 50.1971
3644.50 61.1502
3644.54 50.2387
3644.57 33.5391
3644.60 26.2437
3644.62 21.2321
3644.66 15.1125
3644.71 11.9221
3644.75 10.1331
3644.84 8.25667
3644.93 7.38495
3645.11 6.61309
3645.29 6.29069
3645.64 6.01783
3646.00 5.89740
3646.72 5.77294
3647.43 5.69299
3650.29 5.44273
3653.14 5.18309
3656.00 4.86381
3657.43 4.66465
3658.85 4.42534
3660.28 4.12990
3661.71 3.75819
3662.42 3.53871
3663.14 3.30022
3663.85 3.06211
3664.57 2.89483
3665.28 3.05710
3665.64 3.52448
3665.99 4.68370
3666.17 5.79037
3666.35 7.53759
3666.53 10.4055
3666.71 15.2510
3666.89 24.0127
3666.98 30.9935
3667.07 40.9015
3667.16 55.5083
3667.24 77.0908
3667.33 109.910
3667.42 159.853
3667.56 280.653
3667.70 384.962
3667.84 337.495
3667.98 230.866
3668.08 172.343
3668.18 132.261
3668.28 104.685
3668.38 85.3134
3668.58 60.8306
3668.78 46.7588
3668.98 37.8424
3669.18 31.8620
3669.58 24.4668
3669.98 20.1639
3670.38 17.4080
3670.78 15.5036
3671.18 14.1238
3671.99 12.2624
3672.79 11.0775
3673.59 10.2599
3674.39 9.66310
3675.99 8.85064
3677.59 8.32376
3679.20 7.95333
3680.80 7.67789
3684.00 7.29407
3687.21 7.04198
3688.81 6.95268
3690.41 6.90080
3691.21 6.91133
3692.01 7.01335
3692.41 7.18170
3692.61 7.35144
3692.81 7.65418
3693.02 8.26696
3693.12 8.82954
3693.22 9.76416
3693.32 11.4769
3693.37 12.9175
3693.42 15.1001
3693.47 18.6056
3693.52 24.6568
3693.57 35.9986
3693.59 45.3375
3693.62 58.8374
3693.66 90.2779
3693.70 110.974
3693.74 90.2921
3693.78 58.8529
3693.83 36.3225
3693.88 24.9848
3693.93 18.7827
3693.98 15.2545
3694.03 13.0072
3694.08 11.5512
3694.18 9.79444
3694.28 8.83140
3694.38 8.24814
3694.58 7.60925
3694.77 7.28083
3694.97 7.09015
3695.37 6.88347
3696.16 6.71006
3696.95 6.62975
3698.53 6.53954
3700.11 6.47894
3703.27 6.39690
3704.06 6.39212
3704.85 6.41857
3705.24 6.47227
3705.64 6.63318
3705.84 6.84817
3706.03 7.38798
3706.13 8.02758
3706.23 9.43693
3706.28 10.8821
3706.33 13.4535
3706.36 15.6094
3706.38 18.6162
3706.40 23.2705
3706.43 29.9246
3706.46 44.1063
3706.50 53.6151
3706.54 44.1509
3706.57 29.9790
3706.60 23.3213
3706.62 18.8133
3706.67 13.6322
3706.72 10.9826
3706.77 9.54209
3706.86 8.08723
3706.96 7.42483
3707.15 6.84955
3707.34 6.61402
3707.73 6.42294
3708.12 6.34525
3708.89 6.27525
3709.66 6.23817
3712.75 6.14703
3715.84 6.06990
3718.93 5.98855
3722.03 5.89089
3723.57 5.82886
3725.12 5.74956
3726.66 5.63807
3727.43 5.56065
3728.21 5.45862
3728.98 5.31760
3729.37 5.22716
3729.75 5.12409
3730.14 5.02921
3730.33 5.01504
3730.52 5.08274
3730.72 5.39262
3730.81 5.78414
3730.91 6.53797
3731.01 8.11068
3731.10 11.6624
3731.15 15.2517
3731.20 21.2616
3731.22 25.8351
3731.25 32.0189
3731.27 40.4282
3731.30 52.1262
3731.32 68.1286
3731.35 88.0779
3731.40 119.536
3731.43 117.808
3731.45 105.139
3731.50 73.3765
3731.54 55.4337
3731.58 43.0686
3731.62 34.7029
3731.66 29.0303
3731.74 21.7753
3731.81 17.6822
3731.89 15.0846
3731.97 13.3636
3732.12 11.2295
3732.28 9.99527
3732.43 9.20415
3732.74 8.26571
3733.05 7.73203
3733.36 7.39234
3733.98 6.98465
3734.60 6.74903
3735.22 6.59480
3736.46 6.40260
3737.69 6.28461
3738.93 6.20227
3741.41 6.08962
3743.88 6.01233
3746.36 5.96100
3747.60 5.95441
3748.84 5.99533
3749.46 6.07840
3750.07 6.33111
3750.38 6.67519
3750.54 7.00432
3750.69 7.56747
3750.85 8.66361
3750.93 9.64787
3751.00 11.2090
3751.08 13.9725
3751.16 19.3124
3751.20 24.1198
3751.24 31.4777
3751.27 43.8856
3751.31 64.4422
3751.36 99.4041
3751.40 123.179
3751.44 99.5094
3751.49 64.5722
3751.52 48.3826
3751.55 37.1499
3751.60 24.3612
3751.66 17.8390
3751.72 14.1706
3751.77 11.9001
3751.83 10.4520
3751.95 8.74962
3752.06 7.82237
3752.17 7.27146
3752.40 6.67020
3752.63 6.36427
3752.86 6.18708
3753.32 5.99748
3754.23 5.84039
3755.15 5.77112
3756.06 5.73719
3756.98 5.75180
3757.43 5.81428
3757.89 6.01965
3758.12 6.29883
3758.35 6.99403
3758.46 7.80509
3758.58 9.51936
3758.63 11.1847
3758.69 14.0704
3758.75 19.5085
3758.78 24.1037
3758.80 30.6025
3758.85 45.4865
3758.90 55.6512
3758.95 45.4544
3759.00 30.5583
3759.05 20.2807
3759.10 14.8085
3759.15 11.7796
3759.20 10.0070
3759.31 8.08665
3759.41 7.16417
3759.62 6.32881
3759.82 5.97164
3760.24 5.66526
3760.65 5.52510
3761.48 5.36358
3762.31 5.23582
3763.13 5.11137
3763.55 5.06061
3763.96 5.04862
3764.37 5.16962
3764.58 5.37019
3764.79 5.80609
3765.00 6.78946
3765.10 7.72912
3765.20 9.24925
3765.31 11.8880
3765.41 16.6756
3765.51 26.0885
3765.56 34.1636
3765.62 45.5477
3765.71 76.8211
3765.80 103.408
3765.89 91.0379
3765.99 63.7426
3766.08 44.5238
3766.17 33.0404
3766.26 25.9854
3766.35 21.4330
3766.44 18.3156
3766.53 16.1335
3766.71 13.3080
3766.89 11.5937
3767.07 10.4754
3767.43 9.12283
3767.79 8.34792
3768.15 7.85349
3768.51 7.51302
3768.87 7.26584
3769.59 6.93016
3770.31 6.71404
3771.76 6.45125
3773.20 6.29747
3774.64 6.20251
3775.36 6.17709
3776.08 6.18697
3776.45 6.23303
3776.81 6.38386
3776.99 6.58935
3777.17 7.10253
3777.26 7.69760
3777.35 8.97177
3777.39 10.2188
3777.44 12.3975
3777.48 16.5522
3777.50 20.1215
3777.53 25.1380
3777.56 36.5303
3777.60 44.3251
3777.64 36.6153
3777.67 25.2417
3777.71 17.8868
3777.75 13.8063
3777.78 11.4292
3777.82 9.96428
3777.89 8.35997
3777.96 7.55886
3778.11 6.82130
3778.25 6.50721
3778.54 6.24474
3778.83 6.13733
3779.41 6.04373
3779.98 5.99846
3782.29 5.90900
3786.91 5.80394
3791.53 5.72076
3796.14 5.64399
3800.76 5.56683
3805.38 5.48425
3810.00 5.39497
3812.31 5.37141
3812.88 5.38981
3813.46 5.46571
3813.75 5.57756
3814.04 5.87429
3814.18 6.24172
3814.33 7.08296
3814.40 7.97563
3814.47 9.69091
3814.51 11.1862
3814.54 13.4970
3814.58 17.2091
3814.61 23.4329
3814.66 34.3620
3814.70 41.6349
3814.74 34.3820
3814.79 23.4561
3814.82 17.6283
3814.85 13.9260
3814.89 11.5677
3814.92 10.0523
3814.99 8.23910
3815.06 7.27211
3815.19 6.33902
3815.32 5.92155
3815.59 5.56622
3815.86 5.41954
3816.40 5.29387
3816.93 5.23411
3819.08 5.10279
3821.22 4.97920
3823.36 4.82022
3824.44 4.71748
3825.51 4.59088
3826.58 4.43017
3827.65 4.21972
3828.19 4.08936
3828.72 3.93914
3829.26 3.77088
3829.80 3.60286
3830.06 3.53985
3830.33 3.52357
3830.60 3.61915
3830.87 3.98908
3831.14 5.09509
3831.27 6.31744
3831.40 8.54435
3831.47 10.3331
3831.54 12.8751
3831.60 16.5825
3831.67 22.1613
3831.74 30.8705
3831.81 45.0390
3831.87 69.0213
3831.94 110.255
3832.02 191.518
3832.10 259.580
3832.14 254.769
3832.18 226.165
3832.26 154.836
3832.34 104.002
3832.42 73.8352
3832.50 55.6123
3832.59 44.0005
3832.67 36.1955
3832.75 30.7014
3832.91 23.6450
3833.07 19.4181
3833.23 16.6595
3833.56 13.3448
3833.88 11.4628
3834.21 10.2669
3834.53 9.44618
3834.85 8.85222
3835.50 8.04813
3836.15 7.53163
3836.80 7.17118
3837.44 6.90451
3838.74 6.53085
3840.03 6.27559
3842.63 5.92443
3845.22 5.65198
3846.51 5.51570
3847.81 5.36316
3849.10 5.17339
3849.75 5.05327
3850.40 4.90676
3851.05 4.72614
3851.37 4.62689
3851.69 4.54070
3852.02 4.53834
3852.18 4.64391
3852.34 4.94992
3852.50 5.76635
3852.59 6.62048
3852.67 8.11945
3852.75 10.9170
3852.79 13.2655
3852.83 16.6123
3852.87 21.7820
3852.91 29.6248
3852.95 42.0984
3852.99 62.0534
3853.02 81.9890
3853.05 106.187
3853.10 143.017
3853.13 140.610
3853.16 124.998
3853.21 86.4983
3853.25 66.8193
3853.29 52.7605
3853.36 35.9139
3853.43 26.8191
3853.50 21.4359
3853.58 17.9522
3853.65 15.6179
3853.80 12.7071
3853.94 10.9955
3854.09 9.89999
3854.38 8.58535
3854.68 7.83541
3854.97 7.35213
3855.56 6.76119
3856.14 6.40353
3856.73 6.15222
3857.90 5.78543
3859.07 5.46857
3859.66 5.29868
3860.24 5.10708
3860.83 4.88790
3861.12 4.77772
3861.41 4.69907
3861.71 4.75858
3861.85 4.94886
3862.00 5.42094
3862.15 6.59214
3862.22 7.75570
3862.29 9.72554
3862.37 13.2492
3862.40 16.1044
3862.44 20.0352
3862.48 25.8940
3862.51 34.3544
3862.55 47.5159
3862.58 67.2848
3862.61 88.6150
3862.64 115.144
3862.70 156.979
3862.73 154.702
3862.76 137.881
3862.82 95.6111
3862.86 70.1548
3862.91 53.1997
3862.96 42.0437
3863.00 34.6102
3863.10 25.4199
3863.19 20.2556
3863.28 17.0262
3863.38 14.8985
3863.56 12.2900
3863.75 10.7773
3863.93 9.81281
3864.12 9.14361
3864.31 8.65884
3864.68 8.00046
3865.05 7.57619
3865.43 7.27962
3865.80 7.05992
3866.55 6.75384
3867.29 6.54773
3868.78 6.27934
3870.28 6.10307
3871.77 5.97043
3874.75 5.76222
3877.73 5.57107
3879.23 5.46420
3880.72 5.33592
3882.21 5.16476
3882.96 5.05034
3883.70 4.90447
3884.45 4.71339
3884.82 4.59972
3885.19 4.48591
3885.57 4.42834
3885.75 4.48585
3885.94 4.71698
3886.13 5.41743
3886.22 6.18748
3886.31 7.58432
3886.40 10.2812
3886.45 12.6024
3886.50 15.9954
3886.54 21.3588
3886.59 29.7891
3886.61 36.1730
3886.64 44.1428
3886.66 54.4906
3886.68 68.2291
3886.71 90.4797
3886.74 117.153
3886.80 158.778
3886.83 156.387
3886.86 139.480
3886.92 96.1910
3886.98 63.1706
3887.05 44.6883
3887.11 33.9050
3887.17 27.1924
3887.24 22.7505
3887.30 19.6571
3887.43 15.7223
3887.56 13.3691
3887.69 11.8531
3887.94 10.0336
3888.20 8.99601
3888.46 8.33781
3888.71 7.88288
3888.97 7.55289
3889.48 7.10428
3889.99 6.81390
3890.51 6.60977
3891.02 6.45758
3892.05 6.24327
3893.07 6.09649
3895.12 5.89979
3897.18 5.76456
3899.23 5.65946
3901.28 5.58338
3902.30 5.61036
3902.56 5.66848
3902.82 5.83494
3902.95 6.04617
3903.07 6.54413
3903.14 7.08474
3903.20 8.15097
3903.27 10.6224
3903.30 13.1489
3903.33 17.5976
3903.37 24.8848
3903.40 29.7230
3903.44 24.8794
3903.47 17.5886
3903.49 14.3690
3903.51 12.1133
3903.56 9.44536
3903.60 8.06122
3903.65 7.28768
3903.73 6.48370
3903.82 6.10518
3903.99 5.77034
3904.17 5.63002
3904.52 5.50951
3904.87 5.45445
3906.26 5.35113
3909.05 5.20676
3910.44 5.13420
3911.84 5.06759
3912.54 5.05015
3913.23 5.08583
3913.58 5.17669
3913.93 5.46130
3914.10 5.84537
3914.28 6.79806
3914.37 7.89471
3914.45 10.2203
3914.50 12.5048
3914.54 16.3565
3914.58 23.7429
3914.63 38.0295
3914.66 57.9679
3914.70 71.3339
3914.74 58.0248
3914.77 38.0952
3914.81 25.5111
3914.85 18.2336
3914.88 14.0440
3914.92 11.4862
3915.00 8.71060
3915.07 7.34992
3915.14 6.56998
3915.22 6.09357
3915.36 5.55202
3915.66 5.09229
3915.95 4.89388
3916.54 4.69491
3917.13 4.56721
3918.31 4.33969
3919.48 4.08036
3920.07 3.92795
3920.66 3.75914
3921.25 3.58164
3921.84 3.43056
3922.14 3.39918
3922.43 3.44694
3922.72 3.66850
3923.02 4.28753
3923.31 5.92421
3923.46 7.62176
3923.61 10.5871
3923.68 12.9126
3923.75 16.0915
3923.83 20.6598
3923.90 27.2154
3923.98 37.1746
3924.05 52.3557
3924.12 76.7925
3924.20 115.254
3924.30 200.694
3924.40 272.878
3924.45 268.341
3924.50 238.659
3924.61 163.170
3924.68 123.222
3924.75 95.2823
3924.82 75.9019
3924.89 62.2006
3925.04 44.8386
3925.18 34.7959
3925.33 28.3872
3925.47 24.0587
3925.76 18.7192
3926.04 15.6066
3926.33 13.6150
3926.62 12.2414
3926.91 11.2435
3927.48 9.89771
3928.05 9.04032
3928.63 8.44630
3929.20 8.01178
3930.35 7.41428
3931.50 7.01906
3932.65 6.73205
3933.80 6.50771
3936.10 6.15311
3937.25 5.99244
3938.40 5.82340
3939.55 5.62404
3940.12 5.50132
3940.70 5.35369
3941.27 5.17353
3941.56 5.07554
3941.84 4.99148
3942.13 4.99241
3942.28 5.10022
3942.42 5.40436
3942.56 6.20912
3942.64 7.04211
3942.71 8.46189
3942.78 11.0964
3942.85 16.3302
3942.89 20.8960
3942.92 27.8317
3942.96 38.6040
3942.99 54.7968
3943.02 72.3457
3943.05 93.7459
3943.10 126.763
3943.13 125.058
3943.15 111.626
3943.21 77.9973
3943.24 61.3759
3943.28 49.2559
3943.34 34.3869
3943.41 26.0595
3943.48 21.1370
3943.55 17.9077
3943.61 15.7271
3943.75 12.9831
3943.88 11.3550
3944.02 10.3083
3944.28 9.04732
3944.55 8.32781
3944.82 7.86618
3945.36 7.30993
3945.90 6.98504
3946.44 6.77062
3947.51 6.49901
3948.59 6.32816
3949.67 6.20642
3951.82 6.03506
3953.97 5.91148
3956.12 5.81364
3958.28 5.75128
3958.81 5.76013
3959.35 5.82377
3959.62 5.92595
3959.89 6.20795
3960.03 6.56450
3960.16 7.40013
3960.23 8.32857
3960.29 10.1539
3960.33 11.8329
3960.36 14.4423
3960.40 18.9758
3960.43 26.6303
3960.46 39.2004
3960.50 47.6907
3960.54 39.2373
3960.57 26.6739
3960.61 17.8630
3960.65 13.2029
3960.69 10.6783
3960.73 9.22899
3960.82 7.67095
3960.90 6.93426
3961.06 6.27412
3961.22 5.99656
3961.55 5.76615
3961.88 5.66873
3962.53 5.57524
3963.18 5.51958
3964.48 5.42947
3965.79 5.33402
3967.09 5.21163
3967.74 5.13118
3968.39 5.02959
3969.04 4.89744
3969.37 4.81906
3969.70 4.74061
3970.02 4.69906
3970.18 4.73549
3970.35 4.88810
3970.51 5.35178
3970.59 5.86956
3970.67 6.79966
3970.76 8.62394
3970.84 12.4526
3970.88 16.0486
3970.92 21.6748
3970.96 31.2644
3970.98 38.1416
3971.00 46.9899
3971.02 61.9009
3971.05 79.3117
3971.10 107.067
3971.13 105.342
3971.15 94.2361
3971.20 65.5994
3971.24 48.6083
3971.28 37.3220
3971.33 29.8630
3971.37 24.8894
3971.45 18.7050
3971.53 15.2184
3971.61 13.0531
3971.69 11.6073
3971.85 9.83563
3972.01 8.81393
3972.18 8.15948
3972.50 7.38046
3972.82 6.93743
3973.15 6.65291
3973.80 6.30823
3974.44 6.10455
3975.09 5.96786
3976.39 5.78918
3977.69 5.66996
3978.98 5.57814
3981.57 5.42784
3984.17 5.28364
3985.46 5.20228
3986.76 5.10616
3988.06 4.98344
3988.71 4.90660
3989.35 4.81666
3990.00 4.71939
3990.33 4.68095
3990.65 4.67845
3990.97 4.79633
3991.14 4.97945
3991.30 5.36757
3991.46 6.22426
3991.54 7.02473
3991.62 8.31419
3991.70 10.4918
3991.78 14.3913
3991.87 21.8461
3991.91 28.1009
3991.95 36.7019
3992.02 61.4337
3992.10 82.8520
3992.18 73.2794
3992.25 51.5095
3992.30 41.1669
3992.35 33.6894
3992.44 24.0985
3992.53 18.7120
3992.63 15.4415
3992.72 13.3125
3992.81 11.8458
3993.00 10.0049
3993.18 8.91105
3993.37 8.20489
3993.74 7.35375
3994.11 6.86716
3994.48 6.55433
3995.22 6.17579
3995.97 5.95302
3996.71 5.80372
3998.19 5.60951
3999.68 5.48121
4001.16 5.38387
4004.13 5.23186
4010.06 4.98688
4011.55 4.93400
4013.03 4.89831
4013.77 4.90488
4014.52 4.97932
4014.89 5.10398
4015.26 5.45166
4015.44 5.89149
4015.63 6.92348
4015.72 8.05446
4015.82 10.3050
4015.86 12.3675
4015.91 15.6047
4015.95 21.0363
4016.00 30.5798
4016.05 45.9338
4016.10 56.4021
4016.15 45.8851
4016.20 30.5160
4016.25 20.8199
4016.30 15.2781
4016.34 12.0392
4016.39 10.0397
4016.49 7.84730
4016.58 6.76028
4016.77 5.75082
4016.97 5.31868
4017.35 4.95540
4017.73 4.80329
4018.50 4.66425
4019.26 4.59200
4020.03 4.54927
4020.80 4.55324
4021.18 4.61027
4021.56 4.81185
4021.75 5.09334
4021.94 5.80777
4022.04 6.65326
4022.14 8.47173
4022.18 10.2996
4022.23 13.5649
4022.28 20.0022
4022.30 25.5599
4022.33 33.5482
4022.36 50.9333
4022.40 62.8421
4022.44 50.9779
4022.47 33.5991
4022.50 25.0546
4022.52 19.4809
4022.55 15.6019
4022.58 13.0507
4022.63 9.87719
4022.68 8.12918
4022.78 6.39666
4022.88 5.60908
4023.08 4.91947
4023.29 4.63266
4023.69 4.38479
4024.10 4.26765
4024.91 4.12779
4025.73 4.01891
4027.35 3.80091
4028.98 3.54272
4030.61 3.21638
4031.42 3.02509
4032.23 2.83235
4032.64 2.75516
4033.05 2.72234
4033.45 2.79735
4033.86 3.13936
4034.27 4.21413
4034.47 5.42720
4034.67 7.67790
4034.78 9.52550
4034.88 12.1935
4034.98 16.1624
4035.08 22.2116
4035.18 32.0412
4035.28 48.5220
4035.39 78.2643
4035.49 132.328
4035.59 227.579
4035.70 306.537
4035.81 264.969
4035.91 179.107
4035.99 132.012
4036.07 100.255
4036.15 78.4006
4036.23 63.4057
4036.39 44.6127
4036.54 33.8905
4036.70 27.1961
4036.86 22.7180
4037.17 17.2459
4037.48 14.0862
4037.80 12.0692
4038.42 9.67901
4039.05 8.31737
4039.68 7.43861
4040.93 6.34854
4042.19 5.66658
4043.44 5.16426
4045.95 4.36795
4047.21 3.99797
4048.46 3.61931
4049.72 3.22493
4050.97 2.83667
4052.23 2.59130
4052.86 2.68580
4053.48 3.22162
4053.80 3.84801
4054.11 4.94286
4054.43 6.87525
4054.74 10.3862
4054.90 13.2043
4055.05 17.1900
4055.21 22.9614
4055.37 31.4887
4055.52 44.6725
4055.68 65.6844
4055.84 100.282
4055.99 157.356
4056.20 277.703
4056.40 381.673
4056.60 335.521
4056.81 230.381
4057.00 157.157
4057.20 112.551
4057.40 85.0488
4057.60 67.2572
4057.79 55.1616
4057.99 46.5717
4058.38 35.4328
4058.78 28.6918
4059.17 24.2582
4059.96 18.8852
4060.75 15.8049
4061.54 13.8315
4062.32 12.4672
4063.11 11.4704
4064.69 10.1127
4066.26 9.22915
4067.84 8.60453
4069.42 8.13591
4072.57 7.46905
4075.72 7.00630
4077.30 6.82508
4078.87 6.68340
4079.66 6.64586
4080.45 6.68834
4080.84 6.81171
4081.24 7.20317
4081.43 7.73045
4081.53 8.22798
4081.63 9.05661
4081.73 10.6152
4081.78 11.9322
4081.83 13.9496
4081.88 17.2374
4081.92 23.0313
4081.97 34.2230
4082.00 43.9340
4082.02 57.3901
4082.06 88.0450
4082.10 108.598
4082.14 88.1518
4082.18 57.5185
4082.22 37.0499
4082.26 25.9540
4082.30 19.6995
4082.34 15.9358
4082.38 13.4805
4082.43 11.8728
4082.51 9.91691
4082.59 8.81204
4082.67 8.14275
4082.84 7.39139
4083.00 7.00116
4083.17 6.76970
4083.50 6.51293
4084.16 6.28227
4084.82 6.16167
4086.14 6.00232
4087.46 5.87422
4090.10 5.63850
4092.74 5.40202
4095.38 5.15000
4098.02 4.87396
4099.34 4.72938
4100.65 4.60026
4101.31 4.56931
4101.97 4.64120
4102.30 4.81084
4102.63 5.31560
4102.80 5.95393
4102.96 7.42308
4103.05 8.97725
4103.13 11.8731
4103.17 14.3377
4103.21 18.0553
4103.25 23.8401
4103.29 33.1379
4103.35 50.5127
4103.40 62.0102
4103.45 50.3630
4103.51 32.9369
4103.55 22.7790
4103.60 16.7898
4103.65 13.1155
4103.69 10.7628
4103.78 8.08772
4103.88 6.70200
4104.06 5.38260
4104.24 4.79449
4104.61 4.26634
4104.98 4.01378
4105.72 3.71978
4106.46 3.49998
4107.93 3.09031
4109.41 2.68419
4110.15 2.50913
4110.89 2.40513
4111.62 2.48023
4112.36 3.00673
4112.73 3.63959
4113.10 4.75813
4113.47 6.74684
4113.84 10.3923
4114.02 13.3264
4114.21 17.4559
4114.39 23.4672
4114.58 32.3603
4114.76 46.0878
4114.95 67.7757
4115.13 103.270
4115.31 161.886
4115.56 287.430
4115.80 397.220
4116.04 350.726
4116.29 241.652
4116.52 165.531
4116.76 118.960
4116.99 90.1487
4117.23 71.5254
4117.46 58.7730
4117.70 49.7344
4118.16 37.9531
4118.63 30.8022
4119.10 26.0885
4120.04 20.3623
4120.98 17.0687
4121.92 14.9577
4122.86 13.4966
4123.79 12.4281
4125.67 10.9720
4127.55 10.0336
4128.49 9.69156
4129.42 9.44601
4129.89 9.39733
4130.36 9.51062
4130.60 9.75838
4130.83 10.4495
4130.95 11.2839
4131.07 13.0633
4131.12 14.8096
4131.18 17.7686
4131.24 23.3901
4131.30 34.4791
4131.35 49.8927
4131.40 60.1332
4131.45 49.8571
4131.50 34.4165
4131.56 23.8390
4131.61 18.2938
4131.66 15.1972
4131.72 13.3431
4131.83 11.3611
4131.93 10.3869
4132.15 9.48959
4132.37 9.08711
4132.80 8.70935
4133.23 8.51045
4134.09 8.25727
4134.96 8.06668
4136.69 7.74577
4138.41 7.45617
4140.14 7.17309
4141.87 6.88063
4142.74 6.72933
4143.60 6.58794
4144.03 6.54320
4144.46 6.58242
4144.68 6.71315
4144.90 7.12370
4145.00 7.65019
4145.11 8.86177
4145.17 10.1251
4145.22 12.4828
4145.25 14.4719
4145.27 17.4446
4145.30 22.0153
4145.33 29.2942
4145.36 43.3065
4145.40 52.5678
4145.44 43.3479
4145.47 29.3298
4145.51 19.3995
4145.56 14.2635
4145.60 11.4939
4145.64 9.87497
4145.72 8.17975
4145.81 7.36642
4145.98 6.60786
4146.14 6.26153
4146.48 5.90734
4146.81 5.68561
4147.48 5.31168
4148.15 4.91818
4148.48 4.70440
4148.82 4.48802
4149.15 4.29879
4149.49 4.22817
4149.82 4.57570
4149.99 5.18585
4150.16 6.51629
4150.24 7.70405
4150.33 9.50360
4150.41 12.2958
4150.49 16.7026
4150.58 24.1281
4150.62 29.6947
4150.66 36.9595
4150.70 47.0467
4150.74 60.9292
4150.79 80.1587
4150.83 105.903
4150.91 187.179
4151.00 259.747
4151.04 257.821
4151.09 231.617
4151.17 161.514
4151.26 113.518
4151.34 83.7355
4151.42 64.6747
4151.50 52.2736
4151.66 37.4797
4151.82 29.3702
4151.98 24.4022
4152.14 21.1046
4152.46 17.0775
4152.78 14.7331
4153.11 13.2163
4153.75 11.3770
4154.39 10.2902
4155.04 9.55856
4156.32 8.57558
4157.61 7.84156
4158.25 7.48693
4158.90 7.10541
4159.54 6.66830
4159.86 6.42779
4160.18 6.19681
4160.51 6.07624
4160.67 6.17091
4160.83 6.56103
4160.99 7.71317
4161.07 8.95654
4161.15 11.1100
4161.23 15.1208
4161.27 18.3310
4161.31 22.9039
4161.35 29.5614
4161.39 39.4671
4161.43 54.4549
4161.47 77.1239
4161.50 103.393
4161.54 135.919
4161.60 188.722
4161.63 188.322
4161.67 169.887
4161.73 120.735
4161.80 82.3980
4161.87 60.3260
4161.94 47.0375
4162.01 38.8389
4162.08 33.3771
4162.15 29.7274
4162.29 25.5479
4162.44 24.1549
4162.58 25.5982
4162.65 28.0660
4162.72 32.6397
4162.79 41.0579
4162.86 56.3867
4162.93 81.2039
4163.00 97.7834
4163.07 80.7950
4163.14 55.3043
4163.20 42.1248
4163.25 33.5144
4163.31 27.8567
4163.36 24.0799
4163.47 19.4224
4163.57 16.8010
4163.68 15.1643
4163.79 14.0581
4164.00 12.6652
4164.22 11.8171
4164.43 11.2443
4164.86 10.5013
4165.29 10.0265
4165.72 9.69047
4166.57 9.23260
4167.43 8.92663
4168.29 8.70231
4170.00 8.38666
4170.00 9.94319
5000.00 9.69550
5500.00 9.57910
6000.00 9.48070
6500.00 9.39663
7000.00 9.32414
7500.00 9.26117
8000.00 9.20612
8500.00 9.15774
9000.00 9.11502
9500.00 9.07715
10000.0 9.04347
12500.0 8.92154
15000.0 8.85024
17000.0 8.81523
20000.0 8.78582
25000.0 8.77322
30000.0 8.78492
35000.0 8.80883
40000.0 8.83893
40146.0 8.83986
40146.0 8.00304
40149.7 8.00306
40149.7 8.00306
50000.0 8.04169
60000.0 8.08090
70000.0 8.12012
80000.0 8.15933
90000.0 8.18340
93952.0 8.19291
93952.0 8.19291
100000 8.20746
118228 8.22154
150000 8.24609
156782 8.24087
196467 8.21033
200000 8.20761
221349 8.16946
280826 8.06319
281210 8.06250
297871 8.03273
297872 8.03273
300000 8.02893
330589 7.96035
360913 7.89236
360913 7.89236
388925 7.82956
390874 7.82519
396000 7.81370
400000 7.80473
417109 7.76637
486876 7.60995
500000 7.58053
521462 7.53241
534397 7.50341
540830 7.48899
542102 7.48614
542102 7.48614
543980 7.48193
549201 7.47022
554553 7.45822
578586 7.40434
600000 7.35633
608911 7.33635
613404 7.32628
613404 7.32628
640921 7.26459
648848 7.24681
650000 7.24423
656462 7.23121
656462 7.23120
658189 7.22772
664167 7.21568
684848 7.17399
700000 7.14345
723220 7.09665
724927 7.09321
736953 7.06897
750000 7.04267
762501 7.01747
763178 7.01611
788150 6.96578
788151 6.96578
800000 6.94189
810942 6.91984
810942 6.91984
829512 6.88241
850000 6.84111
855888 6.83034
863088 6.81716
889100 6.76957
889100 6.76957
892715 6.76296
895048 6.75869
897350 6.75448
900000 6.74963
901349 6.74716
917142 6.71827
921242 6.71077
929119 6.69635
929119 6.69635
930533 6.69377
944569 6.66809
950000 6.65815
1.00000E+06 6.56667
1.08831E+06 6.42126
1.08832E+06 6.42125
1.10000E+06 6.40201
1.11755E+06 6.37311
1.11755E+06 6.37311
1.14703E+06 6.32457
1.14704E+06 6.32456
1.20000E+06 6.23735
1.25000E+06 6.15502
1.26403E+06 6.13459
1.26403E+06 6.13458
1.26802E+06 6.12878
1.26802E+06 6.12878
1.28956E+06 6.09741
1.28956E+06 6.09740
1.30000E+06 6.08220
1.30613E+06 6.07327
1.30613E+06 6.07327
1.33991E+06 6.02408
1.33991E+06 6.02407
1.35000E+06 6.00938
1.35808E+06 5.99761
1.35808E+06 5.99760
1.36273E+06 5.99084
1.36273E+06 5.99084
1.40000E+06 5.93655
1.41706E+06 5.91171
1.41706E+06 5.91171
1.42472E+06 5.90055
1.44311E+06 5.87377
1.44311E+06 5.87377
1.45000E+06 5.86373
1.45223E+06 5.86049
1.45223E+06 5.86049
1.45704E+06 5.85348
1.45704E+06 5.85347
1.48108E+06 5.81847
1.48108E+06 5.81847
1.49451E+06 5.79891
1.49451E+06 5.79891
1.49651E+06 5.79600
1.49651E+06 5.79599
1.50000E+06 5.79091
1.50584E+06 5.78345
1.50584E+06 5.78345
1.53086E+06 5.75146
1.53086E+06 5.75146
1.53959E+06 5.74030
1.53960E+06 5.74029
1.54561E+06 5.73260
1.54561E+06 5.73260
1.55000E+06 5.72699
1.60000E+06 5.66307
1.65000E+06 5.59915
1.70000E+06 5.53523
2.00000E+06 5.18326
2.50000E+06 4.69384
3.00000E+06 4.32942
3.15462E+06 4.26862
3.50000E+06 4.13279
4.00000E+06 4.05189
5.00000E+06 4.07081
6.00000E+06 4.19605
6.27390E+06 4.23326
7.00000E+06 4.33191
8.00000E+06 4.42253
9.00000E+06 4.48748
9.40934E+06 4.49473
9.40934E+06 4.49473
1.00000E+07 4.50519
1.10000E+07 4.48209
1.20000E+07 4.42936
1.22085E+07 4.41433
1.30000E+07 4.35727
1.40000E+07 4.26869
1.45000E+07 4.22439
1.50000E+07 4.18010
1.55833E+07 4.12359
1.60000E+07 4.08322
1.69202E+07 3.99407
1.69203E+07 3.99407
1.70000E+07 3.98634
1.80000E+07 3.88946
1.90000E+07 3.79258
2.00000E+07 3.69570