Pd-105(n,tot) ENDF/B-VII.1
Energy(eV) XS(b)
1.00000E-05 1059.26
1.25000E-05 948.204
1.50000E-05 866.226
2.00000E-05 751.156
2.75000E-05 641.666
3.50000E-05 569.608
4.25000E-05 517.589
5.00000E-05 477.765
6.25000E-05 428.099
7.50000E-05 391.438
0.000100000 339.976
0.000125000 304.857
0.000150000 278.933
0.000200000 242.544
0.000275000 207.920
0.000350000 185.133
0.000425000 168.683
0.000500000 156.089
0.000625000 140.383
0.000750000 128.789
0.00100000 112.514
0.00125000 101.408
0.00150000 93.2088
0.00200000 81.7002
0.00275000 70.7493
0.00350000 63.5418
0.00425000 58.3383
0.00500000 54.3545
0.00625000 49.3857
0.00750000 45.7175
0.0100000 40.5678
0.0125000 37.0526
0.0150000 34.4573
0.0200000 30.8131
0.0253000 28.1996
0.0314750 26.0309
0.0376500 24.4195
0.0500000 22.1434
0.0625000 20.5646
0.0750000 19.3977
0.100000 17.7566
0.125000 16.6335
0.150000 15.8021
0.200000 14.6302
0.275000 13.5069
0.350000 12.7605
0.500000 11.7959
0.750000 10.8657
1.00000 10.2922
1.50000 9.57932
2.00000 9.12721
2.75000 8.66736
3.50000 8.34319
5.00000 7.90260
7.50000 7.52314
8.75000 7.52379
9.37500 7.63144
10.0000 7.90785
10.4285 8.31943
10.8570 9.23002
11.0713 10.2080
11.2855 12.3221
11.3926 14.5957
11.4998 19.3511
11.5533 24.0481
11.6069 32.5014
11.6604 49.6075
11.6872 64.8629
11.7140 87.8038
11.7520 134.973
11.7900 166.939
11.8280 136.272
11.8660 89.7834
11.9059 59.0293
11.9457 42.4347
11.9855 33.2376
12.0254 27.8794
12.1051 22.6444
12.1848 20.7955
12.3441 21.4676
12.5035 26.2151
12.6629 37.1255
12.7426 47.2318
12.8223 63.6986
12.9019 92.7453
12.9816 150.118
13.0215 201.485
13.0613 282.917
13.1012 418.135
13.1410 646.720
13.1633 828.574
13.1855 1037.59
13.2300 1303.09
13.2745 1046.70
13.3190 658.065
13.3712 378.501
13.4234 236.314
13.4756 160.008
13.5278 115.595
13.5800 87.8113
13.6322 69.3961
13.7366 47.3653
13.8410 35.2317
13.9454 27.8536
14.1541 19.7097
14.3629 15.5387
14.5717 13.1101
14.7805 11.5658
14.9893 10.5185
15.4068 9.21979
15.8244 8.46596
16.6595 7.65027
17.4946 7.22614
18.3298 6.97016
20.0000 6.70027
21.2702 6.66286
21.9053 6.73592
22.5404 6.95012
23.1755 7.51895
23.4931 8.13574
23.8106 9.30115
23.9694 10.2967
24.1282 11.8197
24.2869 14.2988
24.4457 18.6951
24.6045 27.5384
24.6839 35.7049
24.7633 49.3001
24.8426 74.2579
24.8823 95.2591
24.9220 127.035
24.9617 177.952
25.0014 265.355
25.0213 333.353
25.0411 427.559
25.0610 559.759
25.0808 743.879
25.0981 953.373
25.1154 1193.82
25.1500 1500.01
25.1846 1209.09
25.2192 762.998
25.2569 456.335
25.2946 292.263
25.3323 200.868
25.3700 146.316
25.4077 111.578
25.4454 88.2558
25.5208 59.9933
25.5961 44.2286
25.6715 34.5641
25.8223 23.8160
25.9731 18.2763
26.1238 15.0413
26.2746 12.9823
26.4254 11.5871
26.7269 9.86319
27.0285 8.87242
27.3300 8.24807
27.6316 7.83011
28.2346 7.34227
28.8377 7.18235
29.1393 7.29247
29.2901 7.46325
29.4408 7.80633
29.5916 8.53711
29.6670 9.22147
29.7424 10.3572
29.8178 12.4107
29.8931 16.6094
29.9308 20.5002
29.9685 26.8831
30.0062 37.9762
30.0439 57.8087
30.0820 89.2526
30.1200 110.783
30.1581 90.5823
30.1961 59.4584
30.2280 41.8633
30.2599 30.9924
30.2918 24.2036
30.3237 19.7974
30.3875 14.7178
30.4513 12.0518
30.5151 10.4910
30.5789 9.50057
30.7065 8.35879
30.8341 7.74560
30.9617 7.37425
31.2169 6.95671
31.4722 6.73068
31.7274 6.58819
32.2378 6.41372
33.2586 6.22761
34.2795 6.11816
35.3003 6.04603
36.3211 6.01844
36.8316 6.04933
37.0868 6.09737
37.3420 6.19766
37.5972 6.42352
37.7248 6.64670
37.8524 7.03791
37.9800 7.80363
38.0438 8.48768
38.1076 9.58519
38.1714 11.4902
38.2352 15.1688
38.2671 18.3846
38.2990 23.3605
38.3309 31.3550
38.3628 44.3338
38.4014 67.9351
38.4400 84.0966
38.4786 68.9583
38.5172 45.6102
38.5484 32.7940
38.5795 24.7285
38.6107 19.6124
38.6418 16.2544
38.7041 12.3394
38.7664 10.2644
38.8288 9.04365
38.8911 8.26726
39.0157 7.37287
39.1403 6.89542
39.2649 6.60932
39.5142 6.29466
39.7634 6.13122
40.0126 6.03330
40.5111 5.92391
41.0096 5.86979
41.5081 5.85980
41.7573 5.88910
42.0065 5.99579
42.1312 6.13765
42.1935 6.26603
42.2558 6.47277
42.3181 6.83191
42.3804 7.52453
42.4116 8.12911
42.4427 9.06295
42.4739 10.5609
42.5050 12.9872
42.5425 17.3472
42.5800 20.2565
42.6175 17.3532
42.6550 12.9915
42.6837 10.7130
42.7124 9.24965
42.7411 8.30511
42.7698 7.67652
42.8272 6.93397
42.8845 6.53560
42.9419 6.29925
42.9993 6.14795
43.1141 5.97195
43.2288 5.87635
43.3436 5.81767
43.5731 5.74990
44.0322 5.68489
44.4913 5.64866
46.3275 5.56142
48.1638 5.50076
50.0000 5.47107
51.2830 5.51023
51.9245 5.58722
52.5661 5.76739
52.8868 5.93960
53.2076 6.22189
53.5283 6.71255
53.8491 7.64316
54.0095 8.44106
54.1698 9.66481
54.3302 11.6600
54.4906 15.1979
54.6510 22.2897
54.7312 28.7985
54.8114 39.5462
54.8915 58.9992
54.9316 75.1163
54.9717 99.1121
55.0118 136.700
55.0519 199.149
55.0720 246.224
55.0920 309.651
55.1121 395.833
55.1321 511.877
55.1516 657.085
55.1711 824.159
55.2100 1039.26
55.2295 983.205
55.2490 840.579
55.2879 532.412
55.3132 390.275
55.3385 292.077
55.3892 177.164
55.4398 118.122
55.4905 84.7024
55.5411 64.1729
55.5917 50.7299
55.6930 34.8185
55.7943 26.1281
55.8955 20.8642
56.0981 15.0605
56.3006 12.0821
56.5032 10.3412
56.7057 9.22915
56.9083 8.47144
57.3133 7.52595
57.7184 6.97288
58.1235 6.61616
58.5286 6.36926
59.3388 6.05158
60.1490 5.85536
61.7693 5.62001
63.3897 5.47807
65.0100 5.39448
65.8202 5.39560
66.2253 5.42806
66.6304 5.51475
67.0354 5.74039
67.2380 5.98295
67.4405 6.43643
67.6431 7.39722
67.7444 8.32062
67.8456 9.91264
67.9469 12.9721
67.9975 15.6608
68.0482 19.9037
68.0988 27.0991
68.1494 40.4988
68.1748 51.7843
68.2001 68.6131
68.2254 94.3966
68.2507 133.983
68.2680 170.987
68.2854 213.587
68.3200 268.624
68.3547 218.319
68.3893 139.896
68.4255 87.3564
68.4617 58.4259
68.4979 41.9484
68.5340 31.9528
68.5702 25.5098
68.6064 21.1427
68.6788 15.7937
68.7512 12.7752
68.8235 10.9068
68.9683 8.80554
69.1130 7.70686
69.2577 7.05643
69.5472 6.34831
69.8367 5.98404
70.1262 5.76721
70.7051 5.52413
71.2841 5.39147
71.8630 5.30851
73.0210 5.22506
74.1789 5.26266
74.7578 5.38261
75.3368 5.67995
75.6263 5.96998
75.9157 6.45013
76.2052 7.29105
76.4947 8.89475
76.6394 10.2732
76.7842 12.3888
76.9289 15.8361
77.0737 21.9338
77.2184 34.0811
77.2908 45.1421
77.3631 63.2357
77.4355 95.5032
77.4717 121.823
77.5079 160.399
77.5441 219.551
77.5802 314.943
77.6164 476.855
77.6526 757.836
77.6913 1224.78
77.7300 1548.83
77.7687 1255.43
77.8074 796.200
77.8420 522.393
77.8765 357.953
77.9110 257.635
77.9456 193.681
78.0147 121.188
78.0838 83.7428
78.1528 62.0454
78.2219 48.3822
78.3601 32.7817
78.4983 24.5222
78.6365 19.6053
78.7746 16.4286
78.9128 14.2493
79.1892 11.5168
79.4655 9.91719
79.7419 8.89016
80.0182 8.18549
80.5709 7.29630
81.1236 6.76900
82.2290 6.19919
83.3344 5.97850
83.8871 6.00755
84.4398 6.22723
84.7162 6.48162
84.9925 6.92799
85.2689 7.73822
85.5452 9.32040
85.6834 10.6977
85.8216 12.8279
85.9597 16.3257
86.0979 22.5628
86.2361 35.1123
86.3052 46.6432
86.3743 65.6687
86.4433 100.021
86.4779 128.381
86.5124 170.428
86.5470 235.889
86.5815 343.656
86.6161 531.811
86.6333 676.725
86.6506 870.160
86.6853 1407.08
86.7200 1780.22
86.7547 1443.56
86.7894 915.790
86.8152 643.149
86.8410 464.627
86.8668 347.482
86.8926 268.470
86.9442 173.761
86.9958 122.181
87.0474 91.2715
87.0990 71.3643
87.2022 48.1489
87.3055 35.6253
87.4087 28.0854
87.5119 23.1797
87.6151 19.7988
87.8215 15.5436
88.0279 13.0469
88.2343 11.4434
88.4407 10.3444
88.8536 8.96047
89.2664 8.14066
89.6792 7.60577
90.0921 7.23191
90.9177 6.74609
91.7434 6.44424
93.3947 6.08548
95.0460 5.87392
96.6974 5.73002
98.3487 5.62495
99.1743 5.58561
100.000 5.56686
100.254 5.57571
100.508 5.61339
100.634 5.66460
100.761 5.78560
100.825 5.91520
100.888 6.16485
100.920 6.38317
100.952 6.72164
100.983 7.26751
101.015 8.15819
101.053 9.73559
101.090 10.7890
101.128 9.74462
101.165 8.17559
101.194 7.34280
101.224 6.81684
101.253 6.48439
101.283 6.26979
101.341 6.03228
101.400 5.93331
101.459 5.92052
101.518 5.99909
101.576 6.24521
101.606 6.49700
101.635 6.90145
101.673 7.67283
101.710 8.18577
101.748 7.65707
101.785 6.86848
101.819 6.40308
101.852 6.12556
101.919 5.84910
101.986 5.72783
102.052 5.66666
102.186 5.61440
102.320 5.60131
102.587 5.63090
102.855 5.73502
103.122 5.99231
103.256 6.25461
103.389 6.72339
103.523 7.66017
103.590 8.51225
103.657 9.89770
103.724 12.3520
103.790 17.2088
103.824 21.5614
103.857 28.4607
103.891 39.8982
103.924 59.1929
103.962 93.0440
104.000 116.816
104.038 95.6150
104.076 62.3935
104.101 46.8226
104.126 36.1844
104.177 23.8201
104.227 17.4938
104.277 13.9296
104.327 11.7377
104.378 10.3043
104.478 8.60370
104.578 7.66960
104.679 7.10093
104.880 6.46724
105.081 6.13628
105.282 5.93895
105.683 5.71948
106.085 5.60154
106.487 5.52738
107.291 5.43619
108.898 5.33539
110.506 5.26956
113.720 5.17089
115.328 5.14031
115.730 5.14418
116.131 5.17328
116.332 5.21916
116.433 5.26405
116.533 5.34112
116.634 5.48724
116.684 5.61330
116.734 5.80863
116.784 6.13253
116.835 6.71416
116.885 7.87197
116.910 8.88108
116.935 10.3652
116.973 13.5309
117.010 15.6383
117.048 13.5315
117.085 10.3644
117.121 8.39486
117.157 7.26524
117.193 6.59973
117.228 6.18635
117.300 5.72967
117.372 5.50020
117.443 5.36921
117.515 5.28763
117.658 5.19473
117.801 5.14492
117.945 5.11432
118.231 5.07825
118.804 5.04078
119.377 5.01683
120.523 4.97920
121.670 4.94750
122.816 4.92680
123.389 4.92888
123.962 4.95500
124.535 5.04825
124.821 5.16123
125.108 5.38710
125.251 5.58627
125.395 5.89644
125.538 6.40832
125.681 7.32313
125.824 9.16507
125.896 10.8522
125.968 13.6241
126.039 18.5989
126.111 28.6430
126.147 37.8306
126.182 52.6942
126.218 78.0004
126.254 122.033
126.273 155.752
126.292 194.562
126.330 245.072
126.369 199.529
126.407 127.927
126.439 87.5596
126.471 62.5116
126.503 46.8083
126.535 36.5794
126.600 24.7351
126.664 18.4862
126.728 14.8143
126.792 12.4781
126.921 9.78328
127.049 8.33877
127.177 7.47110
127.434 6.51615
127.691 6.02188
127.948 5.72869
128.461 5.40522
128.975 5.23655
129.488 5.14450
129.745 5.12671
130.002 5.15199
130.130 5.20979
130.258 5.36439
130.323 5.53792
130.387 5.88062
130.419 6.18443
130.451 6.65966
130.483 7.43284
130.515 8.70006
130.553 10.9301
130.590 12.4154
130.628 10.9246
130.665 8.68780
130.692 7.59154
130.718 6.86407
130.771 6.04733
130.824 5.64422
130.876 5.42112
130.982 5.19684
131.088 5.09063
131.299 4.99175
131.510 4.94417
131.933 4.89430
132.355 4.86880
132.778 4.86385
133.200 4.90586
133.411 4.98187
133.517 5.05805
133.623 5.19058
133.728 5.44470
133.781 5.66590
133.834 6.01153
133.887 6.58955
133.939 7.64594
133.966 8.51979
133.992 9.80201
134.019 11.7283
134.045 14.6210
134.083 20.5442
134.120 24.4889
134.158 20.5444
134.195 14.6187
134.229 11.1157
134.262 9.03054
134.296 7.76865
134.329 6.96930
134.397 6.07063
134.464 5.61080
134.531 5.34639
134.598 5.18084
134.733 4.99292
135.001 4.83530
135.270 4.77490
135.539 4.75673
135.808 4.78786
135.942 4.84873
136.076 5.00581
136.144 5.18098
136.211 5.52902
136.244 5.84090
136.278 6.33502
136.312 7.15363
136.345 8.52623
136.383 10.8574
136.420 12.4110
136.458 10.8560
136.495 8.52169
136.531 7.05951
136.568 6.22627
136.604 5.73767
136.640 5.43509
136.712 5.10154
136.785 4.93409
136.930 4.77905
137.075 4.71180
137.654 4.64091
138.234 4.66351
138.813 4.77712
139.393 5.11154
139.682 5.48964
139.972 6.21961
140.117 6.85054
140.262 7.82100
140.407 9.40408
140.552 12.2019
140.696 17.7709
140.769 22.8363
140.841 31.0915
140.914 45.7817
140.986 75.1084
141.022 101.648
141.059 144.142
141.095 215.529
141.131 337.742
141.171 542.955
141.210 684.770
141.250 556.652
141.289 354.922
141.324 236.065
141.358 163.659
141.393 119.017
141.427 90.3906
141.496 57.6238
141.565 40.5679
141.634 30.6283
141.703 24.3595
141.840 17.1780
141.978 13.3613
142.116 11.0852
142.392 8.59733
142.667 7.32111
142.943 6.56980
143.494 5.74836
144.046 5.32183
144.597 5.07129
145.700 4.85076
146.251 4.86552
146.802 5.00860
147.354 5.38997
147.905 6.29478
148.181 7.16151
148.456 8.58064
148.732 11.0401
149.007 15.6676
149.145 19.5998
149.283 25.5606
149.421 35.1196
149.559 51.6448
149.628 64.7458
149.697 83.4405
149.766 111.299
149.834 155.076
149.903 228.710
149.972 363.933
150.007 476.223
150.041 640.569
150.076 888.065
150.110 1258.47
150.160 2042.88
150.210 2593.96
150.260 2114.14
150.310 1347.87
150.346 956.172
150.383 696.225
150.419 523.769
150.456 406.692
150.528 264.725
150.601 186.569
150.674 139.375
150.746 108.786
150.892 72.8686
151.037 53.3356
151.183 41.4972
151.328 33.7503
151.473 28.3837
151.764 21.5877
152.055 17.5720
152.346 14.9821
152.637 13.2072
153.218 11.0197
153.800 9.96484
154.091 9.93008
154.236 10.1755
154.381 10.8011
154.527 12.2756
154.600 13.7098
154.672 16.1287
154.745 20.5405
154.818 29.5713
154.854 37.9079
154.890 51.4306
154.927 74.6711
154.963 115.357
155.002 183.131
155.040 231.014
155.079 189.159
155.117 122.826
155.146 88.3683
155.175 65.8977
155.203 51.1467
155.232 41.1868
155.289 29.2203
155.347 22.6697
155.404 18.7199
155.462 16.1558
155.576 13.1254
155.691 11.4518
155.806 10.4151
156.036 9.22073
156.265 8.56033
156.495 8.14613
156.954 7.69086
157.413 7.59981
157.643 7.75506
157.873 8.20011
158.102 9.33342
158.217 10.5050
158.332 12.5998
158.447 16.7414
158.504 20.4413
158.561 26.3403
158.619 36.4326
158.676 55.3770
158.705 71.4024
158.734 95.3604
158.762 132.140
158.791 188.736
158.811 242.213
158.831 303.807
158.870 385.704
158.910 316.998
158.949 205.251
158.986 135.748
159.022 94.5222
159.059 69.5170
159.095 53.6997
159.168 35.8038
159.241 26.5594
159.315 21.1853
159.388 17.7823
159.534 13.8586
159.680 11.7428
159.826 10.4574
160.118 9.01141
160.411 8.23372
160.703 7.75153
161.288 7.18129
161.873 6.84734
162.457 6.62114
163.627 6.32160
164.796 6.12386
165.965 5.98975
166.550 5.95719
166.842 5.96247
167.135 6.00229
167.427 6.12762
167.573 6.26785
167.719 6.53010
167.866 7.07473
167.939 7.58226
168.012 8.42351
168.085 9.94811
168.158 13.0678
168.195 15.9586
168.231 20.6740
168.268 28.8171
168.304 43.2607
168.342 67.0270
168.380 83.8775
168.418 69.2548
168.456 46.0337
168.490 32.0240
168.525 23.6596
168.559 18.5802
168.594 15.3562
168.662 11.6970
168.731 9.80315
168.800 8.70069
168.868 8.00439
169.006 7.20293
169.143 6.77307
169.281 6.51435
169.556 6.23107
169.830 6.09818
170.105 6.07089
170.243 6.12451
170.380 6.30674
170.449 6.52507
170.518 6.97144
170.552 7.37846
170.586 8.02826
170.621 9.12056
170.655 10.9767
170.693 14.0717
170.730 16.1305
170.768 14.0608
170.805 10.9536
170.831 9.47173
170.856 8.47375
170.907 7.33189
170.958 6.75883
171.009 6.43867
171.111 6.11308
171.214 5.95738
171.418 5.81115
171.622 5.73982
172.030 5.66174
172.439 5.61227
174.072 5.48244
175.706 5.38362
177.340 5.29603
178.973 5.22275
179.790 5.20277
180.607 5.21908
181.015 5.25952
181.424 5.34677
181.832 5.52781
182.240 5.91752
182.445 6.27611
182.649 6.85035
182.853 7.82399
183.057 9.61443
183.261 13.3294
183.364 16.8214
183.466 22.6902
183.568 33.5181
183.619 42.6359
183.670 56.3562
183.721 78.2019
183.772 115.093
183.798 143.454
183.823 182.054
183.849 235.257
183.874 308.096
183.922 501.147
183.970 638.850
184.018 521.364
184.066 333.310
184.097 246.061
184.128 185.745
184.191 114.742
184.253 77.9275
184.315 56.9761
184.377 44.0024
184.440 35.4657
184.564 25.2660
184.689 19.6305
184.813 16.1784
185.062 12.3163
185.311 10.2928
185.560 9.08737
185.809 8.30334
186.058 7.76008
186.556 7.06604
187.054 6.64754
187.552 6.36987
188.050 6.17255
189.045 5.90968
190.041 5.73994
192.033 5.52405
194.025 5.37984
196.017 5.26456
197.012 5.21270
198.008 5.16568
199.004 5.13210
199.502 5.12973
200.000 5.15235
200.319 5.19398
200.637 5.27835
200.956 5.44767
201.274 5.80440
201.433 6.12889
201.593 6.64413
201.752 7.51129
201.911 9.09032
202.070 12.3300
202.150 15.3388
202.230 20.3368
202.309 29.4194
202.349 36.9248
202.389 48.0573
202.429 65.3611
202.468 93.7570
202.508 143.020
202.528 180.724
202.548 230.822
202.589 373.835
202.630 475.643
202.671 389.585
202.712 250.523
202.756 154.879
202.799 102.413
202.843 72.6209
202.887 54.5558
202.931 42.9058
202.974 34.9936
203.062 25.2704
203.149 19.7512
203.236 16.3128
203.411 12.4102
203.586 10.3437
203.761 9.10628
203.936 8.29992
204.110 7.74130
204.460 7.02918
204.809 6.60241
205.159 6.32157
205.509 6.12420
206.208 5.86653
206.907 5.70797
207.606 5.61516
207.781 5.61021
207.956 5.63276
208.043 5.67272
208.130 5.76856
208.174 5.86562
208.218 6.03600
208.261 6.35730
208.305 6.98947
208.343 7.87643
208.380 8.46631
208.418 7.86912
208.455 6.97457
208.484 6.50396
208.513 6.20254
208.570 5.87653
208.628 5.72059
208.686 5.63502
208.801 5.54713
208.916 5.50253
209.147 5.45433
209.378 5.42474
210.300 5.34959
212.145 5.25054
213.990 5.18222
214.451 5.17357
214.913 5.18003
215.143 5.20183
215.259 5.22583
215.374 5.26938
215.489 5.35562
215.547 5.43249
215.604 5.55447
215.662 5.76321
215.720 6.15531
215.749 6.49031
215.777 6.99380
215.806 7.77595
215.835 8.99599
215.873 11.3249
215.910 12.8753
215.948 11.3236
215.985 8.99238
216.027 7.37250
216.069 6.52228
216.110 6.05353
216.152 5.77673
216.194 5.60106
216.236 5.48374
216.319 5.34146
216.403 5.26168
216.486 5.21212
216.653 5.15517
216.987 5.10298
217.321 5.07626
217.989 5.04247
218.657 5.01629
219.992 4.96931
221.328 4.92440
222.664 4.88429
223.332 4.87212
224.000 4.87830
224.334 4.89790
224.667 4.94149
225.001 5.03322
225.335 5.23191
225.502 5.41520
225.669 5.70894
225.836 6.20715
226.003 7.12243
226.170 9.02125
226.254 10.8049
226.337 13.7957
226.421 19.3125
226.462 23.9540
226.504 30.9278
226.546 42.0205
226.588 60.7063
226.629 94.4295
226.650 121.258
226.671 157.726
226.691 202.883
226.711 255.070
226.750 324.460
226.790 265.215
226.829 170.377
226.853 128.780
226.877 99.3200
226.925 63.5424
226.973 44.3803
227.020 33.2515
227.068 26.2601
227.116 21.6170
227.212 16.0205
227.307 12.8980
227.403 10.9757
227.594 8.81625
227.786 7.68103
227.977 7.00387
228.169 6.56272
228.360 6.25681
228.743 5.86548
229.125 5.62879
229.508 5.47107
229.891 5.35833
230.656 5.20638
231.421 5.10613
232.952 4.97365
234.483 4.88016
236.014 4.80208
239.075 4.65775
242.137 4.50146
243.668 4.41117
245.198 4.30977
246.729 4.20050
247.494 4.15054
248.260 4.12007
249.025 4.15322
249.408 4.23300
249.791 4.41451
250.173 4.83059
250.365 5.23522
250.556 5.92811
250.747 7.25489
250.843 8.43355
250.939 10.3433
251.034 13.7817
251.130 20.9832
251.178 27.9856
251.226 40.1642
251.250 49.7997
251.273 63.3827
251.297 82.8372
251.321 110.601
251.341 140.899
251.361 175.967
251.400 222.405
251.420 211.961
251.439 183.335
251.479 120.448
251.508 88.3528
251.536 67.2700
251.594 44.3733
251.651 33.9228
251.709 29.0542
251.824 27.2026
251.939 32.1111
252.054 45.5376
252.112 58.0446
252.169 77.8962
252.227 111.109
252.284 170.912
252.313 219.424
252.342 288.726
252.370 390.103
252.399 536.785
252.445 871.118
252.490 1108.51
252.536 908.520
252.581 583.517
252.610 435.462
252.638 331.010
252.695 205.877
252.753 139.698
252.810 101.549
252.867 77.7045
252.924 61.9080
253.038 42.9015
253.152 32.2991
253.267 25.7598
253.495 18.3830
253.724 14.4773
253.952 12.1298
254.409 9.51528
254.866 8.13108
255.323 7.29186
256.238 6.36378
257.152 5.99440
257.609 6.03963
258.066 6.40089
258.294 6.81986
258.523 7.55152
258.751 8.86752
258.980 11.3955
259.209 16.8402
259.323 22.0901
259.437 31.0866
259.551 48.1251
259.608 62.7758
259.666 85.3359
259.723 122.266
259.780 187.069
259.808 238.570
259.837 310.857
259.866 414.473
259.894 561.195
259.942 913.826
259.990 1165.60
260.038 955.587
260.086 613.513
260.138 373.212
260.191 242.934
260.243 169.621
260.296 125.434
260.348 97.0531
260.400 77.8300
260.505 54.2775
260.610 40.9132
260.715 32.5975
260.924 23.1455
261.134 18.1286
261.343 15.1150
261.553 13.1440
261.762 11.7726
262.181 10.0152
262.600 8.95285
263.019 8.24818
263.438 7.74881
264.276 7.08932
265.114 6.67229
266.790 6.16817
268.466 5.86639
270.142 5.65859
273.494 5.37476
276.846 5.17004
280.198 4.99379
281.874 4.90784
282.712 4.86533
283.550 4.82569
284.388 4.79908
284.807 4.80205
285.226 4.83703
285.645 4.96140
285.855 5.11136
286.064 5.40881
286.274 6.06865
286.379 6.71939
286.483 7.85573
286.588 10.0612
286.641 12.0037
286.693 15.0557
286.745 20.2015
286.798 29.6414
286.824 37.4485
286.850 48.8753
286.876 65.9665
286.902 91.3985
286.922 116.974
286.941 146.675
286.980 186.284
287.019 153.310
287.058 99.6906
287.094 66.3267
287.130 46.6113
287.166 34.7090
287.202 27.1677
287.274 18.6573
287.346 14.2645
287.418 11.7124
287.490 10.0975
287.634 8.23727
287.778 7.23794
287.922 6.63325
288.210 5.95778
288.498 5.59903
288.786 5.37948
289.362 5.12373
289.938 4.97514
290.514 4.87317
291.666 4.72969
293.970 4.52210
296.274 4.33412
297.426 4.23970
298.579 4.14914
299.731 4.07831
300.883 4.07845
301.459 4.15000
302.035 4.33214
302.611 4.74482
303.187 5.68629
303.475 6.58056
303.763 8.03935
304.051 10.5538
304.339 15.2442
304.483 19.1845
304.627 25.0927
304.771 34.4113
304.915 50.1248
305.059 79.1610
305.131 103.569
305.203 140.304
305.275 198.464
305.347 296.250
305.419 471.529
305.491 797.122
305.561 1305.02
305.630 1670.98
305.700 1371.62
305.769 880.518
305.832 578.966
305.896 398.281
305.959 287.985
306.022 217.722
306.149 137.803
306.275 96.3011
306.401 72.0614
306.528 56.6894
306.781 38.9268
307.034 29.3666
307.287 23.5873
307.540 19.7966
307.792 17.1577
308.298 13.7828
308.804 11.7557
309.310 10.4222
309.816 9.48594
310.827 8.26658
311.839 7.52101
312.345 7.27583
312.598 7.20022
312.851 7.18923
313.104 7.33236
313.230 7.54325
313.357 7.97327
313.483 8.90777
313.546 9.78945
313.610 11.2505
313.673 13.8643
313.736 19.0308
313.768 23.6155
313.799 30.7767
313.831 42.3832
313.862 61.4046
313.882 77.9425
313.901 97.2922
313.940 123.818
313.979 103.505
314.018 69.1518
314.045 51.7442
314.073 40.0103
314.100 32.0617
314.127 26.5931
314.182 19.8452
314.237 16.0597
314.292 13.7282
314.347 12.1924
314.457 10.3498
314.566 9.31431
314.676 8.66601
314.896 7.90993
315.115 7.48468
315.335 7.20971
315.773 6.86538
316.212 6.64737
316.651 6.48895
317.529 6.26005
319.285 5.95693
321.041 5.74391
322.796 5.57487
324.552 5.43305
325.430 5.37471
325.869 5.35374
326.308 5.34730
326.747 5.38046
326.966 5.43579
327.186 5.55635
327.405 5.83842
327.515 6.12311
327.625 6.62771
327.734 7.62115
327.789 8.50645
327.844 9.91237
327.899 12.3163
327.954 16.8052
327.981 20.6052
328.009 26.2510
328.036 34.8859
328.064 48.1243
328.102 75.5123
328.140 95.0519
328.178 78.6387
328.217 52.1216
328.262 32.4569
328.307 22.3291
328.352 16.8378
328.397 13.6095
328.443 11.5709
328.488 10.2062
328.578 8.55127
328.669 7.62171
328.759 7.04509
328.940 6.39026
329.120 6.03981
329.301 5.82624
329.663 5.58139
330.024 5.44393
330.386 5.35343
331.109 5.23447
332.555 5.08543
334.001 4.97297
336.893 4.77591
338.339 4.70532
338.700 4.71207
339.062 4.77357
339.243 4.87181
339.333 4.96755
339.423 5.13068
339.514 5.43580
339.604 6.09119
339.649 6.73147
339.695 7.84524
339.740 9.95201
339.785 14.1553
339.822 19.9108
339.860 23.7454
339.898 19.9068
339.935 14.1460
339.963 11.1937
339.991 9.27689
340.020 8.02852
340.048 7.19189
340.104 6.19657
340.160 5.65876
340.216 5.33828
340.272 5.13242
340.385 4.89228
340.610 4.68026
340.834 4.58614
341.284 4.49433
341.733 4.44327
342.632 4.38840
343.531 4.40870
343.981 4.47947
344.430 4.63751
344.880 4.97021
345.329 5.69059
345.554 6.35421
345.779 7.41539
346.003 9.21125
346.228 12.4985
346.453 19.2751
346.565 25.5984
346.678 36.1298
346.790 55.3441
346.846 71.3101
346.902 95.0436
346.959 132.194
347.015 193.618
347.071 301.257
347.127 494.984
347.184 804.343
347.240 1023.87
347.297 838.345
347.353 537.608
347.409 340.441
347.465 227.862
347.521 161.831
347.578 120.872
347.634 94.0307
347.690 75.5873
347.802 52.6589
347.914 39.4916
348.026 31.2400
348.251 21.8150
348.475 16.7946
348.700 13.7793
349.149 10.4408
349.597 8.69386
350.046 7.64884
350.944 6.52734
351.393 6.25628
351.842 6.16530
352.291 6.33476
352.740 7.01060
353.188 8.95058
353.413 11.0891
353.637 15.0929
353.862 23.4445
353.974 31.2460
354.086 44.2010
354.142 54.0451
354.198 67.5752
354.255 86.7444
354.311 114.897
354.367 158.025
354.423 227.320
354.479 343.976
354.535 544.119
354.598 892.321
354.660 1145.92
354.723 944.964
354.785 610.014
354.847 389.987
354.909 263.374
354.970 188.536
355.032 141.947
355.094 111.221
355.156 90.0511
355.279 63.5746
355.402 48.2521
355.526 38.5806
355.773 27.4286
356.020 21.4181
356.267 17.7691
356.514 15.3613
356.760 13.6736
357.254 11.4912
357.748 10.1584
358.242 9.26660
358.736 8.62955
359.723 7.77897
360.711 7.23225
362.686 6.54954
364.662 6.10726
365.649 5.92566
366.637 5.75807
367.625 5.60829
368.119 5.55386
368.612 5.54570
368.859 5.58379
369.106 5.68384
369.353 5.90906
369.600 6.41370
369.724 6.88525
369.847 7.64344
369.970 8.93030
370.094 11.2811
370.217 16.0895
370.279 20.5188
370.341 27.7930
370.403 40.7692
370.433 51.2913
370.464 66.5283
370.495 89.6314
370.526 125.985
370.557 186.002
370.588 285.866
370.624 466.871
370.660 598.335
370.696 492.777
370.732 318.250
370.759 229.079
370.785 169.413
370.811 129.537
370.837 102.228
370.889 68.9246
370.941 50.4230
370.993 39.1610
371.046 31.8079
371.150 23.0963
371.254 18.2924
371.359 15.3485
371.567 12.0326
371.776 10.2749
371.985 9.21367
372.194 8.51298
372.402 8.01962
372.820 7.37456
373.237 6.97214
374.072 6.49237
374.907 6.21224
375.324 6.11665
375.742 6.05450
376.159 6.05807
376.368 6.11887
376.577 6.27757
376.786 6.67872
376.890 7.09548
376.994 7.84195
377.099 9.31814
377.151 10.6314
377.203 12.7059
377.255 16.2177
377.307 22.6743
377.360 35.8270
377.386 47.4937
377.412 64.8267
377.431 82.5381
377.451 103.215
377.490 131.320
377.529 109.208
377.568 72.3087
377.614 44.9231
377.660 30.6479
377.706 22.8350
377.752 18.2156
377.798 15.2723
377.844 13.2950
377.935 10.8765
378.027 9.50442
378.119 8.64738
378.302 7.66327
378.486 7.12950
378.669 6.80035
379.036 6.41796
379.403 6.20053
379.770 6.05673
380.504 5.86888
381.971 5.64173
383.439 5.47881
384.906 5.33789
385.640 5.27688
386.374 5.23718
386.741 5.23843
387.108 5.27266
387.475 5.37644
387.841 5.64167
388.025 5.90459
388.208 6.34203
388.392 7.10759
388.575 8.54991
388.759 11.6017
388.850 14.4960
388.942 19.3785
389.034 28.3877
389.080 35.9510
389.126 47.2718
389.171 65.1467
389.217 94.9100
389.240 117.480
389.263 147.795
389.286 188.953
389.309 244.411
389.355 399.226
389.400 511.547
389.423 488.395
389.446 421.520
389.491 272.727
389.544 163.127
389.597 105.785
389.649 74.2670
389.702 55.5555
389.755 43.6523
389.807 35.6394
389.913 25.8633
390.018 20.3397
390.124 16.9013
390.334 12.9893
390.545 10.9053
390.756 9.64871
390.967 8.82495
391.178 8.25221
391.599 7.52942
392.021 7.14193
392.232 7.06371
392.443 7.14409
392.548 7.33974
392.653 7.84671
392.706 8.38926
392.759 9.39694
392.811 11.4647
392.838 13.3139
392.864 16.0719
392.902 21.8161
392.940 25.6302
392.978 21.7709
393.016 16.0127
393.047 12.8342
393.078 10.8544
393.109 9.60843
393.140 8.79404
393.203 7.84620
393.265 7.34113
393.327 7.03996
393.389 6.84446
393.513 6.61047
393.762 6.39288
394.011 6.30248
394.260 6.29321
394.384 6.33212
394.508 6.42812
394.633 6.64540
394.695 6.84965
394.757 7.18324
394.819 7.76983
394.881 8.90995
394.912 9.90955
394.944 11.4591
394.975 13.9536
395.006 17.9935
395.043 25.2400
395.080 30.0724
395.117 25.2279
395.154 17.9681
395.180 14.4469
395.206 12.1023
395.232 10.5290
395.258 9.45644
395.310 8.14875
395.362 7.42703
395.414 6.98897
395.466 6.70456
395.569 6.36743
395.673 6.18040
395.777 6.06339
395.984 5.92480
396.399 5.78612
396.814 5.70604
397.644 5.59705
398.473 5.51468
399.303 5.45152
399.718 5.43387
400.133 5.44163
400.547 5.52142
400.755 5.63361
400.962 5.86954
401.170 6.41392
401.273 6.96148
401.377 7.92973
401.481 9.82477
401.533 11.5040
401.584 14.1494
401.636 18.6170
401.688 26.7896
401.740 43.4105
401.766 58.0806
401.792 79.9133
401.811 102.289
401.831 128.247
401.870 163.521
401.909 135.583
401.948 89.0818
401.987 58.6213
402.025 41.1074
402.064 30.7618
402.102 24.3049
402.141 20.0504
402.179 17.1127
402.256 13.4372
402.333 11.3105
402.410 9.96622
402.564 8.41538
402.718 7.57835
402.872 7.06876
403.026 6.73150
403.180 6.49417
403.488 6.18504
403.796 5.99376
404.412 5.76860
405.029 5.63731
405.645 5.54820
406.877 5.42796
408.109 5.34460
409.341 5.28333
409.957 5.26428
410.573 5.26923
410.881 5.30125
411.035 5.33860
411.189 5.40867
411.343 5.55284
411.420 5.68593
411.497 5.90536
411.574 6.30049
411.612 6.62598
411.651 7.10824
411.689 7.85888
411.728 9.09718
411.766 11.2687
411.805 15.1979
411.842 21.2367
411.880 25.2483
411.918 21.2187
411.955 15.1941
411.981 12.3225
412.007 10.3919
412.032 9.08970
412.058 8.19227
412.109 7.09182
412.160 6.48216
412.212 6.11214
412.263 5.87265
412.365 5.59153
412.468 5.43851
412.570 5.34543
412.775 5.24062
412.980 5.18355
413.185 5.14698
413.595 5.09993
414.415 5.04084
415.234 4.99528
416.054 4.95633
416.464 4.94164
416.874 4.93607
417.284 4.95659
417.489 4.99295
417.694 5.07366
417.899 5.26444
418.001 5.45769
418.104 5.79964
418.206 6.46966
418.257 7.06192
418.309 7.99642
418.360 9.57512
418.411 12.4661
418.462 18.3431
418.488 23.5503
418.513 31.3160
418.552 48.3332
418.590 60.6420
418.628 50.6519
418.667 34.2120
418.691 26.5328
418.716 21.1919
418.766 14.8558
418.815 11.5465
418.864 9.64664
418.914 8.46494
418.963 7.68170
419.062 6.73946
419.161 6.21293
419.260 5.88643
419.457 5.51376
419.655 5.31176
419.852 5.18628
420.248 5.03717
420.643 4.94782
421.038 4.88434
421.829 4.79029
423.409 4.64145
424.990 4.49381
425.781 4.41434
426.571 4.33183
427.362 4.25332
428.152 4.20496
428.548 4.21651
428.943 4.28736
429.338 4.48674
429.733 4.98990
429.931 5.48931
430.128 6.32302
430.326 7.78740
430.524 10.5618
430.721 16.4635
430.820 22.0908
430.919 31.6252
431.018 49.3163
431.067 64.2240
431.116 86.6910
431.166 122.297
431.215 182.191
431.265 289.532
431.314 488.821
431.362 802.688
431.410 1031.57
431.458 849.940
431.506 547.919
431.541 390.485
431.577 286.045
431.612 216.776
431.648 169.732
431.718 112.519
431.789 80.9506
431.860 61.7678
431.931 49.2852
432.072 34.5045
432.213 26.3650
432.355 21.3781
432.496 18.0754
432.638 15.7641
432.921 12.7907
433.204 10.9980
433.487 9.81745
433.769 8.98921
434.335 7.91414
434.901 7.25223
435.467 6.80468
436.033 6.48104
437.164 6.03935
438.296 5.74415
440.559 5.34582
442.823 5.05035
443.954 4.91828
445.086 4.79971
445.652 4.75389
446.218 4.73135
446.784 4.76188
447.349 4.92419
447.632 5.11662
447.915 5.46327
448.198 6.10731
448.481 7.38389
448.764 10.2139
448.905 12.9965
449.047 17.8307
449.188 27.1100
449.259 35.1699
449.330 47.6756
449.401 68.3116
449.436 83.8493
449.471 104.890
449.507 134.191
449.542 175.634
449.577 235.475
449.613 321.041
449.671 526.232
449.730 676.070
449.789 557.622
449.847 360.288
449.913 218.634
449.979 142.733
450.044 100.243
450.110 74.7662
450.175 58.4030
450.241 47.3400
450.372 33.7500
450.503 26.0264
450.634 21.1988
450.896 15.6831
451.158 12.7302
451.421 10.9407
451.683 9.76013
451.945 8.93145
452.469 7.85570
452.994 7.19259
453.518 6.74295
454.043 6.41611
455.091 5.96442
456.140 5.65478
458.238 5.21637
459.286 5.03785
460.335 4.87366
461.384 4.72789
462.433 4.63203
462.957 4.63455
463.482 4.71752
464.006 4.97231
464.530 5.62960
464.793 6.28421
465.055 7.37675
465.317 9.29010
465.579 12.8944
465.710 15.9318
465.841 20.4841
465.972 27.6402
466.104 39.6162
466.235 61.4307
466.300 79.4860
466.366 106.153
466.431 147.435
466.497 214.414
466.562 328.785
466.628 528.485
466.699 870.949
466.770 1123.16
466.841 928.346
466.912 600.275
466.973 407.213
467.034 287.371
467.095 212.040
467.155 162.970
467.277 105.874
467.398 75.5308
467.520 57.5486
467.641 46.0038
467.884 32.5092
468.127 25.1467
468.370 20.6475
468.613 17.6711
468.856 15.5846
469.342 12.8914
469.828 11.2568
470.314 10.1725
470.800 9.40624
471.772 8.40155
472.743 7.77473
473.715 7.34588
474.687 7.03248
476.631 6.59819
478.575 6.29904
479.546 6.17697
480.032 6.12228
480.518 6.07585
481.004 6.05282
481.247 6.06638
481.490 6.12570
481.733 6.30591
481.855 6.50906
481.976 6.89185
482.098 7.68852
482.158 8.42700
482.219 9.63523
482.280 11.7714
482.341 15.9305
482.371 19.5755
482.401 25.1707
482.432 34.1065
482.462 48.3958
482.501 76.5073
482.540 97.4063
482.579 81.7784
482.618 55.0754
482.655 38.0982
482.691 28.0102
482.728 21.8786
482.764 17.9883
482.837 13.5627
482.911 11.2564
482.984 9.90302
483.057 9.03797
483.203 8.02700
483.349 7.47255
483.495 7.13001
483.788 6.73591
484.080 6.51763
484.373 6.37838
484.957 6.20716
485.542 6.10123
486.127 6.02549
487.297 5.91724
489.636 5.77427
490.805 5.72674
491.098 5.72201
491.390 5.73072
491.536 5.75083
491.683 5.80664
491.756 5.87150
491.829 6.00478
491.865 6.12802
491.902 6.32837
491.938 6.67393
491.975 7.28120
492.013 8.25120
492.050 8.89529
492.088 8.24545
492.125 7.27519
492.152 6.79269
492.179 6.47402
492.233 6.12012
492.287 5.94726
492.341 5.85214
492.449 5.75676
492.557 5.71144
492.773 5.66825
492.989 5.64613
493.421 5.61929
493.853 5.59972
495.580 5.53787
497.308 5.48956
497.739 5.48342
498.171 5.48939
498.387 5.50738
498.603 5.56212
498.711 5.63117
498.819 5.78783
498.873 5.94944
498.927 6.24751
498.954 6.49606
498.981 6.86337
499.008 7.41993
499.035 8.25988
499.073 9.95936
499.110 11.0875
499.148 9.95263
499.185 8.25584
499.211 7.45016
499.236 6.90543
499.287 6.28490
499.338 5.97353
499.389 5.80049
499.491 5.62652
499.593 5.54536
499.796 5.47248
500.000 5.43957
500.360 5.40951
500.719 5.39108
501.438 5.36406
502.876 5.31932
505.752 5.23296
507.190 5.18672
507.909 5.16220
508.628 5.13697
509.347 5.11323
509.706 5.10477
510.066 5.10421
510.425 5.12724
510.605 5.16258
510.785 5.23832
510.964 5.41368
511.054 5.58904
511.144 5.89575
511.234 6.48700
511.279 7.00070
511.324 7.79689
511.369 9.10846
511.414 11.4199
511.459 15.8504
511.504 24.8386
511.542 37.8389
511.580 47.4400
511.618 40.1235
511.657 27.7435
511.696 19.3341
511.735 14.5820
511.774 11.8214
511.814 10.1200
511.892 8.25161
511.971 7.31884
512.049 6.79814
512.128 6.49288
512.285 6.23743
512.442 6.33723
512.521 6.56811
512.599 7.02599
512.678 7.93988
512.717 8.73073
512.757 9.93211
512.796 11.8538
512.835 15.1011
512.874 20.9371
512.914 31.7512
512.952 48.8362
512.990 61.3101
513.028 51.4292
513.066 34.9751
513.104 24.2578
513.141 18.0510
513.179 14.3725
513.216 12.0700
513.291 9.49558
513.366 8.17378
513.440 7.40282
513.515 6.91253
513.665 6.33971
513.814 6.02445
513.964 5.82861
514.263 5.60068
514.562 5.47222
514.861 5.38900
515.459 5.28475
516.057 5.21877
516.655 5.17051
517.851 5.09853
520.243 4.98961
522.635 4.88950
525.028 4.78063
526.224 4.71936
527.420 4.65328
528.616 4.59002
529.214 4.57130
529.812 4.58668
530.111 4.62601
530.410 4.71185
530.709 4.89114
531.008 5.27747
531.158 5.63197
531.307 6.19593
531.457 7.14231
531.606 8.85305
531.756 12.3001
531.831 15.4388
531.905 20.5212
531.980 29.4201
532.055 46.6090
532.092 61.5914
532.130 84.6068
532.167 121.156
532.204 179.458
532.252 292.805
532.300 375.162
532.348 309.405
532.396 200.520
532.438 134.811
532.481 94.7689
532.523 70.0567
532.565 54.1363
532.650 35.8670
532.735 26.2879
532.820 20.6510
532.904 17.0580
533.074 12.8794
533.243 10.6145
533.413 9.23586
533.582 8.32596
533.752 7.68860
534.091 6.86580
534.430 6.36443
534.769 6.02909
535.108 5.78908
535.786 5.46584
536.464 5.25325
537.820 4.97263
539.176 4.77284
540.532 4.60698
541.210 4.53801
541.888 4.50069
542.227 4.52250
542.566 4.64818
542.736 4.83626
542.821 5.01562
542.905 5.31675
542.990 5.87086
543.075 7.03324
543.117 8.14469
543.160 10.0327
543.202 13.4835
543.244 20.0543
543.282 29.5179
543.320 35.8238
543.358 29.5144
543.396 20.0460
543.425 15.1026
543.454 11.9363
543.483 9.89089
543.512 8.52906
543.569 6.92083
543.627 6.05944
543.743 5.22694
543.858 4.85689
544.090 4.55600
544.321 4.46078
544.783 4.51728
545.246 4.90820
545.477 5.33778
545.708 6.07752
545.940 7.40257
546.171 9.94412
546.402 15.4003
546.518 20.6225
546.633 29.4863
546.691 36.3512
546.749 45.9413
546.807 59.7981
546.865 80.6524
546.922 113.622
546.980 168.861
547.038 267.251
547.096 448.422
547.153 738.525
547.210 951.316
547.267 785.711
547.324 508.088
547.365 367.794
547.405 272.936
547.446 208.960
547.486 164.819
547.567 110.548
547.648 80.1382
547.728 61.5112
547.809 49.2896
547.971 34.7220
548.132 26.6506
548.294 21.6775
548.456 18.3739
548.617 16.0544
548.940 13.0601
549.263 11.2473
549.587 10.0494
549.910 9.20709
550.556 8.11060
551.202 7.43372
551.849 6.97550
552.495 6.64419
553.788 6.19334
555.080 5.89456
557.665 5.49981
560.251 5.21453
561.543 5.08309
562.836 4.94752
564.129 4.79909
564.775 4.71889
565.421 4.64007
566.068 4.59046
566.391 4.61064
566.714 4.72686
566.875 4.86723
567.037 5.12249
567.199 5.59972
567.360 6.54817
567.522 8.65063
567.603 10.7091
567.683 14.2658
567.764 21.0124
567.805 26.8031
567.845 35.6704
567.885 50.0035
567.926 74.7411
567.946 93.9931
567.966 120.638
567.986 157.906
568.006 209.417
568.043 343.911
568.080 443.452
568.117 367.679
568.154 239.132
568.196 144.962
568.238 94.9972
568.279 67.2269
568.321 50.6024
568.363 39.9370
568.405 32.7388
568.489 23.9000
568.573 18.8631
568.657 15.7118
568.824 12.0959
568.992 10.1497
569.160 8.96423
569.328 8.17839
569.495 7.62463
569.831 6.90134
570.166 6.45272
570.837 5.92463
571.507 5.61715
572.178 5.40816
573.520 5.12089
574.861 4.90833
575.532 4.81726
576.202 4.74159
576.873 4.71187
577.209 4.74881
577.544 4.88342
577.712 5.02991
577.879 5.28299
578.047 5.73650
578.215 6.60419
578.382 8.45738
578.466 10.2240
578.550 13.2045
578.634 18.7107
578.676 23.3169
578.718 30.2135
578.760 41.0462
578.802 59.0424
578.843 90.7356
578.864 115.371
578.885 148.268
578.928 241.757
578.970 309.927
579.012 256.004
579.055 166.359
579.101 102.742
579.148 68.3044
579.194 48.8535
579.241 37.1317
579.287 29.5672
579.333 24.4406
579.426 18.1207
579.519 14.5167
579.612 12.2581
579.798 9.66971
579.984 8.27602
580.169 7.42645
580.541 6.46223
580.913 5.93479
581.284 5.60039
582.027 5.18730
582.770 4.92328
583.513 4.72179
585.000 4.38853
586.486 4.07921
587.229 3.93584
587.972 3.83752
588.344 3.83845
588.715 3.92078
589.087 4.17718
589.458 4.83906
589.830 6.59039
590.016 8.49700
590.201 12.0641
590.294 15.0550
590.387 19.5162
590.480 26.4882
590.573 38.0529
590.666 58.9176
590.712 76.0219
590.759 101.034
590.805 139.311
590.851 200.384
590.898 302.441
590.944 475.988
590.997 784.866
591.050 1012.47
591.103 836.930
591.156 541.095
591.218 320.194
591.280 205.246
591.342 142.242
591.404 104.995
591.467 81.2958
591.529 65.3833
591.653 45.9787
591.777 35.0608
591.902 28.3372
592.150 21.0474
592.399 18.1636
592.523 18.0947
592.647 19.3706
592.772 23.2007
592.834 27.0307
592.896 33.3466
592.958 44.3005
593.020 64.6312
593.051 81.5027
593.082 106.040
593.113 142.636
593.144 196.759
593.192 319.558
593.240 410.870
593.288 341.969
593.336 224.512
593.382 148.001
593.428 103.275
593.475 76.5539
593.521 59.7401
593.614 40.7228
593.707 30.8370
593.799 25.0010
593.892 21.2408
594.078 16.7634
594.263 14.2304
594.449 12.6111
594.820 10.6566
595.191 9.50578
595.561 8.73641
596.303 7.74954
597.045 7.12302
597.787 6.67398
599.271 6.03401
600.755 5.55543
601.497 5.35587
602.239 5.20840
602.610 5.18195
602.981 5.22864
603.352 5.42982
603.723 5.99015
603.908 6.55977
604.094 7.51606
604.279 9.19242
604.465 12.3359
604.650 18.8912
604.743 24.9995
604.836 35.0675
604.928 53.0392
604.975 67.5845
605.021 88.6005
605.067 120.250
605.114 169.661
605.160 250.097
605.206 381.974
605.263 631.302
605.320 817.316
605.377 678.920
605.434 441.513
605.479 309.122
605.524 223.844
605.569 168.584
605.614 131.625
605.704 87.5744
605.794 63.5880
605.884 49.1433
605.974 39.7632
606.154 28.6698
606.334 22.5476
606.514 18.7775
606.694 16.2667
606.874 14.4960
607.234 12.1951
607.594 10.7867
607.954 9.84506
608.314 9.17543
609.034 8.29297
609.754 7.75589
610.114 7.58394
610.474 7.51421
610.654 7.57546
610.744 7.66780
610.834 7.84782
610.924 8.20997
611.014 9.01852
611.059 9.81890
611.104 11.2159
611.149 13.8557
611.194 19.1138
611.232 26.3773
611.270 31.1976
611.308 26.3317
611.346 19.0622
611.390 13.8376
611.434 11.1676
611.478 9.72746
611.523 8.88382
611.567 8.35171
611.611 7.99495
611.699 7.55862
611.788 7.30760
611.876 7.14567
612.053 6.94612
612.407 6.73175
612.760 6.59768
613.467 6.40267
614.174 6.24669
614.882 6.11243
615.589 6.01204
615.942 6.00774
616.119 6.04417
616.296 6.14641
616.473 6.41160
616.561 6.68815
616.649 7.18129
616.738 8.14125
616.782 8.97937
616.826 10.2792
616.870 12.4111
616.915 16.1574
616.959 23.2771
617.003 37.4876
617.042 58.4657
617.080 74.0528
617.119 62.3659
617.157 42.4253
617.189 30.9808
617.221 23.7141
617.252 19.0727
617.284 16.0020
617.347 12.3800
617.411 10.4270
617.474 9.25312
617.537 8.49232
617.664 7.58834
617.791 7.08402
617.917 6.76778
618.171 6.39650
618.424 6.18555
618.678 6.05031
619.185 5.90685
619.438 5.89365
619.691 5.94072
619.945 6.09822
620.198 6.49253
620.452 7.48689
620.578 8.52695
620.705 10.4053
620.832 14.1427
620.895 17.4833
620.959 22.7720
621.022 31.7231
621.085 48.0994
621.117 61.5988
621.149 81.2389
621.180 110.369
621.212 153.355
621.237 198.703
621.261 251.726
621.310 325.373
621.335 312.321
621.359 271.314
621.408 178.096
621.466 107.447
621.525 70.6566
621.583 50.5269
621.641 38.6097
621.699 31.0086
621.757 25.8826
621.874 19.6083
621.990 16.0348
622.106 13.7946
622.339 11.2143
622.572 9.81532
622.804 8.95620
623.037 8.38182
623.270 7.97355
623.735 7.43407
624.200 7.09443
625.131 6.68881
626.062 6.45354
626.993 6.30779
627.458 6.26814
627.691 6.26349
627.923 6.27966
628.156 6.34233
628.272 6.41289
628.389 6.54151
628.505 6.79681
628.563 7.02418
628.621 7.38478
628.680 8.00127
628.738 9.15781
628.767 10.1426
628.796 11.6262
628.825 13.9296
628.854 17.5053
628.892 24.3751
628.930 28.9545
628.968 24.3678
629.006 17.4909
629.036 13.8511
629.065 11.5387
629.095 10.0510
629.124 9.06957
629.183 7.91407
629.242 7.29714
629.302 6.93230
629.361 6.69914
629.479 6.42839
629.597 6.28113
629.715 6.19062
629.951 6.08548
630.188 6.02480
630.424 5.98333
630.897 5.92559
631.842 5.84731
632.787 5.78707
634.678 5.68831
636.568 5.60465
640.349 5.45956
644.130 5.32612
647.911 5.18922
651.692 5.03157
653.582 4.93658
655.473 4.82468
656.418 4.76272
657.363 4.70534
657.836 4.69123
658.309 4.72388
658.545 4.80137
658.663 4.88399
658.781 5.03222
658.899 5.32441
658.959 5.58422
659.018 5.99640
659.077 6.70214
659.136 8.03346
659.165 9.17232
659.195 10.8886
659.224 13.5642
659.254 17.7560
659.292 25.7162
659.330 31.0226
659.368 25.7116
659.406 17.7451
659.435 13.6045
659.464 10.9463
659.493 9.22050
659.522 8.07404
659.580 6.71494
659.638 5.98586
659.696 5.55254
659.753 5.27589
659.869 4.95520
660.101 4.68085
660.332 4.57317
660.795 4.53184
661.258 4.68306
661.489 4.88767
661.721 5.26571
661.952 5.97681
662.184 7.39267
662.415 10.5278
662.531 13.5880
662.647 18.8551
662.762 28.7810
662.820 37.2484
662.878 50.0954
662.936 70.6821
662.994 105.622
663.052 169.169
663.080 219.669
663.109 288.797
663.165 476.969
663.220 616.984
663.275 512.443
663.331 333.600
663.393 203.508
663.455 133.640
663.517 94.4369
663.579 70.8763
663.642 55.7029
663.704 45.4175
663.828 32.7410
663.952 25.4908
664.076 20.9366
664.325 15.7014
664.574 12.8748
664.822 11.1516
665.071 10.0091
665.319 9.20435
665.816 8.15745
666.313 7.51369
666.810 7.08082
667.307 6.77099
668.301 6.35863
669.295 6.10303
669.793 6.01857
670.290 5.97932
670.538 6.00299
670.662 6.04358
670.787 6.12653
670.911 6.30220
670.973 6.46347
671.035 6.72448
671.097 7.17936
671.159 8.05283
671.191 8.81258
671.222 9.97551
671.253 11.8315
671.284 14.7976
671.322 20.2265
671.360 23.8446
671.398 20.2176
671.436 14.7792
671.480 10.9482
671.523 8.96193
671.567 7.88073
671.610 7.24584
671.654 6.84418
671.697 6.57623
671.784 6.25097
671.871 6.06749
671.958 5.95266
672.132 5.81830
672.306 5.74136
672.480 5.68983
672.827 5.62029
673.522 5.53003
674.218 5.46212
675.608 5.35015
676.999 5.25185
678.390 5.15814
679.085 5.11159
679.780 5.06609
680.475 5.02801
680.823 5.01984
681.171 5.03475
681.518 5.11686
681.692 5.22519
681.866 5.44730
682.040 5.94836
682.127 6.44237
682.214 7.29909
682.301 8.92899
682.344 10.3326
682.388 12.4800
682.431 15.9650
682.474 21.9780
682.518 33.1924
682.561 54.9887
682.581 70.1506
682.601 87.8910
682.640 112.168
682.679 93.6253
682.719 62.2642
682.747 46.3756
682.774 35.6459
682.802 28.3676
682.830 23.3551
682.885 17.1655
682.941 13.6929
682.996 11.5561
683.052 10.1530
683.162 8.47294
683.273 7.53724
683.384 6.95742
683.606 6.29544
683.828 5.93715
684.050 5.71557
684.493 5.45646
684.937 5.30701
685.381 5.20626
686.268 5.06957
688.042 4.88598
689.817 4.72837
691.591 4.55834
692.479 4.46169
693.366 4.35652
694.253 4.25567
694.697 4.22687
695.140 4.25514
695.362 4.32197
695.584 4.46577
695.806 4.76303
696.027 5.39662
696.249 6.87997
696.360 8.38593
696.471 11.0643
696.582 16.3300
696.637 21.0047
696.693 28.3730
696.748 40.8024
696.776 50.3248
696.804 63.4730
696.832 82.1778
696.859 109.275
696.887 149.420
696.915 208.817
696.957 343.194
697.000 442.603
697.043 366.733
697.085 238.236
697.113 178.441
697.140 136.498
697.194 86.2554
697.249 59.6984
697.303 44.3659
697.358 34.7548
697.412 28.3659
697.521 20.6317
697.630 16.2875
697.739 13.5867
697.957 10.5071
698.174 8.85418
698.392 7.85143
698.828 6.74806
699.263 6.28652
699.481 6.28151
699.699 6.54481
699.916 7.41498
700.025 8.37633
700.134 10.1292
700.243 13.6092
700.297 16.6924
700.352 21.5191
700.406 29.5607
700.461 43.9272
700.488 55.4785
700.515 71.9240
700.542 95.6928
700.570 129.921
700.615 212.863
700.660 274.884
700.705 229.170
700.751 150.518
700.795 99.0268
700.838 68.9781
700.882 51.0188
700.926 39.7033
700.970 32.1739
701.014 26.9521
701.102 20.3605
701.190 16.4993
701.278 14.0358
701.453 11.1513
701.629 9.56283
701.805 8.57610
702.156 7.43097
702.508 6.78906
702.859 6.37520
703.562 5.86003
704.264 5.53572
704.967 5.29828
706.373 4.93858
707.778 4.64711
708.481 4.52832
709.184 4.46624
709.535 4.48994
709.887 4.59779
710.238 4.88057
710.589 5.56234
710.765 6.22004
710.941 7.29569
711.116 9.14122
711.292 12.5385
711.468 19.4842
711.556 25.8578
711.643 36.2226
711.731 54.4081
711.775 68.8753
711.819 89.5256
711.863 120.002
711.907 166.607
711.951 240.135
711.995 356.927
712.052 589.875
712.110 762.864
712.168 632.755
712.225 411.056
712.265 301.216
712.304 226.089
712.344 174.759
712.383 138.965
712.463 94.4029
712.542 69.1725
712.621 53.5682
712.700 43.2779
712.858 30.9241
713.016 24.0222
713.174 19.7445
713.490 14.8747
713.806 12.2597
714.122 10.6649
714.438 9.60435
714.754 8.85449
715.387 7.87719
716.019 7.30084
716.335 7.13438
716.651 7.11563
716.809 7.25235
716.888 7.41445
716.967 7.70765
717.047 8.26756
717.126 9.45180
717.165 10.5704
717.205 12.4324
717.244 15.7245
717.284 21.7288
717.322 30.8990
717.360 36.9862
717.398 30.8435
717.437 21.6659
717.463 17.1809
717.490 14.1987
717.517 12.2001
717.544 10.8380
717.598 9.17611
717.651 8.25571
717.705 7.69363
717.759 7.32539
717.866 6.88112
717.973 6.62624
718.080 6.45995
718.295 6.24883
718.724 6.00633
719.153 5.84410
720.012 5.60206
720.870 5.42488
721.300 5.36794
721.729 5.35256
722.158 5.42169
722.587 5.68581
722.802 5.97527
723.017 6.47523
723.231 7.36803
723.446 9.06315
723.660 12.6196
723.768 15.9365
723.875 21.4044
723.982 31.1213
724.036 38.9579
724.090 50.2332
724.143 67.1017
724.197 93.2180
724.251 135.229
724.304 203.190
724.372 335.619
724.440 435.271
724.474 418.112
724.508 363.099
724.576 237.788
724.647 150.971
724.718 102.223
724.789 73.9759
724.860 56.5626
724.931 45.1747
725.002 37.3448
725.144 27.5726
725.286 21.9163
725.428 18.3303
725.712 14.1676
725.996 11.8976
726.280 10.5013
726.564 9.56820
726.848 8.90584
727.416 8.03435
727.984 7.48925
728.552 7.11625
729.120 6.84433
730.256 6.47311
731.392 6.23661
731.960 6.15941
732.528 6.13217
732.812 6.17028
732.954 6.22479
733.096 6.33264
733.238 6.55936
733.309 6.76917
733.380 7.11336
733.451 7.72575
733.522 8.94929
733.558 10.0569
733.593 11.8330
733.629 14.8264
733.664 19.9762
733.702 28.4300
733.740 34.0643
733.778 28.4235
733.816 19.9617
733.851 14.9032
733.885 11.9253
733.920 10.1332
733.954 9.00218
734.023 7.73443
734.092 7.08655
734.161 6.71299
734.230 6.47852
734.368 6.20925
734.506 6.06340
734.644 5.97314
734.920 5.86612
735.473 5.75678
736.025 5.69360
736.577 5.65412
737.129 5.65098
737.405 5.68842
737.543 5.73440
737.681 5.82143
737.819 6.00004
737.888 6.16316
737.957 6.42857
738.026 6.89646
738.095 7.81978
738.130 8.64533
738.164 9.95275
738.199 12.1199
738.233 15.7731
738.272 21.9549
738.310 26.0784
738.348 21.9515
738.387 15.7647
738.411 13.0380
738.435 11.1322
738.482 8.86873
738.530 7.68864
738.578 7.01466
738.626 6.59836
738.674 6.32453
738.769 5.99853
738.865 5.81856
738.960 5.70777
739.152 5.58128
739.343 5.51116
739.534 5.46555
739.916 5.40586
740.681 5.32986
741.445 5.27104
742.975 5.16600
744.504 5.06305
746.033 4.95450
747.563 4.83442
748.327 4.77090
748.710 4.74179
749.092 4.72193
749.474 4.73375
749.665 4.77383
749.857 4.87427
750.048 5.12768
750.143 5.39163
750.239 5.86430
750.334 6.79481
750.382 7.61613
750.430 8.90359
750.478 11.0455
750.526 14.8850
750.573 22.3934
750.597 28.7895
750.621 37.9792
750.661 60.1766
750.700 76.7487
750.740 64.4806
750.779 43.4259
750.805 33.1938
750.832 26.1018
750.884 17.7863
750.937 13.4717
750.990 11.0073
751.043 9.47126
751.095 8.45301
751.201 7.22129
751.306 6.52569
751.412 6.08962
751.623 5.58335
751.834 5.30132
752.045 5.12089
752.467 4.89670
753.310 4.64712
754.154 4.48926
754.576 4.43606
754.998 4.41411
755.420 4.45864
755.842 4.66445
756.053 4.90220
756.263 5.32513
756.474 6.10203
756.685 7.61951
756.896 10.9154
757.002 14.0837
757.107 19.4532
757.213 29.3856
757.265 37.6857
757.318 50.0764
757.371 69.4804
757.424 101.386
757.476 156.814
757.529 255.639
757.585 422.249
757.640 546.871
757.696 454.841
757.751 296.388
757.796 206.932
757.840 149.651
757.885 112.719
757.930 88.1127
758.019 58.8709
758.108 43.0229
758.197 33.4876
758.287 27.3100
758.465 20.0052
758.644 15.9772
758.822 13.4947
759.001 11.8408
759.179 10.6743
759.536 9.15642
759.893 8.22511
760.250 7.60085
760.607 7.15495
761.321 6.55999
762.035 6.17837
763.463 5.70409
764.890 5.40279
766.318 5.17653
769.174 4.80860
772.030 4.44950
773.458 4.24759
774.885 4.02018
775.599 3.89748
776.313 3.77489
777.027 3.67035
777.741 3.64019
778.098 3.70175
778.455 3.88195
778.812 4.30742
779.169 5.28645
779.526 7.70235
779.704 10.2268
779.883 14.7977
779.972 18.5285
780.061 23.9541
780.151 32.1898
780.240 45.3187
780.329 67.7245
780.374 85.0800
780.418 109.253
780.463 143.844
780.508 194.709
780.552 271.138
780.597 386.003
780.663 640.849
780.730 831.845
780.797 691.797
780.863 450.180
780.930 289.096
780.996 196.257
781.062 141.297
781.129 107.000
781.195 84.3220
781.261 68.6487
781.394 48.9583
781.527 37.4897
781.659 30.2032
781.925 21.7261
782.190 17.1003
782.455 14.2577
782.721 12.3591
782.986 11.0113
783.517 9.23375
784.047 8.11228
785.108 6.74402
786.170 5.89281
786.700 5.57627
787.231 5.35083
787.762 5.34428
788.027 5.56368
788.292 6.17919
788.558 7.81839
788.690 9.57793
788.823 12.8024
788.956 19.3260
789.022 25.2232
789.088 34.6816
789.155 50.9364
789.221 81.3256
789.254 106.903
789.287 144.698
789.320 202.219
789.354 289.337
789.402 478.705
789.450 620.265
789.498 515.837
789.547 336.243
789.585 236.106
789.623 171.497
789.661 129.549
789.699 101.448
789.775 67.8580
789.852 49.5543
789.928 38.4950
790.004 31.3084
790.157 22.7760
790.309 18.0448
790.462 15.1111
790.767 11.7426
791.072 9.89705
791.377 8.74187
791.987 7.40015
792.597 6.80507
792.902 6.83660
793.207 7.33715
793.512 9.00300
793.664 10.9015
793.817 14.4701
793.969 21.8025
794.045 28.4921
794.122 39.2460
794.198 57.7480
794.236 72.1548
794.274 92.2964
794.312 121.321
794.350 164.083
794.388 228.623
794.427 326.094
794.483 543.065
794.540 708.450
794.597 593.174
794.654 389.196
794.706 260.725
794.757 183.043
794.809 135.225
794.861 104.539
794.965 69.2572
795.069 50.6504
795.173 39.6351
795.277 32.5454
795.485 24.1974
795.693 19.5843
795.900 16.7218
796.108 14.7969
796.316 13.4241
796.732 11.6086
797.147 10.4672
797.563 9.68324
797.978 9.10974
798.810 8.32001
799.641 7.79265
801.303 7.10394
802.966 6.63499
803.797 6.43586
804.628 6.24614
805.459 6.06277
805.875 5.98036
806.290 5.92498
806.706 5.96586
806.914 6.09464
807.122 6.42206
807.329 7.26856
807.433 8.17004
807.537 9.81936
807.641 13.1473
807.693 16.1560
807.745 20.9629
807.797 29.1978
807.849 44.4953
807.875 57.2940
807.901 76.0719
807.927 104.449
807.953 147.012
807.991 241.530
808.030 312.925
808.069 261.648
808.107 172.157
808.153 105.094
808.198 69.7706
808.243 50.2351
808.288 38.5673
808.333 31.1005
808.378 26.0442
808.468 19.8241
808.558 16.2692
808.648 14.0315
808.828 11.4461
809.008 10.0380
809.188 9.17050
809.368 8.58831
809.548 8.17260
809.908 7.61952
810.268 7.26706
810.988 6.83514
811.708 6.56917
812.428 6.37874
813.868 6.09941
815.308 5.87402
816.028 5.76654
816.748 5.65854
817.468 5.55361
817.828 5.51072
818.188 5.49335
818.548 5.55864
818.728 5.67859
818.908 5.95105
819.088 6.60502
819.178 7.27019
819.268 8.44405
819.358 10.7105
819.403 12.6773
819.448 15.7109
819.493 20.6489
819.538 29.2317
819.583 45.2758
819.606 58.3809
819.628 76.6862
819.649 98.7304
819.669 124.524
819.710 160.566
819.751 134.643
819.792 89.4822
819.830 60.6749
819.868 43.4804
819.906 32.9935
819.944 26.3190
820.021 18.6990
820.097 14.7134
820.173 12.3610
820.249 10.8514
820.402 9.07780
820.555 8.09556
820.707 7.48271
821.012 6.76361
821.317 6.34982
821.622 6.07107
822.232 5.68894
822.843 5.41097
823.148 5.30850
823.453 5.27073
823.605 5.31055
823.758 5.43745
823.910 5.74111
824.063 6.43696
824.216 8.13362
824.292 9.88210
824.368 12.9968
824.444 19.0956
824.482 24.4382
824.521 32.7518
824.559 46.4780
824.578 56.7792
824.597 70.6263
824.616 89.8181
824.635 116.633
824.654 154.974
824.673 208.963
824.707 346.991
824.740 452.543
824.757 435.680
824.774 379.416
824.807 249.486
824.839 164.639
824.871 114.621
824.904 84.3878
824.936 65.2817
824.968 52.4901
825.000 43.5889
825.064 32.2989
825.128 25.6516
825.193 21.4002
825.321 16.4128
825.450 13.6704
825.578 11.9757
825.707 10.8406
825.835 10.0343
826.092 8.97419
826.349 8.31390
826.606 7.86449
826.863 7.53869
827.377 7.09558
827.891 6.80456
828.919 6.43301
829.947 6.19086
830.976 6.01102
831.490 5.94516
831.747 5.92705
832.004 5.93447
832.261 6.00900
832.389 6.10943
832.518 6.31144
832.646 6.74950
832.710 7.16478
832.775 7.85453
832.839 9.09381
832.903 11.5564
832.935 13.7598
832.967 17.2064
833.000 22.8181
833.032 32.0647
833.071 49.5088
833.110 62.5523
833.149 52.8821
833.188 36.2732
833.212 28.8231
833.236 23.4818
833.284 16.9532
833.332 13.4231
833.379 11.3457
833.427 10.0293
833.475 9.14363
833.570 8.05954
833.666 7.44105
833.761 7.05046
833.952 6.59363
834.143 6.33744
834.333 6.17251
834.715 5.96617
835.097 5.83330
835.478 5.73255
836.241 5.57311
836.623 5.50572
837.005 5.44870
837.386 5.41383
837.768 5.43751
837.959 5.50167
838.149 5.64142
838.340 5.93096
838.531 6.54641
838.722 7.97570
838.817 9.41166
838.913 11.9333
839.008 16.7897
839.056 21.0023
839.103 27.5029
839.151 38.0983
839.199 56.5570
839.223 71.0690
839.247 91.1933
839.270 119.658
839.294 159.363
839.337 262.283
839.380 339.927
839.423 284.036
839.466 186.561
839.501 130.018
839.537 94.2521
839.573 71.3654
839.608 56.2783
839.679 38.4641
839.750 28.8659
839.821 23.1048
839.892 19.3735
840.034 14.9681
840.177 12.5343
840.319 11.0322
840.461 10.0284
840.603 9.31866
840.887 8.39173
841.172 7.81997
841.456 7.43479
841.740 7.15845
842.309 6.78774
842.877 6.54884
844.014 6.25207
845.151 6.06665
846.289 5.93245
848.563 5.73306
850.837 5.56818
851.974 5.48655
853.111 5.39975
854.248 5.30273
854.817 5.24912
855.385 5.19365
855.954 5.14672
856.238 5.13977
856.523 5.16984
856.807 5.30879
856.949 5.48682
857.091 5.84565
857.233 6.63823
857.304 7.40338
857.375 8.69713
857.447 11.0747
857.518 15.9489
857.553 20.4398
857.589 27.6674
857.624 39.8667
857.660 60.8468
857.680 78.0939
857.700 98.4032
857.740 126.951
857.780 106.858
857.820 71.4141
857.847 54.3211
857.873 42.3679
857.926 28.1876
857.979 20.7680
858.032 16.4974
858.085 13.8209
858.138 12.0392
858.244 9.87387
858.350 8.64787
858.456 7.88000
858.668 6.99267
858.880 6.50782
859.092 6.20998
859.515 5.89033
859.939 5.82268
860.151 5.92505
860.362 6.22944
860.574 7.02334
860.680 7.85268
860.786 9.33694
860.892 12.2442
860.945 14.8012
860.998 18.7824
861.051 25.3737
861.104 37.0493
861.157 59.5865
861.183 78.5244
861.210 105.451
861.255 172.307
861.300 222.533
861.345 186.045
861.390 122.808
861.435 80.5457
861.480 56.1794
861.525 41.7560
861.570 32.7302
861.615 26.7645
861.660 22.6308
861.750 17.4320
861.839 14.4006
861.929 12.4695
862.109 10.2173
862.289 8.98274
862.468 8.22084
862.648 7.70972
862.827 7.34546
863.187 6.86302
863.546 6.55817
864.264 6.19016
864.983 5.96888
865.701 5.81389
867.138 5.59133
868.575 5.41247
869.294 5.32698
870.012 5.24406
870.371 5.20723
870.731 5.18044
871.090 5.17883
871.449 5.24349
871.629 5.33334
871.808 5.50393
871.988 5.83090
872.168 6.48975
872.347 7.95342
872.437 9.37896
872.527 11.8179
872.617 16.3619
872.662 20.1842
872.706 25.9149
872.751 34.9096
872.796 49.7962
872.841 75.8103
872.864 95.8688
872.886 122.513
872.933 201.267
872.980 260.920
873.027 218.456
873.074 144.002
873.115 99.4580
873.155 71.6997
873.196 54.2500
873.236 42.8647
873.317 29.5600
873.398 22.4486
873.479 18.2055
873.560 15.4698
873.721 12.2461
873.883 10.4694
874.045 9.37516
874.207 8.64655
874.369 8.13512
874.693 7.48618
875.016 7.14925
875.178 7.09991
875.340 7.22317
875.421 7.44854
875.502 7.97620
875.542 8.49596
875.583 9.37732
875.623 10.9695
875.664 13.9206
875.702 18.3637
875.740 21.3100
875.778 18.3138
875.817 13.8443
875.844 11.5993
875.872 10.1206
875.900 9.14388
875.928 8.48048
875.983 7.67656
876.039 7.23001
876.095 6.95540
876.150 6.77247
876.261 6.54574
876.372 6.40908
876.484 6.31536
876.706 6.18892
877.151 6.03375
877.595 5.92947
878.485 5.78255
879.374 5.67583
881.153 5.51643
882.931 5.38729
884.710 5.26313
885.599 5.19678
886.488 5.12431
887.378 5.04583
887.823 5.00895
888.267 4.98676
888.490 4.99187
888.712 5.02291
888.934 5.10867
889.156 5.31993
889.379 5.86123
889.490 6.43659
889.601 7.48744
889.712 9.60756
889.768 11.5198
889.823 14.5692
889.879 19.7760
889.935 29.4242
889.962 37.4434
889.990 49.2051
890.018 66.8153
890.046 93.0577
890.067 120.297
890.088 152.363
890.130 197.254
890.151 189.836
890.172 165.427
890.214 109.573
890.242 82.3621
890.270 63.4751
890.327 41.1264
890.383 29.4897
890.439 22.8043
890.495 18.6341
890.551 15.8591
890.663 12.5017
890.775 10.6069
890.887 9.42312
891.112 8.06303
891.336 7.32428
891.560 6.86932
891.785 6.56379
892.009 6.34570
892.458 6.05578
892.907 5.87166
893.804 5.64965
894.701 5.52223
895.150 5.48147
895.599 5.45814
896.047 5.46562
896.272 5.49399
896.496 5.55967
896.720 5.71173
896.833 5.86143
896.945 6.12017
897.057 6.61585
897.113 7.04885
897.169 7.72687
897.225 8.87029
897.281 10.9836
897.309 12.7561
897.337 15.3773
897.365 19.3686
897.393 25.4560
897.432 37.5841
897.470 45.6702
897.508 37.5816
897.547 25.4488
897.572 19.8592
897.597 16.0428
897.647 11.6067
897.698 9.35111
897.748 8.08653
897.798 7.31313
897.848 6.81018
897.949 6.21733
898.050 5.89456
898.150 5.69910
898.351 5.48133
898.552 5.36576
898.753 5.29433
899.155 5.20788
899.557 5.15311
899.959 5.11137
900.764 5.04390
901.568 4.98649
901.970 4.96278
902.372 4.94898
902.774 4.96611
902.975 5.00745
903.176 5.10664
903.377 5.35304
903.478 5.60890
903.578 6.06844
903.679 6.97673
903.729 7.78396
903.779 9.05441
903.829 11.1903
903.880 15.0584
903.930 22.7791
903.955 29.4606
903.980 39.2444
904.020 62.0935
904.060 79.1456
904.100 66.5046
904.140 44.8282
904.181 29.9309
904.223 21.5402
904.264 16.6738
904.306 13.6784
904.347 11.7137
904.389 10.3658
904.472 8.68109
904.555 7.70591
904.637 7.08756
904.803 6.36899
904.969 5.97590
905.135 5.73267
905.466 5.45097
905.798 5.29254
906.130 5.18927
906.793 5.05705
908.119 4.90088
909.446 4.78919
912.099 4.59131
914.751 4.38004
916.078 4.26125
917.404 4.13220
918.731 3.99726
920.057 3.87878
920.720 3.84865
921.384 3.87275
922.047 4.02044
922.710 4.46892
923.042 4.94117
923.373 5.74928
923.705 7.18825
924.036 9.92316
924.202 12.2311
924.368 15.6815
924.534 21.0712
924.700 29.9856
924.865 45.8934
924.948 58.7561
925.031 77.3572
925.114 105.241
925.197 148.704
925.280 218.911
925.363 333.506
925.466 554.595
925.570 721.615
925.674 601.966
925.777 393.019
925.895 239.068
926.013 156.608
926.131 110.480
926.248 82.7591
926.366 64.9186
926.484 52.8077
926.719 37.8554
926.955 29.2874
927.190 23.8872
927.661 17.6455
928.132 14.2505
928.603 12.1621
929.074 10.7642
929.545 9.76889
930.487 8.44939
931.429 7.60901
932.371 7.01582
933.313 6.56129
935.197 5.85694
936.139 5.54613
937.081 5.23567
938.023 4.92053
938.494 4.77782
938.965 4.69434
939.201 4.71480
939.436 4.83270
939.672 5.15300
939.907 5.92995
940.143 7.87902
940.261 9.90969
940.378 13.5391
940.496 20.6271
940.555 26.8105
940.614 36.3450
940.673 51.8795
940.732 78.7215
940.761 99.6789
940.790 128.542
940.820 168.795
940.849 224.610
940.905 376.520
940.960 494.962
941.015 417.628
941.071 275.983
941.105 211.155
941.139 164.452
941.207 107.048
941.275 75.7882
941.343 57.3244
941.411 45.5493
941.479 37.6046
941.614 27.8284
941.750 22.2204
941.886 18.6768
942.158 14.5500
942.430 12.2783
942.701 10.8646
942.973 9.90750
943.245 9.21888
943.788 8.29466
944.332 7.70013
945.418 6.96557
946.505 6.51020
947.592 6.18215
949.766 5.69352
951.940 5.28842
953.027 5.09869
954.114 4.93302
954.657 4.87886
955.201 4.87484
955.744 4.98350
956.287 5.36564
956.559 5.78261
956.831 6.50567
957.103 7.80487
957.374 10.2899
957.646 15.5474
957.782 20.4852
957.918 28.6631
958.054 43.3012
958.122 55.1513
958.189 72.3126
958.257 98.1287
958.325 138.408
958.393 203.646
958.461 310.467
958.546 515.924
958.630 671.413
958.715 560.568
958.799 366.587
958.872 249.595
958.946 177.052
959.019 131.636
959.093 102.065
959.240 67.6231
959.387 49.2796
959.534 38.3559
959.681 31.3139
959.974 23.0188
960.268 18.4452
960.562 15.6205
960.856 13.7322
961.150 12.3944
961.738 10.6419
962.325 9.55520
962.913 8.81814
963.501 8.28475
964.676 7.55822
965.852 7.07543
967.027 6.71831
968.203 6.43052
970.554 5.94758
971.729 5.71588
972.905 5.47219
974.080 5.21392
974.668 5.09489
975.256 5.02842
975.549 5.05238
975.843 5.16735
976.137 5.47339
976.431 6.21488
976.725 8.09055
976.872 10.0633
977.019 13.6334
977.166 20.7292
977.239 27.0324
977.313 36.9341
977.386 53.4702
977.460 83.0894
977.496 107.002
977.533 140.972
977.570 190.057
977.606 260.735
977.668 434.947
977.730 568.968
977.792 477.861
977.854 314.380
977.923 193.951
977.993 128.747
978.062 92.0267
978.132 69.8359
978.202 55.4744
978.271 45.6784
978.410 33.5392
978.549 26.5375
978.689 22.1062
978.967 16.9528
979.245 14.1313
979.523 12.3873
979.802 11.2162
980.080 10.3810
980.637 9.27498
981.193 8.57678
981.750 8.09364
982.306 7.73587
983.420 7.22695
983.976 7.03160
984.533 6.86005
985.089 6.71272
985.368 6.65753
985.646 6.63706
985.924 6.71703
986.063 6.85823
986.203 7.17014
986.342 7.89558
986.411 8.61198
986.481 9.83652
986.550 12.1027
986.620 16.7597
986.655 21.0348
986.690 27.9053
986.724 39.4276
986.759 59.0012
986.779 75.6006
986.800 95.1598
986.840 123.284
986.881 104.831
986.921 71.0863
986.947 55.2476
986.972 43.9898
987.023 30.2709
987.074 22.9049
987.125 18.5823
987.177 15.8438
987.228 13.9991
987.330 11.7352
987.432 10.4384
987.534 9.61699
987.739 8.65606
987.943 8.12065
988.147 7.78216
988.556 7.37683
988.965 7.13851
989.373 6.97755
990.191 6.76493
991.008 6.62257
991.826 6.51512
993.461 6.35427
996.730 6.13094
1000.00 5.96340
1003.76 5.79690
1007.51 5.63075
1009.39 5.53685
1010.33 5.48377
1011.27 5.42434
1012.21 5.35631
1012.68 5.31911
1013.14 5.28239
1013.61 5.25683
1013.85 5.26075
1014.08 5.29867
1014.32 5.43193
1014.44 5.58920
1014.55 5.89277
1014.67 6.54202
1014.73 7.15056
1014.79 8.13262
1014.85 9.89457
1014.90 13.2477
1014.93 16.2624
1014.96 20.7202
1014.99 27.6928
1015.02 38.6583
1015.04 49.2339
1015.06 61.7206
1015.10 78.8158
1015.14 66.4311
1015.18 45.2793
1015.22 30.2195
1015.26 21.9623
1015.30 17.1467
1015.34 14.1608
1015.39 12.1980
1015.43 10.8423
1015.51 9.13993
1015.59 8.13705
1015.67 7.50518
1015.84 6.76145
1016.00 6.34455
1016.17 6.08255
1016.49 5.76633
1016.82 5.57373
1017.15 5.43479
1017.81 5.21955
1018.14 5.12207
1018.47 5.02562
1018.80 4.93194
1019.12 4.85686
1019.29 4.84249
1019.45 4.86840
1019.62 4.98393
1019.78 5.31032
1019.95 6.21602
1020.03 7.20736
1020.11 9.05526
1020.19 12.8460
1020.23 16.3049
1020.28 21.8805
1020.32 31.4755
1020.34 39.1797
1020.36 49.4449
1020.38 64.9567
1020.40 86.7747
1020.42 121.393
1020.44 171.136
1020.47 285.780
1020.50 370.137
1020.52 355.477
1020.53 310.043
1020.56 206.320
1020.59 137.463
1020.62 96.3496
1020.65 71.4047
1020.68 55.9561
1020.71 45.1695
1020.73 37.6288
1020.79 28.1798
1020.85 22.4981
1020.91 18.9108
1021.02 14.6752
1021.14 12.3142
1021.25 10.8643
1021.36 9.88296
1021.48 9.19159
1021.71 8.27851
1021.94 7.71075
1022.17 7.32575
1022.39 7.04805
1022.85 6.67389
1023.31 6.43197
1024.23 6.13189
1025.14 5.94561
1026.06 5.81223
1027.89 5.61637
1029.72 5.45637
1031.56 5.29766
1032.47 5.21180
1032.93 5.16770
1033.39 5.12603
1033.85 5.09808
1034.08 5.10105
1034.31 5.13581
1034.53 5.25417
1034.65 5.39136
1034.76 5.64820
1034.88 6.18335
1034.94 6.66969
1034.99 7.45580
1035.05 8.84873
1035.11 11.4610
1035.14 13.7356
1035.16 17.0352
1035.19 22.3146
1035.22 30.2044
1035.26 47.0605
1035.30 59.1669
1035.34 49.6318
1035.38 33.9620
1035.42 23.0952
1035.46 16.9808
1035.50 13.4376
1035.54 11.2542
1035.63 8.84698
1035.71 7.62503
1035.79 6.91927
1035.87 6.47336
1036.03 5.96352
1036.20 5.69521
1036.36 5.55067
1036.69 5.49867
1037.02 5.83431
1037.18 6.31151
1037.34 7.26908
1037.51 9.36652
1037.59 11.3639
1037.67 14.7021
1037.75 20.7201
1037.84 32.7545
1037.88 43.5142
1037.92 60.4075
1037.96 87.9132
1038.00 131.764
1038.05 217.892
1038.10 281.835
1038.15 236.088
1038.20 156.740
1038.24 113.418
1038.28 85.2200
1038.31 65.8821
1038.35 52.9957
1038.43 37.0059
1038.50 28.0843
1038.58 22.6200
1038.65 19.0266
1038.80 14.7402
1038.95 12.3210
1039.10 10.8144
1039.40 9.08646
1039.70 8.14049
1040.00 7.55548
1040.30 7.15817
1040.60 6.87283
1041.20 6.48739
1041.80 6.23697
1042.99 5.92157
1044.19 5.71827
1045.39 5.56441
1047.78 5.31323
1050.18 5.06728
1051.38 4.92838
1052.57 4.77141
1053.17 4.68662
1053.77 4.60241
1054.37 4.53271
1054.97 4.52093
1055.27 4.57424
1055.57 4.71813
1055.87 5.04951
1056.17 5.79642
1056.47 7.61335
1056.62 9.48339
1056.77 12.7871
1056.92 19.2649
1056.99 24.9314
1057.07 33.5780
1057.14 47.8856
1057.22 72.9083
1057.25 92.8851
1057.29 120.001
1057.33 158.050
1057.36 211.153
1057.43 352.091
1057.50 460.594
1057.57 386.824
1057.64 254.555
1057.69 185.682
1057.73 139.093
1057.78 107.672
1057.83 86.3492
1057.93 59.4435
1058.03 44.4280
1058.12 35.0663
1058.22 28.9427
1058.42 21.5225
1058.61 17.3522
1058.81 14.7476
1059.00 12.9948
1059.20 11.7483
1059.59 10.1129
1059.98 9.10021
1060.37 8.41678
1060.76 7.92701
1061.54 7.26792
1062.31 6.84230
1063.09 6.53804
1063.87 6.30376
1065.43 5.94216
1066.21 5.78666
1066.99 5.63693
1067.77 5.49403
1068.16 5.43601
1068.55 5.41417
1068.75 5.43767
1068.94 5.51276
1069.14 5.69229
1069.33 6.10289
1069.53 7.09820
1069.62 8.12493
1069.72 9.92759
1069.82 13.4639
1069.87 16.5516
1069.92 21.2140
1069.97 28.9541
1070.01 42.0812
1070.04 52.7620
1070.06 66.9984
1070.09 86.8360
1070.11 114.317
1070.13 149.135
1070.16 188.412
1070.20 245.275
1070.22 235.935
1070.25 206.267
1070.29 136.625
1070.33 91.3024
1070.38 64.4201
1070.42 48.1844
1070.46 38.0666
1070.50 31.1133
1070.55 26.2583
1070.63 20.1556
1070.72 16.5151
1070.80 14.2059
1070.97 11.4846
1071.14 9.97199
1071.31 9.03858
1071.49 8.40660
1071.66 7.95793
1072.00 7.35955
1072.34 6.98236
1073.02 6.52706
1073.70 6.25301
1074.39 6.06132
1075.75 5.78578
1077.11 5.56372
1077.80 5.45647
1078.48 5.34869
1079.16 5.25068
1079.50 5.22269
1079.84 5.24512
1080.18 5.42277
1080.36 5.67176
1080.53 6.18975
1080.70 7.37399
1080.78 8.53153
1080.87 10.5145
1080.95 14.2588
1081.04 22.0082
1081.08 29.3361
1081.12 41.0337
1081.17 61.6080
1081.21 96.8276
1081.25 159.576
1081.30 206.340
1081.35 173.450
1081.39 115.935
1081.43 85.8914
1081.46 65.9019
1081.49 52.1701
1081.52 42.5461
1081.59 30.3590
1081.65 23.5229
1081.72 19.2085
1081.78 16.3879
1081.91 12.9430
1082.04 10.9968
1082.17 9.77577
1082.42 8.36356
1082.68 7.57980
1082.94 7.08769
1083.45 6.49739
1083.97 6.15955
1084.23 6.05710
1084.48 6.02209
1084.74 6.14304
1084.87 6.34885
1085.00 6.78563
1085.13 7.77373
1085.19 8.73358
1085.26 10.3141
1085.32 13.1946
1085.39 18.7828
1085.42 23.6702
1085.45 31.1718
1085.48 43.0373
1085.51 61.9375
1085.54 80.3017
1085.56 101.123
1085.60 131.892
1085.64 111.965
1085.69 75.4432
1085.72 55.8637
1085.75 42.7733
1085.78 34.0323
1085.81 28.1985
1085.88 20.8759
1085.94 16.7474
1086.00 14.1961
1086.07 12.5047
1086.19 10.4558
1086.32 9.29270
1086.44 8.55776
1086.70 7.69541
1086.95 7.21092
1087.20 6.90087
1087.70 6.52302
1088.21 6.29503
1088.71 6.13779
1089.72 5.92339
1090.73 5.77259
1091.74 5.65187
1093.75 5.44826
1095.77 5.25427
1097.79 5.03615
1098.80 4.90599
1099.80 4.75606
1100.31 4.68032
1100.56 4.65143
1100.81 4.64520
1101.06 4.70751
1101.19 4.80726
1101.32 5.02088
1101.44 5.50385
1101.51 5.97082
1101.57 6.75580
1101.63 8.17313
1101.69 10.9970
1101.73 13.5544
1101.76 17.4136
1101.79 23.8407
1101.82 33.9622
1101.84 43.1862
1101.86 54.0812
1101.90 69.6109
1101.94 59.2478
1101.98 40.4208
1102.02 28.6424
1102.05 21.5659
1102.09 17.1171
1102.12 14.2046
1102.19 10.7963
1102.26 8.96304
1102.33 7.84882
1102.40 7.13431
1102.54 6.27687
1102.68 5.78679
1102.82 5.47559
1103.10 5.09829
1103.66 4.72928
1104.23 4.60296
1104.51 4.64583
1104.79 4.82362
1105.07 5.26578
1105.35 6.28333
1105.63 8.76977
1105.77 11.3144
1105.91 15.8292
1105.98 19.4958
1106.05 24.6714
1106.12 32.3260
1106.19 44.1420
1106.26 63.3688
1106.33 96.7165
1106.37 122.731
1106.40 158.771
1106.44 209.224
1106.47 279.478
1106.54 468.089
1106.60 613.864
1106.67 515.109
1106.73 338.140
1106.78 241.130
1106.83 178.372
1106.88 136.745
1106.93 108.366
1107.03 73.5735
1107.12 54.4523
1107.22 42.6455
1107.32 34.9696
1107.52 25.7528
1107.71 20.5625
1107.91 17.3293
1108.11 15.1568
1108.30 13.6198
1108.70 11.5941
1109.09 10.3447
1109.48 9.50341
1109.88 8.90201
1110.66 8.10585
1111.45 7.62050
1111.85 7.46396
1112.24 7.39653
1112.44 7.44567
1112.53 7.52336
1112.63 7.67713
1112.73 7.99550
1112.78 8.27643
1112.83 8.71627
1112.88 9.44603
1112.93 10.7527
1112.98 13.3194
1113.00 15.5766
1113.02 18.7200
1113.06 25.7682
1113.10 30.4623
1113.14 25.7435
1113.18 18.6730
1113.21 14.7896
1113.24 12.4284
1113.27 10.9204
1113.30 9.92374
1113.36 8.75208
1113.42 8.12349
1113.48 7.74834
1113.54 7.50542
1113.66 7.21585
1113.78 7.04974
1113.90 6.94247
1114.14 6.80583
1114.62 6.64950
1115.10 6.55262
1115.58 6.49591
1115.82 6.48982
1116.06 6.51391
1116.30 6.60621
1116.42 6.70975
1116.54 6.89889
1116.66 7.27491
1116.72 7.61057
1116.78 8.14528
1116.84 9.06131
1116.90 10.7928
1116.93 12.2734
1116.96 14.5161
1116.99 18.0226
1117.02 23.5351
1117.06 34.1038
1117.10 40.9133
1117.14 33.8024
1117.18 23.5117
1117.21 18.1378
1117.23 14.7600
1117.26 12.4725
1117.29 10.9890
1117.35 9.18133
1117.40 8.21496
1117.46 7.62539
1117.52 7.25205
1117.63 6.81003
1117.74 6.56817
1117.86 6.41874
1118.08 6.24439
1118.31 6.14280
1118.53 6.07225
1118.99 5.97032
1119.89 5.81554
1120.80 5.67035
1121.70 5.51503
1122.15 5.43612
1122.60 5.37233
1122.83 5.36075
1123.06 5.38438
1123.28 5.48552
1123.51 5.77010
1123.73 6.54775
1123.85 7.39770
1123.96 8.97434
1124.07 12.1864
1124.13 15.1296
1124.19 19.7583
1124.24 27.7976
1124.30 42.3868
1124.33 54.9255
1124.36 72.6563
1124.38 98.9589
1124.41 137.939
1124.46 229.004
1124.50 299.560
1124.54 252.352
1124.59 167.092
1124.64 102.048
1124.69 68.3166
1124.74 49.5227
1124.79 38.2240
1124.84 30.9519
1124.90 26.0027
1125.00 19.8764
1125.10 16.3487
1125.20 14.1143
1125.41 11.5146
1125.61 10.0836
1125.81 9.20281
1126.02 8.61038
1126.22 8.18745
1126.63 7.62634
1127.04 7.27431
1127.45 7.03235
1127.86 6.85675
1128.67 6.62012
1129.49 6.48122
1129.90 6.45060
1130.31 6.48327
1130.51 6.57088
1130.61 6.66292
1130.72 6.82562
1130.82 7.13899
1130.87 7.41158
1130.92 7.83559
1130.97 8.53893
1131.02 9.80694
1131.07 12.3374
1131.10 14.6004
1131.12 17.8045
1131.16 24.7469
1131.20 29.3721
1131.24 24.7351
1131.28 17.7842
1131.30 14.2648
1131.33 12.0327
1131.36 10.5502
1131.39 9.54064
1131.44 8.30270
1131.49 7.63807
1131.55 7.23122
1131.60 6.97342
1131.71 6.67003
1131.82 6.50252
1131.93 6.40046
1132.15 6.28229
1132.58 6.17119
1133.01 6.11201
1133.88 6.03770
1134.75 5.98634
1135.62 5.94974
1136.49 5.93737
1136.92 5.95733
1137.14 5.98595
1137.36 6.04362
1137.57 6.16906
1137.68 6.29037
1137.79 6.49602
1137.90 6.89009
1137.95 7.22943
1138.01 7.75842
1138.06 8.66334
1138.12 10.2966
1138.14 11.6501
1138.17 13.6399
1138.20 16.6360
1138.22 21.1456
1138.26 30.2854
1138.30 36.3555
1138.34 30.2917
1138.38 21.1513
1138.40 16.6392
1138.43 13.7304
1138.46 11.7078
1138.48 10.3751
1138.54 8.71817
1138.59 7.81844
1138.64 7.26376
1138.69 6.91169
1138.80 6.49534
1138.90 6.27056
1139.01 6.13512
1139.22 5.98543
1139.43 5.90699
1139.64 5.85917
1140.06 5.80267
1140.90 5.74287
1141.74 5.70405
1143.42 5.64285
1145.10 5.58857
1146.78 5.53653
1148.46 5.48681
1149.30 5.46612
1150.14 5.45992
1150.56 5.47736
1150.98 5.55084
1151.19 5.65804
1151.30 5.76121
1151.40 5.93764
1151.51 6.27148
1151.56 6.56362
1151.61 7.00923
1151.67 7.76521
1151.72 9.11033
1151.75 10.2609
1151.77 11.8813
1151.80 14.2866
1151.82 17.8488
1151.86 25.2855
1151.90 30.2150
1151.94 25.2795
1151.98 17.8386
1152.02 12.4232
1152.07 9.72182
1152.11 8.25996
1152.15 7.40426
1152.20 6.86709
1152.24 6.50995
1152.33 6.08120
1152.42 5.84160
1152.51 5.69667
1152.68 5.53344
1152.86 5.44559
1153.04 5.39112
1153.39 5.32390
1154.09 5.24306
1154.80 5.17810
1155.50 5.11500
1155.86 5.08764
1156.21 5.07464
1156.56 5.11241
1156.74 5.18694
1156.91 5.36059
1157.09 5.78875
1157.18 6.22719
1157.27 7.00552
1157.36 8.51519
1157.40 9.82810
1157.44 11.8544
1157.49 15.1515
1157.53 20.8709
1157.58 31.5167
1157.60 40.1712
1157.62 52.2122
1157.64 67.4387
1157.66 84.4865
1157.70 108.361
1157.74 91.2636
1157.78 61.7151
1157.81 47.9863
1157.83 38.4604
1157.88 26.3981
1157.93 19.8162
1157.98 15.9174
1158.03 13.4342
1158.08 11.7570
1158.17 9.69578
1158.27 8.51599
1158.37 7.77052
1158.57 6.90215
1158.76 6.42238
1158.96 6.12224
1159.35 5.77917
1159.74 5.64049
1159.94 5.66635
1160.13 5.82937
1160.33 6.32936
1160.43 6.88233
1160.52 7.90034
1160.62 9.93913
1160.67 11.7533
1160.72 14.6048
1160.77 19.3464
1160.82 27.8002
1160.87 44.1172
1160.89 57.4781
1160.92 76.3884
1160.94 99.5849
1160.96 125.749
1161.00 162.903
1161.02 156.932
1161.04 137.366
1161.09 92.3895
1161.12 67.0786
1161.15 50.8491
1161.18 39.7746
1161.22 32.4751
1161.28 23.4505
1161.34 18.4977
1161.41 15.4119
1161.47 13.3846
1161.60 10.9669
1161.73 9.59710
1161.86 8.74631
1162.12 7.75984
1162.38 7.21559
1162.64 6.87854
1163.15 6.49166
1163.67 6.29843
1163.93 6.25363
1164.19 6.25253
1164.45 6.33216
1164.58 6.43565
1164.71 6.63224
1164.84 7.03655
1164.90 7.40409
1164.97 7.98697
1165.03 9.01675
1165.09 10.9740
1165.13 12.7429
1165.16 15.4059
1165.19 19.6708
1165.22 26.5617
1165.26 39.0495
1165.30 47.0533
1165.34 38.7122
1165.38 26.5579
1165.40 20.7165
1165.43 16.8751
1165.48 12.3263
1165.53 10.0205
1165.58 8.74732
1165.63 7.95201
1165.68 7.44269
1165.78 6.83340
1165.88 6.49737
1165.99 6.29463
1166.19 6.06604
1166.39 5.94222
1166.59 5.86501
1167.00 5.77075
1167.81 5.66883
1168.61 5.60559
1170.23 5.51788
1171.85 5.45258
1173.47 5.39891
1175.09 5.35561
1175.90 5.34167
1176.71 5.34620
1177.11 5.37224
1177.52 5.46069
1177.72 5.58325
1177.82 5.69868
1177.92 5.89400
1178.02 6.25987
1178.07 6.57770
1178.12 7.05890
1178.17 7.86885
1178.22 9.29158
1178.25 10.4960
1178.27 12.1717
1178.30 14.6266
1178.32 18.2112
1178.36 25.9630
1178.40 31.1209
1178.44 25.9644
1178.48 18.2113
1178.50 14.3918
1178.53 11.9323
1178.56 10.2235
1178.58 9.09805
1178.64 7.69966
1178.69 6.92965
1178.74 6.46609
1178.79 6.16702
1178.90 5.82081
1179.01 5.63223
1179.11 5.51895
1179.32 5.39455
1179.75 5.28947
1180.17 5.24224
1181.01 5.19101
1181.86 5.15567
1183.55 5.09367
1185.24 5.02903
1186.94 4.95325
1187.78 4.90810
1188.63 4.85609
1189.47 4.79785
1189.90 4.77045
1190.32 4.75532
1190.53 4.76136
1190.74 4.78896
1190.96 4.86225
1191.17 5.03850
1191.38 5.48581
1191.48 5.95712
1191.59 6.80096
1191.70 8.49224
1191.75 9.99806
1191.80 12.3734
1191.85 16.3503
1191.91 23.5234
1191.96 37.6323
1191.99 49.4210
1192.01 66.3632
1192.03 85.5878
1192.06 108.295
1192.10 140.492
1192.14 118.395
1192.19 78.9773
1192.24 50.2448
1192.29 34.6075
1192.34 25.7665
1192.38 20.4907
1192.43 16.9913
1192.48 14.6447
1192.58 11.6888
1192.68 9.96634
1192.77 8.88681
1192.97 7.62906
1193.16 6.93633
1193.36 6.51014
1193.55 6.22342
1193.74 6.01856
1194.13 5.74590
1194.52 5.57345
1195.30 5.36411
1196.08 5.23738
1196.85 5.14839
1198.41 5.02134
1199.96 4.92409
1201.52 4.84057
1202.29 4.80480
1203.07 4.78340
1203.46 4.79196
1203.85 4.85216
1204.04 4.94717
1204.14 5.03947
1204.24 5.19755
1204.33 5.49519
1204.38 5.75371
1204.43 6.14351
1204.48 6.79596
1204.53 7.92874
1204.58 10.1834
1204.60 12.0705
1204.62 14.7872
1204.66 20.8818
1204.70 24.9495
1204.74 20.8813
1204.78 14.7829
1204.82 10.3719
1204.87 8.14434
1204.91 6.95536
1204.96 6.26570
1205.00 5.83528
1205.05 5.55010
1205.14 5.21112
1205.23 5.02035
1205.32 4.90277
1205.49 4.76906
1205.85 4.64634
1206.21 4.58224
1206.93 4.49552
1207.65 4.42008
1208.37 4.34610
1208.72 4.31447
1209.08 4.30010
1209.44 4.34563
1209.62 4.43428
1209.80 4.63892
1209.98 5.14182
1210.07 5.65987
1210.16 6.56842
1210.25 8.35045
1210.29 9.90460
1210.34 12.2428
1210.38 16.1232
1210.43 22.8704
1210.47 35.4641
1210.50 45.4549
1210.52 59.2723
1210.54 76.6835
1210.56 97.2507
1210.60 125.542
1210.62 120.928
1210.64 105.359
1210.68 70.5638
1210.73 44.1739
1210.78 30.1363
1210.83 22.3311
1210.88 17.6488
1210.92 14.6410
1210.97 12.5973
1211.07 10.0720
1211.16 8.62030
1211.26 7.70140
1211.45 6.63135
1211.64 6.04190
1211.84 5.67380
1212.22 5.24191
1212.60 4.99256
1212.99 4.82592
1213.75 4.60386
1215.29 4.31365
1216.82 4.06937
1218.36 3.81445
1219.13 3.68234
1219.89 3.56683
1220.66 3.54493
1221.04 3.65436
1221.43 3.99633
1221.81 4.96917
1222.00 6.04834
1222.19 8.05422
1222.39 12.1992
1222.48 15.9940
1222.58 22.1331
1222.67 32.7564
1222.72 41.0957
1222.77 52.8297
1222.82 69.8200
1222.87 95.1526
1222.91 133.837
1222.96 191.511
1223.03 320.257
1223.10 416.895
1223.17 347.719
1223.24 228.150
1223.30 152.300
1223.37 107.121
1223.43 79.2696
1223.49 61.3097
1223.62 40.5060
1223.75 29.6117
1223.87 23.1039
1224.00 18.9459
1224.25 14.0363
1224.50 11.3079
1224.76 9.62426
1225.26 7.72823
1225.77 6.91860
1226.02 6.91573
1226.27 7.40588
1226.52 9.02854
1226.65 10.8103
1226.78 14.0394
1226.90 20.4236
1226.97 25.9492
1227.03 34.4563
1227.09 48.2271
1227.15 71.9093
1227.19 90.5646
1227.22 115.403
1227.25 150.974
1227.28 198.448
1227.34 329.964
1227.40 431.248
1227.46 362.981
1227.52 239.719
1227.57 162.777
1227.63 116.272
1227.68 86.7535
1227.73 67.9379
1227.84 45.8528
1227.95 34.0813
1228.06 27.0579
1228.16 22.5082
1228.38 17.1265
1228.59 14.1037
1228.80 12.2093
1229.23 9.99835
1229.66 8.75031
1230.09 7.94849
1230.94 6.95834
1231.79 6.34676
1232.65 5.91072
1234.36 5.27467
1236.07 4.77798
1236.92 4.57268
1237.78 4.44528
1238.20 4.45511
1238.63 4.57708
1239.06 4.92975
1239.48 5.80018
1239.91 8.00167
1240.13 10.2970
1240.34 14.3747
1240.55 22.3383
1240.66 29.2623
1240.77 39.7986
1240.87 56.9741
1240.98 86.4786
1241.09 140.536
1241.19 242.069
1241.30 408.000
1241.40 536.423
1241.50 452.416
1241.61 299.620
1241.69 216.141
1241.76 160.512
1241.84 123.493
1241.92 98.1952
1242.08 67.3251
1242.23 50.0845
1242.39 39.5012
1242.54 32.5214
1242.86 24.1171
1243.17 19.3820
1243.48 16.4121
1244.10 12.9704
1244.73 11.0674
1245.35 9.87556
1245.97 9.05887
1246.60 8.46494
1247.84 7.64953
1249.09 7.10572
1251.59 6.38120
1254.08 5.84919
1255.33 5.60066
1256.57 5.34478
1257.82 5.07935
1258.45 4.95841
1259.07 4.89018
1259.38 4.91192
1259.69 5.02180
1260.00 5.31559
1260.32 6.02304
1260.63 7.80717
1260.78 9.67488
1260.94 13.0377
1261.10 19.6658
1261.17 25.5076
1261.25 34.6290
1261.33 49.6856
1261.41 76.2994
1261.45 97.4211
1261.49 127.117
1261.52 169.385
1261.56 227.453
1261.63 380.525
1261.70 499.150
1261.77 419.523
1261.84 276.111
1261.89 203.602
1261.93 153.869
1261.98 119.903
1262.03 96.6272
1262.13 66.9257
1262.22 50.1744
1262.32 39.6526
1262.41 32.7364
1262.60 24.3442
1262.79 19.5733
1262.98 16.5845
1263.36 13.1386
1263.75 11.2471
1264.13 10.0752
1264.51 9.28009
1264.89 8.70930
1265.65 7.94080
1266.42 7.44436
1267.94 6.82626
1269.47 6.43665
1270.99 6.15008
1274.04 5.70280
1277.09 5.28696
1278.62 5.05427
1280.15 4.78347
1280.91 4.62785
1281.67 4.45749
1282.43 4.27805
1283.20 4.11871
1283.58 4.07609
1283.96 4.10338
1284.34 4.29013
1284.72 4.86062
1285.10 6.48274
1285.30 8.28414
1285.49 11.6286
1285.58 14.4299
1285.68 18.5023
1285.77 24.7025
1285.87 34.6004
1285.96 51.6185
1286.06 82.5599
1286.11 108.257
1286.15 144.664
1286.20 199.422
1286.25 278.184
1286.32 469.341
1286.40 616.435
1286.48 519.667
1286.55 344.311
1286.63 221.366
1286.71 151.699
1286.79 110.141
1286.87 84.5352
1286.95 67.3977
1287.02 55.6656
1287.18 40.7618
1287.34 32.0309
1287.50 26.4397
1287.81 19.8713
1288.12 16.2389
1288.44 13.9787
1288.75 12.4535
1289.06 11.3646
1289.69 9.91086
1290.32 8.98856
1290.95 8.34433
1291.57 7.86306
1292.83 7.16352
1293.46 6.88829
1294.08 6.64782
1294.71 6.46189
1295.03 6.42440
1295.34 6.49398
1295.65 6.86421
1295.81 7.34172
1295.97 8.29729
1296.12 10.3705
1296.20 12.3483
1296.28 15.5847
1296.36 21.4168
1296.44 32.6624
1296.48 42.4329
1296.52 57.3432
1296.56 80.7613
1296.59 117.750
1296.65 194.712
1296.70 254.662
1296.75 215.394
1296.81 143.586
1296.87 88.3359
1296.93 59.6288
1296.99 43.4741
1297.06 33.9621
1297.12 27.7554
1297.18 23.6054
1297.31 18.4228
1297.43 15.4364
1297.56 13.5405
1297.81 11.3231
1298.06 10.0945
1298.31 9.32383
1298.81 8.41675
1299.31 7.89564
1299.80 7.55342
1300.80 7.11628
1301.80 6.83391
1302.80 6.62446
1304.80 6.30403
1306.80 6.02798
1307.80 5.88579
1308.80 5.72999
1309.80 5.55420
1310.30 5.46269
1310.80 5.38728
1311.05 5.37202
1311.30 5.39623
1311.55 5.50746
1311.79 5.82233
1312.04 6.68532
1312.17 7.62451
1312.29 9.35502
1312.42 12.8401
1312.48 15.9897
1312.54 20.8855
1312.61 29.2119
1312.67 43.9218
1312.70 55.7102
1312.73 72.4181
1312.76 96.4180
1312.79 130.751
1312.85 218.429
1312.90 285.471
1312.95 241.344
1313.01 161.522
1313.06 104.662
1313.12 72.3188
1313.18 53.4184
1313.23 41.8506
1313.29 34.0713
1313.34 28.7754
1313.45 22.0269
1313.56 18.0444
1313.68 15.5200
1313.90 12.5497
1314.12 10.8982
1314.34 9.87458
1314.57 9.18027
1314.79 8.68539
1315.23 8.02594
1315.68 7.60895
1316.12 7.32139
1316.57 7.11105
1317.46 6.82247
1318.35 6.64241
1318.79 6.59006
1319.24 6.59225
1319.46 6.65287
1319.68 6.85373
1319.79 7.11245
1319.85 7.34469
1319.90 7.70520
1319.96 8.32684
1320.01 9.45768
1320.04 10.4210
1320.07 11.8552
1320.10 14.0468
1320.12 17.2497
1320.16 23.7360
1320.20 28.0366
1320.24 23.7299
1320.28 17.2354
1320.31 13.2985
1320.35 11.0332
1320.38 9.62559
1320.41 8.76172
1320.48 7.77417
1320.55 7.27371
1320.62 6.97933
1320.69 6.79591
1320.83 6.58147
1321.10 6.38881
1321.37 6.29806
1321.92 6.19818
1322.47 6.13271
1323.57 6.03196
1324.67 5.94654
1326.86 5.79056
1329.05 5.63281
1331.25 5.44884
1332.35 5.33491
1333.44 5.19371
1334.54 5.00638
1335.09 4.88552
1335.64 4.74058
1335.91 4.65894
1336.19 4.57565
1336.46 4.50262
1336.73 4.47857
1336.87 4.51900
1337.01 4.64060
1337.15 4.92971
1337.28 5.59309
1337.42 7.20538
1337.49 8.87112
1337.56 11.7699
1337.63 17.4275
1337.66 22.2303
1337.69 29.5358
1337.73 41.6233
1337.76 61.5822
1337.78 76.7604
1337.80 97.3267
1337.81 125.394
1337.83 163.452
1337.87 276.028
1337.90 361.235
1337.92 347.844
1337.94 303.572
1337.97 201.943
1338.01 128.360
1338.04 88.0849
1338.08 64.5399
1338.11 49.9042
1338.15 40.0407
1338.19 33.4268
1338.26 25.0861
1338.33 20.1431
1338.40 17.0263
1338.55 13.3369
1338.69 11.2963
1338.84 10.0248
1339.13 8.54764
1339.42 7.72194
1339.71 7.19271
1340.29 6.54313
1340.87 6.16164
1341.16 6.05416
1341.45 6.04806
1341.74 6.29811
1341.88 6.66872
1342.03 7.44266
1342.17 9.16864
1342.25 10.8426
1342.32 13.6099
1342.39 18.6663
1342.46 28.5644
1342.50 37.2889
1342.53 50.7790
1342.57 72.3077
1342.61 106.921
1342.65 176.546
1342.70 230.805
1342.75 195.811
1342.79 131.046
1342.83 95.2322
1342.87 72.0146
1342.90 56.4679
1342.94 45.7891
1343.01 32.5511
1343.08 25.2485
1343.15 20.6928
1343.22 17.7277
1343.36 14.1405
1343.50 12.0979
1343.64 10.8148
1343.92 9.32586
1344.20 8.49656
1344.48 7.97531
1344.77 7.61561
1345.05 7.35351
1345.61 6.99268
1346.17 6.75321
1347.30 6.44613
1348.42 6.24845
1349.55 6.10315
1351.80 5.88609
1354.05 5.70775
1355.18 5.61998
1356.31 5.52659
1357.43 5.42121
1358.00 5.36212
1358.56 5.30010
1359.12 5.24723
1359.40 5.24039
1359.68 5.27892
1359.97 5.45339
1360.11 5.67684
1360.25 6.12295
1360.39 7.10801
1360.46 8.06010
1360.53 9.63355
1360.60 12.5162
1360.67 18.1856
1360.71 23.2120
1360.74 31.0326
1360.78 43.6202
1360.81 64.0835
1360.83 83.2563
1360.86 105.025
1360.90 137.077
1360.95 116.112
1360.99 77.9008
1361.02 59.7439
1361.05 46.9133
1361.11 31.6784
1361.16 23.5118
1361.22 18.7218
1361.28 15.6876
1361.33 13.6441
1361.45 11.1371
1361.56 9.69296
1361.68 8.78951
1361.90 7.73573
1362.13 7.15115
1362.36 6.78673
1362.82 6.35625
1363.28 6.10879
1363.73 5.94451
1364.65 5.72962
1365.56 5.58230
1366.47 5.46365
1368.30 5.25529
1369.21 5.15217
1370.13 5.04554
1371.04 4.93671
1371.96 4.83896
1372.41 4.80857
1372.87 4.81267
1373.33 4.89527
1373.78 5.16663
1374.24 5.95331
1374.47 6.83249
1374.70 8.46689
1374.93 11.8146
1375.04 14.8248
1375.15 19.6087
1375.27 27.6661
1375.38 42.2640
1375.44 54.1024
1375.50 71.0564
1375.55 95.7087
1375.61 131.452
1375.71 220.495
1375.80 289.819
1375.90 245.406
1375.99 163.767
1376.06 123.158
1376.12 95.1303
1376.25 61.4645
1376.37 43.7695
1376.50 33.5194
1376.63 27.0775
1376.75 22.7609
1377.01 17.4872
1377.26 14.4786
1377.52 12.5782
1378.02 10.3626
1378.53 9.13651
1379.04 8.36660
1379.55 7.83922
1380.06 7.45375
1381.07 6.91867
1382.09 6.55041
1382.60 6.41096
1382.85 6.36208
1383.10 6.34883
1383.36 6.43289
1383.48 6.56956
1383.61 6.86206
1383.74 7.52246
1383.80 8.16691
1383.87 9.23275
1383.93 11.1887
1383.99 15.0207
1384.02 18.4726
1384.06 23.8649
1384.09 32.5764
1384.12 46.2069
1384.14 59.2607
1384.16 73.9164
1384.20 94.7022
1384.24 80.5298
1384.28 55.3636
1384.31 41.2779
1384.34 31.9328
1384.37 25.7418
1384.40 21.6405
1384.47 16.5251
1384.53 13.6614
1384.59 11.8769
1384.65 10.7202
1384.77 9.32144
1384.89 8.52285
1385.02 8.02263
1385.26 7.43299
1385.51 7.09734
1385.75 6.88069
1386.24 6.60975
1386.73 6.43989
1387.22 6.31804
1388.20 6.14298
1390.15 5.90359
1392.11 5.71224
1394.07 5.51914
1395.04 5.40786
1396.02 5.27486
1397.00 5.10313
1397.49 4.99505
1397.98 4.86894
1398.22 4.80121
1398.47 4.73715
1398.71 4.69284
1398.96 4.71733
1399.08 4.79679
1399.20 4.97502
1399.32 5.35210
1399.45 6.16311
1399.57 8.07358
1399.63 9.97229
1399.69 13.2694
1399.75 19.4884
1399.78 24.8617
1399.81 32.6868
1399.84 45.4283
1399.87 65.8592
1399.91 102.804
1399.94 166.896
1399.97 281.205
1400.00 367.071
1400.02 353.072
1400.03 307.917
1400.07 204.684
1400.09 145.090
1400.12 107.675
1400.14 82.1879
1400.17 65.6609
1400.22 45.2793
1400.27 34.2092
1400.32 27.3060
1400.37 22.8587
1400.47 17.4588
1400.57 14.4056
1400.67 12.5197
1400.77 11.2475
1400.88 10.3404
1401.08 9.14136
1401.28 8.39995
1401.48 7.89569
1401.69 7.53478
1402.09 7.04941
1402.50 6.73777
1403.31 6.35474
1404.12 6.11944
1404.93 5.95131
1406.55 5.70104
1408.17 5.48268
1408.98 5.36517
1409.79 5.23039
1410.19 5.15311
1410.60 5.06774
1411.00 4.97533
1411.41 4.88562
1411.61 4.85288
1411.81 4.84611
1412.01 4.90152
1412.22 5.11169
1412.42 5.76009
1412.52 6.50081
1412.62 7.91160
1412.72 10.8545
1412.77 13.5987
1412.82 17.9586
1412.87 25.6532
1412.90 31.5648
1412.92 39.8226
1412.95 52.2365
1412.97 69.9494
1413.00 96.6006
1413.02 136.710
1413.06 228.151
1413.10 299.807
1413.12 290.082
1413.14 253.876
1413.18 168.872
1413.22 106.594
1413.26 72.3106
1413.30 52.7605
1413.34 41.0492
1413.39 33.2070
1413.43 27.9405
1413.51 21.2535
1413.59 17.3243
1413.68 14.8527
1413.84 11.9540
1414.01 10.3450
1414.18 9.35125
1414.34 8.68063
1414.51 8.20081
1414.84 7.56256
1415.17 7.16053
1415.51 6.88432
1415.84 6.68297
1416.50 6.40563
1417.17 6.22187
1418.50 5.98552
1419.83 5.83262
1421.16 5.72149
1421.83 5.67822
1422.49 5.64923
1422.83 5.64930
1423.16 5.68489
1423.33 5.74557
1423.49 5.90508
1423.58 6.09056
1423.66 6.48010
1423.70 6.85647
1423.74 7.47673
1423.78 8.62882
1423.82 10.7498
1423.86 13.8925
1423.90 15.9934
1423.94 13.8857
1423.98 10.7380
1424.00 9.33753
1424.02 8.36529
1424.07 7.23623
1424.12 6.63564
1424.17 6.30010
1424.26 5.95146
1424.36 5.78598
1424.55 5.63639
1424.74 5.56915
1425.12 5.50348
1425.50 5.46600
1427.01 5.36822
1430.05 5.20494
1431.57 5.12315
1433.09 5.04384
1433.85 5.01303
1434.60 5.01373
1434.98 5.05821
1435.17 5.11375
1435.36 5.22086
1435.55 5.44922
1435.65 5.66531
1435.74 6.02975
1435.84 6.70681
1435.89 7.28937
1435.93 8.16033
1435.98 9.60398
1436.03 12.0738
1436.08 16.7466
1436.10 20.7235
1436.12 26.1078
1436.16 38.8781
1436.20 47.3862
1436.24 38.8825
1436.28 26.1082
1436.31 19.7674
1436.33 15.6990
1436.36 12.9706
1436.39 11.0981
1436.44 8.81460
1436.50 7.55113
1436.55 6.77617
1436.60 6.28511
1436.71 5.70876
1436.82 5.39284
1436.93 5.20239
1437.15 4.98654
1437.36 4.86697
1437.58 4.78907
1438.01 4.68388
1438.88 4.53394
1439.74 4.39248
1440.61 4.23627
1441.04 4.15380
1441.48 4.07988
1441.91 4.05838
1442.13 4.11524
1442.34 4.30165
1442.56 4.83738
1442.67 5.42560
1442.78 6.51341
1442.89 8.73712
1442.94 10.7181
1442.99 13.8524
1443.05 19.1071
1443.07 23.1073
1443.10 28.5806
1443.13 36.2348
1443.16 47.1667
1443.18 63.0180
1443.21 85.9393
1443.23 112.311
1443.26 143.647
1443.30 187.550
1443.32 181.011
1443.35 157.693
1443.39 105.053
1443.43 71.2537
1443.47 51.1966
1443.52 38.7560
1443.56 30.6902
1443.64 21.2586
1443.72 16.3068
1443.80 13.3174
1443.89 11.4045
1444.05 9.12505
1444.22 7.83900
1444.38 7.03347
1444.71 6.07765
1445.04 5.52625
1445.37 5.16307
1446.03 4.71274
1446.68 4.54411
1447.01 4.65025
1447.34 5.07875
1447.67 6.34997
1447.84 7.76175
1448.00 10.3605
1448.17 15.6387
1448.25 20.3363
1448.33 27.7431
1448.41 40.2946
1448.50 62.5646
1448.54 80.4325
1448.58 105.782
1448.62 142.236
1448.66 194.443
1448.73 326.972
1448.80 428.809
1448.87 362.195
1448.94 240.939
1449.00 164.551
1449.07 117.920
1449.13 88.6121
1449.19 69.4336
1449.32 46.8757
1449.44 34.8795
1449.56 27.6330
1449.69 22.9647
1449.94 17.3863
1450.19 14.2702
1450.44 12.3200
1450.93 10.0505
1451.43 8.78390
1451.93 7.97489
1452.92 6.98110
1453.92 6.35584
1454.42 6.10996
1454.92 5.89838
1455.41 5.74741
1455.66 5.73252
1455.91 5.83105
1456.16 6.23725
1456.29 6.73491
1456.41 7.69376
1456.54 9.73295
1456.60 11.6064
1456.66 14.6456
1456.72 19.9017
1456.78 29.7816
1456.81 38.0823
1456.85 50.3599
1456.88 68.9173
1456.91 96.9890
1456.93 126.978
1456.95 161.015
1457.00 209.622
1457.02 202.066
1457.05 176.743
1457.09 118.379
1457.13 85.6447
1457.17 64.1009
1457.20 49.9164
1457.24 40.3034
1457.31 28.6708
1457.38 22.2244
1457.45 18.2853
1457.53 15.6942
1457.67 12.5783
1457.81 10.8210
1457.96 9.71443
1458.24 8.42171
1458.53 7.69108
1458.82 7.22075
1459.40 6.63855
1459.97 6.27306
1460.55 6.00588
1461.70 5.59492
1462.85 5.23239
1463.42 5.04583
1464.00 4.85272
1464.58 4.67725
1464.86 4.63505
1465.15 4.70379
1465.44 5.11283
1465.58 5.66176
1465.73 6.77496
1465.87 9.24686
1465.94 11.6101
1466.01 15.5484
1466.09 22.5731
1466.12 28.2156
1466.16 36.2965
1466.19 48.2286
1466.23 66.4182
1466.27 94.9092
1466.30 138.193
1466.35 232.834
1466.40 308.431
1466.45 262.544
1466.50 175.285
1466.56 111.250
1466.61 75.7746
1466.67 55.4381
1466.72 42.9649
1466.78 34.8173
1466.83 29.2082
1466.94 22.1766
1467.05 18.0707
1467.16 15.4411
1467.38 12.3420
1467.60 10.6153
1467.82 9.53079
1468.26 8.25623
1468.70 7.53238
1469.14 7.06158
1470.02 6.47067
1470.90 6.09377
1471.78 5.81414
1473.54 5.37958
1474.42 5.19095
1475.30 5.01577
1476.18 4.86615
1477.06 4.79211
1477.50 4.82867
1477.94 4.97762
1478.38 5.35683
1478.82 6.24619
1479.26 8.43336
1479.48 10.6783
1479.70 14.6442
1479.92 22.2547
1480.03 28.7873
1480.14 38.7254
1480.25 54.5645
1480.36 81.2224
1480.47 128.702
1480.57 214.743
1480.69 360.821
1480.80 475.653
1480.91 402.932
1481.03 267.414
1481.16 162.716
1481.29 107.391
1481.43 76.7714
1481.56 58.5492
1481.70 46.7429
1481.83 38.7692
1482.10 28.8465
1482.36 23.1202
1482.63 19.4827
1483.16 15.2314
1483.70 12.8810
1484.23 11.4195
1484.77 10.4303
1485.30 9.71986
1486.37 8.77017
1487.44 8.16580
1488.51 7.74560
1489.57 7.43471
1491.71 6.99973
1493.85 6.70303
1498.12 6.30213
1502.39 6.01376
1506.67 5.75542
1508.80 5.61433
1509.87 5.53368
1510.94 5.44059
1512.01 5.32759
1512.54 5.26107
1513.08 5.18883
1513.34 5.15350
1513.61 5.12430
1513.88 5.11369
1514.14 5.15576
1514.41 5.35785
1514.55 5.62155
1514.68 6.15177
1514.81 7.32854
1514.88 8.45762
1514.95 10.3134
1515.01 13.6901
1515.08 20.3826
1515.11 26.4000
1515.15 35.4375
1515.18 49.7689
1515.21 72.6486
1515.23 94.1452
1515.26 119.670
1515.30 156.668
1515.34 133.333
1515.39 89.7373
1515.43 63.1862
1515.46 46.5000
1515.50 35.9400
1515.54 28.9951
1515.62 20.8339
1515.69 16.4301
1515.77 13.7816
1515.84 12.0569
1516.00 10.0010
1516.15 8.85035
1516.30 8.12956
1516.45 7.64123
1516.60 7.29073
1516.91 6.82337
1517.21 6.52605
1517.82 6.16544
1518.43 5.94619
1519.03 5.79081
1520.25 5.56059
1521.47 5.36371
1522.07 5.26284
1522.68 5.15620
1523.29 5.04995
1523.59 5.01104
1523.90 5.01353
1524.05 5.05407
1524.20 5.15267
1524.35 5.36682
1524.50 5.83094
1524.66 6.90718
1524.73 7.97255
1524.81 9.80158
1524.88 13.1906
1524.96 20.1758
1525.00 26.5764
1525.04 36.8383
1525.07 53.9674
1525.09 66.6041
1525.11 81.9810
1525.13 107.066
1525.16 135.491
1525.20 177.622
1525.22 171.934
1525.25 151.421
1525.29 101.947
1525.34 66.3474
1525.39 46.2410
1525.43 34.5578
1525.48 27.3301
1525.53 22.5833
1525.58 19.3042
1525.67 15.2144
1525.77 12.7917
1525.86 11.2544
1526.06 9.43135
1526.25 8.41767
1526.44 7.78292
1526.63 7.35165
1526.82 7.04067
1527.20 6.62163
1527.58 6.35226
1528.35 6.01845
1529.11 5.81032
1529.88 5.65997
1531.41 5.43572
1532.93 5.24993
1534.46 5.06498
1535.23 4.96400
1535.61 4.91118
1535.99 4.86018
1536.37 4.82541
1536.57 4.83046
1536.76 4.88028
1536.95 5.05212
1537.04 5.25398
1537.14 5.63308
1537.23 6.42175
1537.28 7.13855
1537.33 8.25330
1537.38 10.1691
1537.43 13.6530
1537.47 20.5485
1537.50 26.4616
1537.52 34.6077
1537.54 44.0914
1537.56 55.3373
1537.60 71.6333
1537.64 61.4337
1537.68 42.2427
1537.72 28.3674
1537.77 20.5691
1537.81 16.0537
1537.85 13.2666
1537.90 11.4385
1537.94 10.1764
1538.02 8.58981
1538.11 7.66044
1538.20 7.06332
1538.37 6.35836
1538.54 5.95794
1538.71 5.70339
1539.05 5.39235
1539.40 5.20351
1539.74 5.07007
1540.43 4.87786
1541.80 4.59760
1543.17 4.35663
1543.86 4.24866
1544.54 4.16531
1545.23 4.14582
1545.91 4.29874
1546.60 4.96360
1546.94 5.80549
1547.29 7.48819
1547.63 11.1407
1547.80 14.6073
1547.97 20.3049
1548.14 30.4423
1548.23 38.5398
1548.32 49.9243
1548.40 66.8037
1548.49 92.3666
1548.57 132.099
1548.66 193.187
1548.78 325.776
1548.90 430.841
1549.02 366.034
1549.14 243.544
1549.27 158.209
1549.39 109.292
1549.51 80.2809
1549.64 62.0694
1549.76 49.9023
1549.88 41.5122
1550.13 30.8811
1550.38 24.5967
1550.62 20.5718
1551.11 15.8131
1551.61 13.1557
1552.10 11.4932
1552.59 10.3604
1553.08 9.54478
1554.07 8.44680
1555.05 7.74926
1555.55 7.50450
1556.04 7.35732
1556.29 7.37171
1556.41 7.43633
1556.53 7.58509
1556.65 7.91688
1556.72 8.23068
1556.78 8.73394
1556.84 9.62700
1556.90 11.3136
1556.93 12.7951
1556.96 15.0678
1556.99 18.6730
1557.02 24.1942
1557.06 34.7619
1557.10 41.5528
1557.14 34.4428
1557.18 24.1347
1557.21 18.3018
1557.24 14.7815
1557.27 12.5498
1557.30 11.0834
1557.37 9.35031
1557.43 8.44431
1557.49 7.89766
1557.55 7.55046
1557.68 7.13291
1557.80 6.89386
1557.93 6.73621
1558.18 6.52988
1558.68 6.27244
1559.18 6.07858
1560.18 5.73521
1561.18 5.39542
1562.18 5.04531
1562.68 4.88911
1563.17 4.81171
1563.42 4.85545
1563.67 5.02806
1563.92 5.46721
1564.17 6.49780
1564.42 9.04488
1564.55 11.6663
1564.67 16.3067
1564.80 25.2301
1564.86 32.9767
1564.92 44.5873
1564.99 63.4263
1565.05 94.6681
1565.11 150.131
1565.17 251.459
1565.24 422.609
1565.30 557.091
1565.37 470.155
1565.43 312.035
1565.47 238.358
1565.51 186.559
1565.59 122.332
1565.66 87.0938
1565.74 66.1050
1565.82 52.6682
1565.90 43.5498
1566.05 32.2794
1566.21 25.7541
1566.37 21.6435
1566.68 16.8374
1566.99 14.1749
1567.30 12.5200
1567.62 11.3956
1567.93 10.5901
1568.55 9.51092
1569.18 8.82249
1569.80 8.34339
1570.43 7.98920
1571.68 7.49306
1572.93 7.15575
1575.43 6.70639
1577.93 6.39942
1580.43 6.15907
1581.68 6.05478
1582.92 5.96510
1583.55 5.93490
1584.17 5.94273
1584.49 5.99565
1584.64 6.05764
1584.80 6.17430
1584.96 6.41474
1585.03 6.63677
1585.11 7.00273
1585.19 7.66100
1585.23 8.20252
1585.27 9.00371
1585.31 10.2482
1585.35 12.2951
1585.38 15.8693
1585.42 22.3008
1585.46 32.3756
1585.50 38.8618
1585.54 32.1000
1585.58 22.2956
1585.61 16.8904
1585.64 13.5858
1585.67 11.4106
1585.70 10.0256
1585.76 8.37550
1585.82 7.50024
1585.88 6.98521
1585.94 6.65750
1586.07 6.27897
1586.19 6.07507
1586.31 5.95076
1586.55 5.80819
1587.04 5.67161
1587.53 5.59319
1588.51 5.47724
1589.48 5.37276
1591.43 5.15285
1593.38 4.89058
1595.33 4.55146
1596.31 4.33752
1597.28 4.08542
1598.26 3.80279
1598.75 3.67486
1599.24 3.61662
1599.72 3.81498
1599.97 4.19802
1600.21 5.08676
1600.46 7.25259
1600.58 9.47219
1600.70 13.4032
1600.76 16.5371
1600.82 21.0052
1600.88 27.5990
1600.94 37.7517
1601.00 54.2219
1601.07 82.6779
1601.13 135.339
1601.16 177.096
1601.19 234.626
1601.24 391.180
1601.30 510.713
1601.36 427.647
1601.41 280.187
1601.47 187.651
1601.52 132.302
1601.57 97.9437
1601.62 75.6733
1601.72 49.8856
1601.82 36.1718
1601.93 28.0028
1602.03 22.7162
1602.23 16.4412
1602.44 12.9128
1602.64 10.6989
1603.05 8.09296
1603.46 6.77405
1603.66 6.58041
1603.87 6.97269
1604.07 8.75400
1604.17 10.8463
1604.27 14.7201
1604.33 17.8506
1604.38 22.3128
1604.43 28.8399
1604.48 38.6965
1604.53 54.1594
1604.58 79.4960
1604.63 122.818
1604.68 198.206
1604.74 339.785
1604.80 457.040
1604.86 395.479
1604.92 267.899
1604.97 189.474
1605.02 139.047
1605.07 106.540
1605.12 85.1965
1605.22 59.0779
1605.32 44.8261
1605.42 36.0107
1605.52 30.2396
1605.71 23.2086
1605.91 19.1499
1606.11 16.5533
1606.51 13.4739
1606.91 11.7989
1607.11 11.3284
1607.30 11.1713
1607.50 11.6146
1607.60 12.3206
1607.70 13.7281
1607.80 16.6430
1607.90 23.1024
1607.95 29.4531
1608.00 39.9404
1608.05 58.9739
1608.10 92.9920
1608.15 152.030
1608.20 197.587
1608.25 168.624
1608.30 115.152
1608.35 80.5863
1608.40 59.6962
1608.44 46.5929
1608.49 38.0210
1608.58 27.9754
1608.67 22.5448
1608.76 19.2568
1608.86 17.0937
1609.04 14.4654
1609.23 12.9377
1609.41 11.9495
1609.78 10.7282
1610.15 9.98518
1610.51 9.47510
1611.25 8.79546
1611.99 8.34502
1612.72 8.01444
1614.20 7.54517
1615.67 7.21347
1617.14 6.95605
1620.09 6.55325
1623.04 6.20704
1624.51 6.03008
1625.99 5.83577
1627.46 5.60770
1628.20 5.47531
1628.93 5.33184
1629.67 5.19949
1630.04 5.16997
1630.41 5.23108
1630.77 5.57080
1630.96 6.02117
1631.14 6.94042
1631.33 8.97181
1631.42 10.9179
1631.51 14.1718
1631.60 20.0096
1631.69 31.5281
1631.74 41.6524
1631.79 57.2570
1631.83 82.0526
1631.88 121.719
1631.94 202.804
1632.00 266.610
1632.06 226.651
1632.12 151.578
1632.19 98.9652
1632.25 68.7496
1632.31 50.9627
1632.37 39.8592
1632.44 32.5209
1632.50 27.4287
1632.63 20.9995
1632.75 17.2238
1632.88 14.7987
1633.13 11.9433
1633.38 10.3419
1633.63 9.33749
1634.14 8.14543
1634.64 7.45459
1635.14 6.98887
1636.15 6.35061
1637.15 5.86290
1637.66 5.64219
1638.16 5.44906
1638.66 5.36579
1638.92 5.46082
1639.17 5.81760
1639.42 6.87518
1639.54 8.04606
1639.67 10.1765
1639.80 14.4266
1639.86 18.1511
1639.92 23.8966
1639.98 33.1814
1640.05 49.0324
1640.11 77.6996
1640.14 99.9275
1640.17 130.035
1640.24 219.722
1640.30 292.556
1640.36 251.357
1640.43 169.622
1640.47 127.694
1640.52 98.4366
1640.56 78.1716
1640.60 63.8710
1640.69 45.8122
1640.78 35.4630
1640.87 28.8646
1640.95 24.4787
1641.13 19.0531
1641.31 15.9173
1641.48 13.9330
1641.83 11.5899
1642.18 10.2679
1642.53 9.42742
1643.23 8.41135
1643.93 7.80501
1644.63 7.38729
1646.03 6.80137
1646.73 6.56596
1647.44 6.34766
1648.14 6.14220
1648.84 5.96423
1649.19 5.90436
1649.54 5.89436
1649.89 5.99396
1650.24 6.35384
1650.59 7.41602
1650.76 8.59397
1650.94 10.7754
1651.11 15.1578
1651.20 19.0789
1651.29 25.1438
1651.38 35.2581
1651.46 52.8078
1651.51 66.7626
1651.55 86.2435
1651.60 113.722
1651.64 151.237
1651.72 254.009
1651.80 336.159
1651.88 287.198
1651.96 192.783
1652.06 118.603
1652.16 79.3845
1652.25 57.6690
1652.35 44.7601
1652.45 36.3541
1652.54 30.6808
1652.74 23.5857
1652.93 19.4724
1653.12 16.8480
1653.51 13.7625
1653.89 12.0422
1654.28 10.9658
1654.67 10.2324
1655.05 9.70254
1655.83 8.98867
1656.60 8.53066
1657.37 8.21000
1658.14 7.97251
1659.69 7.64204
1661.23 7.42689
1662.01 7.35379
1662.78 7.32024
1663.16 7.34350
1663.55 7.46455
1663.74 7.64352
1663.84 7.81570
1663.94 8.10402
1664.03 8.64633
1664.08 9.10276
1664.13 9.79812
1664.18 10.9524
1664.23 12.9330
1664.27 16.6948
1664.30 19.8287
1664.32 24.2717
1664.36 34.6848
1664.40 41.3853
1664.44 34.3939
1664.48 24.2505
1664.51 19.4982
1664.53 16.2452
1664.58 12.5307
1664.63 10.6245
1664.68 9.54703
1664.74 8.87626
1664.79 8.44773
1664.89 7.94067
1664.99 7.66115
1665.09 7.49285
1665.30 7.30395
1665.71 7.13932
1666.12 7.06224
1666.93 6.97702
1667.75 6.92124
1669.39 6.84516
1670.21 6.84653
1670.41 6.87309
1670.62 6.95153
1670.72 7.05004
1670.82 7.26846
1670.87 7.48953
1670.92 7.88869
1670.97 8.68662
1671.00 9.40127
1671.02 10.4146
1671.06 12.6159
1671.10 14.0888
1671.14 12.6198
1671.18 10.4173
1671.22 8.97984
1671.25 8.18683
1671.33 7.45991
1671.41 7.16266
1671.49 7.01654
1671.64 6.87999
1671.80 6.81903
1672.11 6.76312
1672.42 6.73493
1673.66 6.67570
1676.14 6.59810
1681.10 6.47886
1683.58 6.42969
1686.06 6.38661
1688.54 6.35662
1689.16 6.35829
1689.78 6.38002
1690.09 6.41661
1690.40 6.51932
1690.56 6.65011
1690.71 6.96372
1690.79 7.31547
1690.87 8.02230
1690.91 8.68573
1690.95 9.78210
1690.99 11.7087
1691.02 15.0803
1691.06 20.3310
1691.10 23.8247
1691.14 20.3286
1691.18 15.0764
1691.21 11.7038
1691.25 9.85028
1691.29 8.74454
1691.33 8.08355
1691.40 7.35029
1691.48 6.98574
1691.63 6.65305
1691.78 6.51147
1692.07 6.39345
1692.37 6.34520
1692.97 6.30315
1693.57 6.28245
1695.96 6.23769
1700.75 6.17473
1705.54 6.12127
1707.93 6.10309
1709.13 6.11878
1709.43 6.14264
1709.73 6.20923
1709.88 6.29398
1710.03 6.49448
1710.10 6.71716
1710.18 7.16750
1710.21 7.58878
1710.25 8.25839
1710.29 9.40723
1710.32 11.4297
1710.36 14.6519
1710.40 16.8019
1710.44 14.6492
1710.48 11.4258
1710.51 9.57078
1710.54 8.45073
1710.61 7.32645
1710.67 6.82961
1710.74 6.57367
1710.87 6.33360
1711.00 6.22874
1711.27 6.14095
1711.53 6.10517
1712.59 6.06096
1714.70 6.03819
1715.76 6.03771
1716.81 6.05771
1717.34 6.09410
1717.87 6.20123
1718.13 6.34471
1718.26 6.48093
1718.40 6.71465
1718.53 7.16444
1718.59 7.56268
1718.66 8.19875
1718.73 9.30011
1718.79 11.4284
1718.82 13.2949
1718.86 16.1956
1718.89 20.8846
1718.92 28.2522
1718.96 41.6139
1719.00 50.5212
1719.04 41.6115
1719.08 28.2487
1719.12 19.8466
1719.15 15.1665
1719.19 12.4022
1719.23 10.6818
1719.30 8.78065
1719.38 7.82456
1719.45 7.27616
1719.52 6.94203
1719.67 6.56761
1719.82 6.37296
1719.97 6.26032
1720.27 6.14056
1720.86 6.04788
1721.45 6.01507
1722.04 6.00668
1722.64 6.02805
1722.93 6.06933
1723.23 6.18537
1723.38 6.33333
1723.53 6.68251
1723.60 7.06569
1723.68 7.83301
1723.71 8.53168
1723.75 9.66044
1723.79 11.5838
1723.82 14.9389
1723.86 20.3938
1723.90 23.8991
1723.94 20.2444
1723.98 14.9375
1724.01 12.2365
1724.03 10.5124
1724.06 9.36153
1724.09 8.57482
1724.14 7.60703
1724.20 7.08654
1724.30 6.56722
1724.41 6.33265
1724.63 6.13017
1724.85 6.04738
1725.28 5.97995
1725.71 5.95209
1726.58 5.92716
1727.45 5.91599
1728.32 5.91385
1729.19 5.93117
1729.62 5.96372
1730.06 6.05910
1730.27 6.18523
1730.38 6.30417
1730.49 6.50344
1730.60 6.88205
1730.65 7.20650
1730.71 7.71071
1730.76 8.57042
1730.82 10.1161
1730.84 11.3927
1730.87 13.2641
1730.90 16.0729
1730.92 20.2883
1730.96 29.0848
1731.00 34.7610
1731.04 28.8606
1731.08 20.3081
1731.10 16.2194
1731.13 13.5386
1731.18 10.4159
1731.23 8.79621
1731.28 7.90598
1731.33 7.35237
1731.38 6.99953
1731.48 6.58373
1731.58 6.35646
1731.68 6.22033
1731.88 6.07271
1732.29 5.95432
1732.69 5.90814
1733.49 5.87181
1734.30 5.86110
1735.11 5.86872
1735.91 5.91904
1736.31 5.99749
1736.51 6.07564
1736.72 6.21456
1736.92 6.49599
1737.02 6.75695
1737.12 7.18838
1737.22 7.99444
1737.27 8.67276
1737.32 9.70852
1737.37 11.4345
1737.42 14.4237
1737.47 20.1829
1737.50 25.0506
1737.52 32.0373
1737.56 47.8790
1737.60 58.4742
1737.64 47.8679
1737.68 32.0226
1737.72 21.3552
1737.77 15.6437
1737.81 12.4616
1737.85 10.5974
1737.89 9.37790
1737.94 8.57698
1738.02 7.59224
1738.11 7.04373
1738.19 6.70823
1738.36 6.33660
1738.53 6.14606
1738.70 6.03516
1739.04 5.91671
1739.72 5.82152
1740.40 5.78230
1741.08 5.76319
1741.76 5.76375
1742.10 5.78292
1742.44 5.84901
1742.61 5.93898
1742.78 6.16268
1742.87 6.41827
1742.95 6.95371
1743.00 7.47233
1743.04 8.33197
1743.08 9.94113
1743.12 12.9371
1743.16 17.2743
1743.20 20.1653
1743.24 17.2939
1743.28 12.9601
1743.30 10.7575
1743.33 9.31620
1743.39 7.75417
1743.44 6.99456
1743.50 6.57961
1743.61 6.17069
1743.72 5.98398
1743.94 5.82181
1744.16 5.75289
1744.60 5.69073
1745.04 5.65817
1745.92 5.61214
1746.80 5.56713
1747.68 5.51279
1748.12 5.48043
1748.56 5.44614
1749.00 5.42109
1749.22 5.42647
1749.44 5.47201
1749.66 5.63450
1749.77 5.83033
1749.88 6.21264
1749.99 7.02542
1750.04 7.78222
1750.10 9.01703
1750.15 11.1643
1750.21 15.2200
1750.26 23.7003
1750.29 31.5345
1750.32 42.9704
1750.34 55.2076
1750.36 69.7875
1750.40 90.4979
1750.44 77.3638
1750.48 53.2588
1750.53 34.3810
1750.58 24.3486
1750.63 18.7719
1750.68 15.4760
1750.73 13.3006
1750.78 11.8449
1750.87 10.0111
1750.97 8.93910
1751.07 8.26402
1751.26 7.47142
1751.46 7.03016
1751.65 6.75609
1752.04 6.43670
1752.43 6.25792
1752.82 6.14429
1753.59 6.00766
1754.37 5.92703
1755.15 5.87277
1756.70 5.80185
1758.26 5.75648
1759.81 5.73055
1760.59 5.73170
1761.37 5.76661
1761.76 5.82727
1761.95 5.88917
1762.14 6.00027
1762.34 6.22642
1762.44 6.43486
1762.53 6.78233
1762.63 7.42202
1762.68 7.96930
1762.73 8.78492
1762.78 10.1312
1762.82 12.4261
1762.87 16.8742
1762.90 20.5048
1762.92 25.6282
1762.96 37.6022
1763.00 45.5790
1763.04 37.6103
1763.08 25.6373
1763.12 18.2399
1763.16 13.9730
1763.19 11.4559
1763.23 9.92445
1763.31 8.19668
1763.38 7.32413
1763.46 6.82723
1763.53 6.51864
1763.68 6.17179
1763.83 5.99042
1763.98 5.88456
1764.28 5.76992
1764.88 5.67505
1765.48 5.63282
1766.69 5.58701
1767.89 5.55527
1770.29 5.49922
1772.70 5.43966
1775.10 5.36693
1776.30 5.32102
1777.50 5.26387
1778.71 5.18820
1779.31 5.13984
1779.91 5.08271
1780.51 5.02110
1780.81 4.99783
1781.11 5.00130
1781.26 5.02961
1781.41 5.09740
1781.56 5.24470
1781.71 5.56515
1781.86 6.31938
1781.94 7.06597
1782.01 8.35177
1782.09 10.7427
1782.16 15.6923
1782.20 20.3225
1782.24 27.5791
1782.28 40.1082
1782.31 60.9335
1782.33 78.9042
1782.36 100.317
1782.40 131.605
1782.44 112.283
1782.49 75.8749
1782.52 58.6017
1782.54 46.2837
1782.60 31.3215
1782.66 23.2901
1782.71 18.6400
1782.77 15.6262
1782.82 13.6260
1782.93 11.1356
1783.05 9.69451
1783.16 8.79036
1783.38 7.73299
1783.60 7.14592
1783.82 6.78095
1784.27 6.35385
1784.71 6.11392
1785.16 5.95992
1786.05 5.77120
1786.94 5.65584
1787.83 5.57455
1789.61 5.45856
1791.39 5.37037
1793.16 5.29597
1794.05 5.26607
1794.94 5.25459
1795.39 5.27366
1795.83 5.35991
1796.06 5.48807
1796.17 5.61164
1796.28 5.82372
1796.39 6.22699
1796.45 6.58137
1796.50 7.12515
1796.56 8.05312
1796.61 9.72350
1796.64 11.1344
1796.67 13.2201
1796.70 16.3814
1796.72 20.9656
1796.76 30.5065
1796.80 36.8807
1796.84 30.5111
1796.88 20.9683
1796.91 15.5855
1796.94 12.3704
1796.98 10.3526
1797.01 9.03799
1797.07 7.50165
1797.14 6.71037
1797.20 6.24147
1797.27 5.94979
1797.39 5.61417
1797.65 5.32438
1797.91 5.20158
1798.42 5.08707
1798.94 5.02322
1799.97 4.92724
1801.00 4.83338
1802.03 4.72507
1802.54 4.66200
1803.06 4.59211
1803.57 4.51975
1803.83 4.49087
1804.09 4.48495
1804.34 4.55452
1804.47 4.66834
1804.60 4.91411
1804.73 5.48313
1804.79 6.03413
1804.86 6.96229
1804.92 8.67119
1804.99 12.0182
1805.02 14.9637
1805.05 19.5039
1805.08 26.7147
1805.11 38.2470
1805.14 49.4939
1805.16 62.2994
1805.20 81.5767
1805.24 70.0080
1805.29 47.8668
1805.32 36.4824
1805.35 28.6231
1805.38 23.2276
1805.41 19.5536
1805.46 14.8263
1805.52 12.0969
1805.58 10.3823
1805.64 9.23176
1805.76 7.82042
1805.88 7.00300
1806.00 6.48605
1806.23 5.87022
1806.47 5.51475
1806.71 5.28152
1807.18 4.97949
1807.65 4.77606
1808.12 4.61453
1809.07 4.34153
1809.54 4.21906
1810.02 4.11337
1810.49 4.05181
1810.96 4.11551
1811.20 4.26146
1811.43 4.57016
1811.67 5.20147
1811.91 6.51084
1812.14 9.47192
1812.26 12.3369
1812.38 17.1778
1812.50 25.9780
1812.56 33.1755
1812.62 43.6579
1812.67 59.4696
1812.73 84.2455
1812.79 124.438
1812.85 190.299
1812.93 320.894
1813.00 421.983
1813.08 357.323
1813.15 238.146
1813.21 169.773
1813.27 125.004
1813.33 95.6777
1813.39 75.8810
1813.50 52.0128
1813.62 38.9099
1813.74 30.8305
1813.86 25.5580
1814.09 19.1777
1814.33 15.5720
1814.56 13.2958
1815.03 10.6140
1815.50 9.08519
1815.74 8.55357
1815.97 8.15483
1816.21 7.96514
1816.32 8.04113
1816.44 8.38329
1816.56 9.35478
1816.62 10.3602
1816.68 12.0483
1816.74 15.1383
1816.79 21.1586
1816.82 26.4354
1816.85 34.0855
1816.88 45.7206
1816.91 63.4297
1816.93 83.0407
1816.96 105.664
1817.00 139.926
1817.02 136.666
1817.05 121.321
1817.09 84.1192
1817.12 65.5548
1817.15 52.6839
1817.20 36.5868
1817.26 27.8501
1817.32 22.7342
1817.37 19.3821
1817.43 17.1304
1817.54 14.2780
1817.66 12.5955
1817.77 11.4985
1817.99 10.1619
1818.22 9.37585
1818.45 8.85304
1818.90 8.18762
1819.35 7.76957
1819.80 7.47481
1820.71 7.07592
1821.61 6.81536
1822.51 6.64704
1822.97 6.60840
1823.42 6.65348
1823.64 6.77289
1823.76 6.89966
1823.87 7.12554
1823.98 7.56558
1824.04 7.95699
1824.10 8.56211
1824.15 9.60173
1824.21 11.4888
1824.24 13.1279
1824.27 15.4820
1824.29 19.0530
1824.32 24.4779
1824.36 35.4753
1824.40 42.8467
1824.44 35.4735
1824.48 24.4681
1824.50 19.6822
1824.53 16.3297
1824.57 12.3347
1824.62 10.2437
1824.67 9.04622
1824.72 8.30525
1824.77 7.81727
1824.86 7.23582
1824.96 6.91482
1825.05 6.71750
1825.25 6.49311
1825.63 6.29159
1826.01 6.19220
1826.78 6.07628
1827.55 5.99902
1828.32 5.94394
1829.09 5.92469
1829.47 5.95427
1829.85 6.08315
1830.05 6.26913
1830.14 6.44614
1830.24 6.74537
1830.33 7.30211
1830.38 7.77548
1830.43 8.49879
1830.48 9.67261
1830.53 11.7266
1830.57 15.6490
1830.60 18.9327
1830.62 23.6047
1830.66 34.2729
1830.70 41.3645
1830.74 34.2851
1830.78 23.6158
1830.81 18.4609
1830.83 14.9977
1830.86 12.6743
1830.89 11.1298
1830.94 9.19084
1830.99 8.11131
1831.05 7.44637
1831.10 7.02414
1831.20 6.52766
1831.31 6.25543
1831.42 6.09172
1831.63 5.90706
1832.06 5.74435
1832.48 5.66487
1833.33 5.56824
1834.18 5.49468
1835.89 5.35828
1837.59 5.21095
1839.29 5.03128
1840.14 4.92013
1840.99 4.78742
1841.85 4.62927
1842.27 4.54607
1842.70 4.47987
1842.91 4.46994
1843.12 4.49998
1843.34 4.61679
1843.55 4.93293
1843.76 5.77597
1843.87 6.68186
1843.97 8.30806
1844.08 11.5447
1844.13 14.3576
1844.19 18.7051
1844.24 25.7685
1844.29 37.9527
1844.32 47.5993
1844.35 60.3755
1844.37 78.7946
1844.40 103.249
1844.45 172.349
1844.50 226.982
1844.53 219.717
1844.55 193.152
1844.60 129.278
1844.64 96.1359
1844.67 73.3678
1844.71 57.8103
1844.75 46.9538
1844.82 33.4137
1844.89 25.6882
1844.96 20.8777
1845.03 17.6726
1845.18 13.7731
1845.32 11.5521
1845.47 10.1468
1845.75 8.50105
1846.04 7.57097
1846.33 6.97402
1846.90 6.22771
1847.48 5.75605
1847.77 5.58798
1848.05 5.49189
1848.34 5.58056
1848.49 5.80975
1848.63 6.34681
1848.77 7.63789
1848.85 8.92044
1848.92 11.1075
1848.99 15.0961
1849.06 23.0764
1849.10 30.1512
1849.13 41.1152
1849.17 58.6200
1849.20 85.7640
1849.23 111.990
1849.25 143.330
1849.30 189.878
1849.32 184.976
1849.35 163.239
1849.40 110.684
1849.44 79.1479
1849.48 59.2444
1849.51 46.2611
1849.55 37.5161
1849.63 26.9796
1849.71 21.1483
1849.79 17.5780
1849.87 15.2213
1850.02 12.3700
1850.18 10.7393
1850.33 9.71205
1850.65 8.49748
1850.96 7.80691
1851.27 7.36366
1851.90 6.82057
1852.52 6.49248
1853.14 6.26684
1854.39 5.96125
1855.64 5.74841
1856.89 5.57811
1859.39 5.28601
1861.89 4.99069
1863.14 4.82011
1864.39 4.61838
1865.63 4.36727
1866.26 4.21740
1866.88 4.05597
1867.51 3.92057
1867.82 3.91324
1868.13 4.04573
1868.45 4.59378
1868.60 5.27546
1868.76 6.62321
1868.91 9.51023
1868.99 12.2069
1869.07 16.6117
1869.15 24.2725
1869.23 38.7270
1869.26 50.8858
1869.30 68.8664
1869.34 96.0174
1869.38 137.047
1869.44 232.668
1869.50 307.744
1869.56 261.456
1869.62 175.023
1869.68 111.283
1869.75 76.2037
1869.81 55.8646
1869.88 43.2863
1869.94 35.0207
1870.00 29.3048
1870.13 22.1064
1870.26 17.8845
1870.39 15.1725
1870.64 11.9677
1870.90 10.1784
1871.16 9.05454
1871.67 7.74168
1872.18 7.02658
1872.69 6.67139
1872.95 6.67471
1873.08 6.77526
1873.21 7.01460
1873.33 7.55021
1873.40 8.04984
1873.46 8.86048
1873.53 10.2649
1873.59 12.9346
1873.62 15.2206
1873.65 18.6811
1873.69 24.0841
1873.72 32.5641
1873.76 49.0193
1873.80 59.6996
1873.84 48.5747
1873.88 32.5006
1873.91 25.0823
1873.94 19.9922
1873.99 14.1505
1874.04 11.1330
1874.10 9.41504
1874.15 8.33671
1874.20 7.63986
1874.31 6.79957
1874.42 6.31995
1874.52 6.01764
1874.73 5.64987
1875.16 5.26086
1875.58 5.01939
1876.43 4.66771
1877.28 4.41660
1877.71 4.35371
1878.13 4.38507
1878.56 4.61590
1878.98 5.30736
1879.41 7.20323
1879.62 9.25053
1879.83 12.9454
1879.94 15.9554
1880.05 20.2313
1880.15 26.5473
1880.26 36.2401
1880.37 52.0094
1880.47 78.6065
1880.58 126.472
1880.68 215.352
1880.79 365.772
1880.90 486.872
1881.01 416.084
1881.12 278.293
1881.19 208.125
1881.26 159.759
1881.34 125.738
1881.41 102.026
1881.56 71.8098
1881.70 54.3317
1881.85 43.3445
1882.00 35.9736
1882.29 26.9684
1882.59 21.7882
1882.88 18.5038
1883.47 14.6608
1884.05 12.5189
1884.64 11.1738
1885.23 10.2541
1885.82 9.58671
1886.99 8.68137
1888.17 8.09221
1889.34 7.67271
1890.51 7.35341
1892.86 6.87766
1895.21 6.49560
1896.39 6.30108
1896.98 6.19368
1897.56 6.07427
1898.15 5.94162
1898.44 5.87653
1898.74 5.83105
1899.03 5.86711
1899.18 5.97999
1899.32 6.26229
1899.47 6.97809
1899.55 7.72160
1899.62 9.00731
1899.69 11.4642
1899.77 16.5172
1899.80 21.2320
1899.84 28.5700
1899.88 41.1177
1899.89 50.1066
1899.91 61.6744
1899.93 80.7395
1899.96 102.572
1900.00 135.039
1900.02 131.459
1900.05 116.323
1900.09 80.0379
1900.13 57.0560
1900.17 42.8700
1900.20 33.7791
1900.24 27.7363
1900.32 20.5470
1900.39 16.6127
1900.47 14.2200
1900.55 12.6474
1900.70 10.7537
1900.85 9.68280
1901.00 9.00914
1901.31 8.23422
1901.61 7.84266
1901.92 7.72124
1902.07 7.82278
1902.22 8.23014
1902.30 8.74009
1902.37 9.81358
1902.41 10.8161
1902.45 12.4624
1902.49 15.3164
1902.52 20.3904
1902.56 28.5068
1902.60 33.7295
1902.64 28.2502
1902.68 20.3234
1902.71 16.2951
1902.73 13.6474
1902.76 11.9032
1902.79 10.7227
1902.85 9.30141
1902.90 8.52161
1903.01 7.74197
1903.12 7.37571
1903.35 7.02973
1903.57 6.86226
1904.02 6.68080
1904.46 6.57034
1905.36 6.42092
1906.25 6.31354
1907.14 6.22972
1908.04 6.17073
1908.48 6.16156
1908.93 6.20025
1909.15 6.27870
1909.38 6.50082
1909.49 6.77696
1909.60 7.39467
1909.66 8.03651
1909.71 9.22596
1909.74 10.2232
1909.77 11.7048
1909.80 13.9643
1909.82 17.2641
1909.86 24.1731
1909.90 28.6471
1909.94 23.9942
1909.98 17.2729
1910.02 12.4794
1910.06 10.0478
1910.11 8.71316
1910.15 7.92367
1910.24 7.08342
1910.32 6.68213
1910.50 6.31706
1910.67 6.15848
1911.02 6.01737
1911.36 5.94894
1912.05 5.86800
1912.74 5.80905
1914.12 5.70717
1915.51 5.60977
1918.27 5.40633
1921.04 5.17072
1923.80 4.87231
1925.18 4.68540
1926.56 4.46425
1927.95 4.21319
1928.64 4.09586
1929.33 4.03403
1930.02 4.18408
1930.37 4.49518
1930.71 5.22112
1931.06 6.98205
1931.23 8.75856
1931.40 11.8134
1931.57 17.5319
1931.66 22.3327
1931.75 29.3511
1931.83 40.2579
1931.92 57.5167
1932.01 86.1742
1932.09 134.430
1932.20 227.028
1932.30 301.145
1932.40 256.814
1932.51 171.652
1932.60 120.781
1932.68 88.2172
1932.77 67.2876
1932.86 53.4868
1933.03 36.9061
1933.20 27.8159
1933.38 22.2569
1933.55 18.6242
1933.89 14.2318
1934.24 11.7151
1934.59 10.1054
1935.28 8.15809
1935.97 7.06281
1936.32 6.77409
1936.67 6.78359
1937.01 7.50554
1937.19 8.51513
1937.36 10.5416
1937.53 14.8403
1937.62 18.8107
1937.70 25.0881
1937.79 35.8152
1937.88 54.9757
1937.92 70.8179
1937.96 92.8998
1938.01 124.691
1938.05 170.284
1938.13 287.892
1938.20 382.867
1938.28 327.875
1938.35 220.256
1938.41 156.282
1938.47 115.000
1938.54 88.2915
1938.60 70.4199
1938.72 49.0308
1938.85 37.3385
1938.97 30.1347
1939.09 25.3904
1939.34 19.6731
1939.59 16.3980
1939.84 14.3169
1940.33 11.8212
1940.83 10.3731
1941.07 9.85780
1941.32 9.45770
1941.57 9.21487
1941.69 9.21344
1941.82 9.39303
1941.94 9.99506
1942.00 10.6452
1942.06 11.7812
1942.13 13.8651
1942.19 17.9881
1942.22 21.5753
1942.25 27.0199
1942.28 35.4785
1942.31 48.1268
1942.36 77.2995
1942.40 101.410
1942.45 88.2736
1942.49 61.7631
1942.53 44.3501
1942.57 33.9095
1942.62 27.2518
1942.66 23.0222
1942.74 18.0040
1942.82 15.2864
1942.91 13.6319
1942.99 12.5350
1943.15 11.1841
1943.32 10.3852
1943.49 9.85266
1943.82 9.17264
1944.15 8.73699
1944.48 8.42188
1945.14 7.97339
1946.47 7.38906
1947.80 6.96915
1949.12 6.60121
1949.79 6.41568
1950.45 6.21898
1951.12 6.00633
1951.45 5.90051
1951.78 5.81730
1952.11 5.83202
1952.28 5.95539
1952.44 6.28881
1952.61 7.16385
1952.69 8.07962
1952.77 9.70266
1952.86 12.7967
1952.94 19.3525
1952.98 25.5769
1953.02 35.4796
1953.06 52.2264
1953.08 65.0698
1953.10 81.0300
1953.13 105.708
1953.15 135.257
1953.20 179.339
1953.22 174.825
1953.25 154.409
1953.30 104.979
1953.35 66.6443
1953.41 46.2399
1953.46 34.5074
1953.52 27.5097
1953.57 22.8789
1953.63 19.7574
1953.74 15.8069
1953.85 13.4968
1953.96 12.0115
1954.18 10.2465
1954.41 9.24821
1954.63 8.60929
1955.07 7.83410
1955.52 7.36510
1955.96 7.03544
1956.85 6.55605
1957.73 6.15767
1958.18 5.96202
1958.62 5.77046
1959.07 5.62466
1959.29 5.62490
1959.51 5.78005
1959.73 6.37439
1959.84 7.08964
1959.95 8.46405
1960.06 11.3005
1960.12 13.8859
1960.17 17.8906
1960.23 24.6577
1960.29 36.3708
1960.31 45.7580
1960.34 58.3291
1960.37 76.6204
1960.40 101.223
1960.42 134.098
1960.45 172.176
1960.50 229.393
1960.53 223.538
1960.55 197.374
1960.61 134.373
1960.64 101.018
1960.68 77.9482
1960.72 62.0927
1960.75 51.2236
1960.83 37.1413
1960.90 29.1315
1960.97 24.0271
1961.05 20.6458
1961.19 16.4795
1961.34 14.0595
1961.49 12.5243
1961.78 10.6983
1962.07 9.66294
1962.37 9.00254
1962.95 8.20073
1963.54 7.72053
1964.12 7.39001
1965.30 6.93005
1966.47 6.57800
1967.06 6.41366
1967.64 6.25277
1968.23 6.11291
1968.52 6.07949
1968.82 6.12863
1969.11 6.42223
1969.26 6.81305
1969.40 7.59714
1969.55 9.31197
1969.62 10.9142
1969.70 13.5363
1969.77 18.1843
1969.84 26.8746
1969.88 34.3061
1969.92 44.9931
1969.95 61.5783
1969.99 85.9389
1970.04 143.250
1970.10 189.525
1970.16 162.302
1970.21 109.703
1970.26 76.1483
1970.31 55.5364
1970.37 42.7283
1970.42 34.4111
1970.52 24.7422
1970.62 19.6029
1970.72 16.4822
1970.82 14.4668
1971.03 12.0396
1971.23 10.6647
1971.43 9.80040
1971.84 8.77911
1972.25 8.19539
1972.65 7.81525
1973.46 7.33223
1974.28 7.01271
1974.68 6.88052
1975.09 6.76008
1975.50 6.65747
1975.70 6.62599
1975.90 6.63438
1976.11 6.75613
1976.21 6.92797
1976.31 7.27411
1976.41 8.02806
1976.46 8.73012
1976.51 9.83886
1976.56 11.7651
1976.61 15.3033
1976.66 22.3666
1976.71 36.9198
1976.74 47.2103
1976.76 58.9883
1976.80 77.0323
1976.84 66.9151
1976.89 46.8106
1976.92 36.6827
1976.94 29.7760
1977.00 21.3084
1977.06 16.8105
1977.11 14.2171
1977.17 12.5383
1977.23 11.4220
1977.34 10.0257
1977.45 9.21543
1977.57 8.69518
1977.79 8.07441
1978.02 7.71796
1978.24 7.48767
1978.70 7.20179
1979.15 7.02516
1979.60 6.90083
1980.51 6.72741
1981.41 6.60430
1982.31 6.51121
1983.22 6.46730
1983.45 6.48840
1983.67 6.57288
1983.78 6.68691
1983.90 6.95284
1983.95 7.23394
1984.01 7.74783
1984.07 8.84210
1984.10 9.82447
1984.12 11.3192
1984.16 14.3354
1984.20 16.2698
1984.24 14.2485
1984.28 11.3086
1984.31 9.80901
1984.33 8.85022
1984.39 7.75660
1984.44 7.22097
1984.50 6.92631
1984.61 6.63219
1984.72 6.49508
1984.94 6.36715
1985.16 6.30558
1986.03 6.18873
1987.79 6.03902
1989.55 5.89674
1991.30 5.74568
1993.06 5.57663
1994.81 5.38186
1995.69 5.27583
1996.57 5.17925
1997.01 5.15701
1997.45 5.21734
1997.67 5.35571
1997.78 5.50221
1997.88 5.76081
1997.99 6.26918
1998.05 6.71683
1998.10 7.40484
1998.16 8.57791
1998.21 10.7315
1998.24 12.5576
1998.27 15.1458
1998.30 19.0112
1998.32 24.7761
1998.36 36.7417
1998.40 44.7085
1998.44 36.7393
1998.48 24.7606
1998.52 17.2114
1998.55 12.9127
1998.59 10.4012
1998.63 8.88233
1998.71 7.15913
1998.78 6.30200
1998.86 5.80352
1998.93 5.49352
1999.08 5.13156
1999.23 4.92716
1999.38 4.79502
1999.68 4.62406
2000.29 4.42947
2000.89 4.37221
2001.49 4.64376
2001.79 5.12165
2002.09 6.19055
2002.40 8.70743
2002.55 11.1972
2002.70 15.4034
2002.85 23.1118
2002.92 29.3572
2003.00 38.3928
2003.07 52.1058
2003.15 73.0650
2003.22 106.411
2003.30 159.813
2003.40 271.732
2003.50 362.748
2003.60 310.562
2003.70 208.799
2003.79 143.983
2003.88 104.072
2003.98 78.7100
2004.07 62.2863
2004.25 42.8999
2004.43 32.4299
2004.61 26.1101
2004.79 21.9734
2005.15 16.9983
2005.51 14.1715
2005.88 12.3683
2006.60 10.1989
2007.32 8.90611
2007.68 8.43453
2008.05 8.07165
2008.41 7.90663
2008.59 8.00728
2008.77 8.41949
2008.95 9.60252
2009.04 10.8751
2009.13 13.1129
2009.22 17.4180
2009.31 26.3638
2009.36 34.6244
2009.40 47.9216
2009.45 70.1965
2009.49 108.088
2009.55 181.021
2009.60 240.475
2009.65 206.688
2009.71 140.094
2009.75 103.170
2009.79 78.4572
2009.83 61.9528
2009.87 50.6337
2009.95 36.7465
2010.04 28.9277
2010.12 24.0874
2010.20 20.8673
2010.36 16.9405
2010.53 14.6868
2010.69 13.2462
2011.02 11.5280
2011.35 10.5414
2011.68 9.89792
2012.33 9.09774
2012.99 8.60529
2013.64 8.26246
2014.95 7.79912
2016.27 7.48443
2017.58 7.24532
2020.20 6.87617
2022.82 6.55890
2024.14 6.39414
2025.45 6.20872
2026.76 5.98076
2027.41 5.84014
2028.07 5.67523
2028.40 5.58365
2028.73 5.49019
2029.05 5.40753
2029.38 5.37557
2029.55 5.41282
2029.71 5.53203
2029.87 5.81785
2030.04 6.46839
2030.20 8.01440
2030.28 9.55457
2030.37 12.1928
2030.45 17.0336
2030.49 21.0073
2030.53 26.7970
2030.57 35.5151
2030.61 49.1141
2030.65 71.0015
2030.69 105.418
2030.75 177.951
2030.80 237.254
2030.83 231.379
2030.85 204.171
2030.91 138.180
2030.96 95.1562
2031.01 69.2179
2031.06 52.7426
2031.11 42.2489
2031.21 29.8791
2031.30 23.2410
2031.40 19.2502
2031.50 16.6457
2031.70 13.5367
2031.90 11.7704
2032.09 10.6591
2032.29 9.89538
2032.49 9.34545
2032.88 8.60200
2033.28 8.12265
2034.07 7.53093
2034.86 7.16441
2035.65 6.89897
2037.23 6.49224
2038.81 6.12311
2039.60 5.92424
2040.39 5.70715
2040.78 5.59436
2041.18 5.48752
2041.57 5.40919
2041.97 5.42480
2042.36 5.74702
2042.56 6.22758
2042.76 7.23928
2042.96 9.52242
2043.06 11.7128
2043.15 15.3031
2043.25 21.6884
2043.35 33.9022
2043.40 44.3996
2043.45 59.7109
2043.50 82.8867
2043.55 117.999
2043.63 201.259
2043.70 268.863
2043.78 231.226
2043.85 156.779
2043.92 106.218
2044.00 75.9109
2044.07 57.4471
2044.14 45.6200
2044.22 37.6481
2044.29 32.0298
2044.44 24.8146
2044.58 20.4998
2044.73 17.6908
2045.02 14.3275
2045.31 12.4252
2045.60 11.2182
2045.90 10.3888
2046.19 9.78640
2046.77 8.96079
2047.35 8.41510
2048.52 7.70087
2049.69 7.18736
2050.27 6.95139
2050.86 6.71462
2051.44 6.48645
2051.73 6.40310
2052.02 6.40342
2052.32 6.67304
2052.46 7.08665
2052.61 7.97052
2052.75 9.96865
2052.83 11.8921
2052.90 15.0955
2052.97 20.7738
2053.05 31.7025
2053.08 41.1915
2053.12 55.0034
2053.16 76.0018
2053.19 107.952
2053.25 182.417
2053.30 242.045
2053.33 235.826
2053.36 208.385
2053.41 142.177
2053.45 102.184
2053.50 76.2537
2053.50 10.6814
2500.00 10.3092
3000.00 10.0049
3500.00 9.77605
4000.00 9.59758
5000.00 9.33765
6000.00 9.15844
7200.00 9.00685
8500.00 8.89122
10000.0 8.79724
12500.0 8.69675
15000.0 8.63691
17000.0 8.60626
20000.0 8.57778
25000.0 8.55645
30000.0 8.55093
35000.0 8.55190
40000.0 8.55492
50000.0 8.55913
60000.0 8.54241
70000.0 8.51590
80000.0 8.47951
90000.0 8.43379
100000 8.37951
120000 8.34028
140000 8.27537
160000 8.25793
179358 8.22393
180000 8.22280
200000 8.17275
200000 8.17276
200000 8.17276
220000 8.11000
240000 8.08000
242923 8.07468
256826 8.04937
260000 8.04359
261490 8.04051
283200 7.99565
283207 7.99564
283207 7.99571
283207 7.99571
287044 7.99048
300000 7.97281
309195 7.95372
309195 7.95372
311971 7.94796
322289 7.92654
322289 7.92653
347822 7.87353
347823 7.87352
427754 7.70758
445500 7.67073
445500 7.67073
446634 7.66838
446634 7.66838
450000 7.66139
451298 7.65909
493843 7.58362
493843 7.58362
514227 7.54746
540144 7.50149
540144 7.50149
552371 7.47980
566142 7.45537
566142 7.45537
573461 7.44239
576420 7.43714
596622 7.40131
600000 7.39531
607788 7.38150
620913 7.35822
633645 7.33563
650727 7.30533
650727 7.30533
656957 7.29428
656957 7.29428
657259 7.29375
679643 7.25404
679643 7.25404
689567 7.23644
700000 7.21793
703358 7.21128
703359 7.21128
715817 7.18660
734212 7.15017
734212 7.15017
761704 7.09572
768317 7.08262
789458 7.04075
789459 7.04075
794567 7.03063
794567 7.03063
800000 7.01987
811731 6.99664
816779 6.98664
900000 6.82181
940961 6.74512
984375 6.66383
1.00000E+06 6.63458
1.00962E+06 6.62142
1.00962E+06 6.62142
2.00000E+06 5.26618
2.91678E+06 4.47581
3.00000E+06 4.40406
4.00000E+06 4.01813
5.00000E+06 4.04630
6.00000E+06 4.12690
7.00000E+06 4.19818
7.16221E+06 4.21614
7.16221E+06 4.21614
8.00000E+06 4.30891
8.83716E+06 4.34704
9.00000E+06 4.35446
9.78418E+06 4.43190
1.00000E+07 4.45321
1.10000E+07 4.48160
1.20000E+07 4.48244
1.30000E+07 4.45627
1.40000E+07 4.38197
1.45000E+07 4.33220
1.50000E+07 4.28244
1.59035E+07 4.19251
1.60000E+07 4.18290
1.70000E+07 4.07198
1.72412E+07 4.04397
1.72412E+07 4.04397
1.80000E+07 3.95585
1.90000E+07 3.83973
2.00000E+07 3.72360