Pd-105(n,g) ENDF/B-VII.1
Energy(eV) XS(b)
1.00000E-05 1051.93
1.25000E-05 940.875
1.50000E-05 858.898
2.00000E-05 743.827
2.75000E-05 634.337
3.50000E-05 562.280
4.25000E-05 510.260
5.00000E-05 470.436
6.25000E-05 420.771
7.50000E-05 384.109
0.000100000 332.648
0.000125000 297.528
0.000150000 271.605
0.000200000 235.216
0.000275000 200.591
0.000350000 177.804
0.000425000 161.354
0.000500000 148.760
0.000625000 133.054
0.000750000 121.460
0.00100000 105.185
0.00125000 94.0790
0.00150000 85.8804
0.00200000 74.3719
0.00275000 63.4210
0.00350000 56.2137
0.00425000 51.0102
0.00500000 47.0265
0.00625000 42.0580
0.00750000 38.3900
0.0100000 33.2406
0.0125000 29.7258
0.0150000 27.1309
0.0200000 23.4874
0.0253000 20.8748
0.0314750 18.7069
0.0376500 17.0965
0.0500000 14.8222
0.0625000 13.2453
0.0750000 12.0803
0.100000 10.4429
0.125000 9.32354
0.150000 8.49588
0.200000 7.33137
0.275000 6.21906
0.350000 5.48372
0.500000 4.54090
0.750000 3.64644
1.00000 3.10800
1.50000 2.46352
2.00000 2.07754
2.75000 1.71331
3.50000 1.48126
5.00000 1.21810
7.50000 1.13743
8.75000 1.31158
9.37500 1.52334
10.0000 1.92717
10.4285 2.45030
10.8570 3.51085
11.0713 4.59150
11.2855 6.84701
11.3926 9.21930
11.4998 14.1105
11.5533 18.8988
11.6069 27.4664
11.6604 44.7085
11.6872 60.0257
11.7140 82.9901
11.7520 129.976
11.7900 161.313
11.8280 130.092
11.8660 83.5296
11.9059 52.9035
11.9457 36.4569
11.9855 27.3885
12.0254 22.1389
12.1051 17.0802
12.1848 15.3785
12.3441 16.3220
12.5035 21.3654
12.6629 32.6435
12.7426 42.9735
12.8223 59.6910
12.9019 88.9914
12.9816 146.500
13.0215 197.757
13.0613 278.744
13.1012 412.739
13.1410 638.311
13.1633 817.051
13.1855 1021.60
13.2300 1276.72
13.2745 1018.03
13.3190 633.864
13.3712 359.406
13.4234 220.542
13.4756 146.351
13.5278 103.346
13.5800 76.5514
13.6322 58.8606
13.7366 37.8118
13.8410 26.3080
13.9454 19.3664
14.1541 11.7878
14.3629 7.96813
14.5717 5.78063
14.7805 4.41345
14.9893 3.50289
15.4068 2.40457
15.8244 1.79397
16.6595 1.17903
17.4946 0.899539
18.3298 0.762228
20.0000 0.704104
21.2702 0.842026
21.9053 1.02311
22.5404 1.37501
23.1755 2.14026
23.4931 2.89719
23.8106 4.25450
23.9694 5.37667
24.1282 7.05732
24.2869 9.73843
24.4457 14.4021
24.6045 23.6102
24.6839 32.0063
24.7633 45.8596
24.8426 71.0659
24.8823 92.1429
24.9220 123.891
24.9617 174.529
25.0014 261.043
25.0213 328.109
25.0411 420.777
25.0610 550.442
25.0808 730.432
25.0981 934.447
25.1154 1167.43
25.1500 1457.93
25.1846 1165.76
25.2192 728.376
25.2569 430.034
25.2946 271.313
25.3323 183.322
25.3700 131.034
25.4077 97.8783
25.4454 75.7102
25.5208 48.9993
25.5961 34.2183
25.6715 25.2278
25.8223 15.3385
25.9731 10.3208
26.1238 7.43639
26.2746 5.62964
26.4254 4.42496
26.7269 2.97177
27.0285 2.16627
27.3300 1.67903
27.6316 1.36880
28.2346 1.04719
28.8377 1.02704
29.1393 1.21231
29.2901 1.42723
29.4408 1.82367
29.5916 2.62518
29.6670 3.35650
29.7424 4.55222
29.8178 6.68622
29.8931 10.9985
29.9308 14.9636
29.9685 21.4322
30.0062 32.6091
30.0439 52.4600
30.0820 83.6411
30.1200 104.392
30.1581 83.5269
30.1961 52.3110
30.2280 34.8199
30.2599 24.0742
30.2918 17.3965
30.3237 13.0821
30.3875 8.13923
30.4513 5.56762
30.5151 4.07552
30.5789 3.13747
30.7065 2.07093
30.8341 1.51034
30.9617 1.17882
31.2169 0.819834
31.4722 0.636993
31.7274 0.529288
32.2378 0.410498
33.2586 0.309185
34.2795 0.268924
35.3003 0.260173
36.3211 0.298204
36.8316 0.367962
37.0868 0.439467
37.3420 0.568567
37.5972 0.833418
37.7248 1.08322
37.8524 1.50968
37.9800 2.32575
38.0438 3.04457
38.1076 4.18717
38.1714 6.15277
38.2352 9.91526
38.2671 13.1840
38.2990 18.2189
38.3309 26.2687
38.3628 39.2643
38.4014 62.6889
38.4400 78.2790
38.4786 62.6256
38.5172 39.1849
38.5484 26.4303
38.5795 18.4472
38.6107 13.4069
38.6418 10.1131
38.7041 6.29530
38.7664 4.28818
38.8288 3.11689
38.8911 2.37811
39.0157 1.53735
39.1403 1.09682
39.2649 0.838203
39.5142 0.563012
39.7634 0.427954
40.0126 0.352551
40.5111 0.278952
41.0096 0.254245
41.5081 0.270392
41.7573 0.311999
42.0065 0.430612
42.1312 0.578293
42.1935 0.709532
42.2558 0.919096
42.3181 1.28098
42.3804 1.97620
42.4116 2.58197
42.4427 3.51687
42.4739 5.01561
42.5050 7.44243
42.5425 11.8024
42.5800 14.7122
42.6175 11.8118
42.6550 7.45352
42.6837 5.17727
42.7124 3.71577
42.7411 2.77290
42.7698 2.14587
42.8272 1.40620
42.8845 1.01057
42.9419 0.776885
42.9993 0.628217
43.1141 0.457422
43.2288 0.366973
43.3436 0.313420
43.5731 0.255847
44.0322 0.211183
44.4913 0.195351
46.3275 0.193009
48.1638 0.230041
50.0000 0.328550
51.2830 0.499034
51.9245 0.668855
52.5661 0.976535
52.8868 1.23382
53.2076 1.62373
53.5283 2.25602
53.8491 3.38292
54.0095 4.31081
54.1698 5.69607
54.3302 7.89670
54.4906 11.7023
54.6510 19.1467
54.7312 25.8660
54.8114 36.8315
54.8915 56.4469
54.9316 72.5633
54.9717 96.4156
55.0118 133.552
55.0519 194.862
55.0720 240.859
55.0920 302.613
55.1121 386.198
55.1321 498.252
55.1516 637.728
55.1711 797.038
55.2100 996.048
55.2295 937.217
55.2490 796.443
55.2879 497.524
55.3132 360.993
55.3385 267.168
55.3892 158.061
55.4398 102.449
55.4905 71.2022
55.5411 52.1430
55.5917 39.7485
55.6930 25.2171
55.7943 17.3853
55.8955 12.7030
56.0981 7.63310
56.3006 5.09723
56.5032 3.65221
56.7057 2.75224
56.9083 2.15445
57.3133 1.43534
57.7184 1.03645
58.1235 0.793025
58.5286 0.634117
59.3388 0.447523
60.1490 0.348370
61.7693 0.260109
63.3897 0.242576
65.0100 0.291891
65.8202 0.377925
66.2253 0.464391
66.6304 0.620013
67.0354 0.943021
67.2380 1.25434
67.4405 1.80146
67.6431 2.90102
67.7444 3.92386
67.8456 5.64977
67.9469 8.89914
67.9975 11.7154
68.0482 16.1164
68.0988 23.5080
68.1494 37.1384
68.1748 48.5361
68.2001 65.4420
68.2254 91.1947
68.2507 130.472
68.2680 166.937
68.2854 208.576
68.3200 260.596
68.3547 208.469
68.3893 130.341
68.4255 78.6468
68.4617 50.4313
68.4979 34.4811
68.5340 24.8721
68.5702 18.7192
68.6064 14.5754
68.6788 9.54554
68.7512 6.74277
68.8235 5.02976
68.9683 3.13790
69.1130 2.17507
69.2577 1.62122
69.5472 1.04474
69.8367 0.769999
70.1262 0.621520
70.7051 0.484551
71.2841 0.440322
71.8630 0.440895
73.0210 0.536203
74.1789 0.807517
74.7578 1.08742
75.3368 1.59721
75.6263 2.02355
75.9157 2.66889
76.2052 3.71324
76.4947 5.56869
76.6394 7.09168
76.7842 9.35839
76.9289 12.9444
77.0737 19.1090
77.2184 31.0536
77.2908 41.7255
77.3631 58.9511
77.4355 89.2632
77.4717 113.754
77.5079 149.407
77.5441 203.699
77.5802 290.624
77.6164 437.021
77.6526 688.800
77.6913 1101.70
77.7300 1376.68
77.7687 1101.06
77.8074 688.043
77.8420 445.004
77.8765 300.281
77.9110 212.628
77.9456 157.118
78.0147 94.7446
78.0838 62.9088
78.1528 44.6724
78.2219 33.3166
78.3601 20.5505
78.4983 13.9374
78.6365 10.0844
78.7746 7.64762
78.9128 6.01123
79.1892 4.02145
79.4655 2.90735
79.7419 2.22477
80.0182 1.77963
80.5709 1.26348
81.1236 1.00296
82.2290 0.834308
83.3344 0.983316
83.8871 1.22845
84.4398 1.71870
84.7162 2.14292
84.9925 2.79457
85.2689 3.86028
85.5452 5.76878
85.6834 7.34296
85.8216 9.69374
85.9597 13.4272
86.0979 19.8757
86.2361 32.4573
86.3052 43.7783
86.3743 62.1851
86.4433 94.9369
86.4779 121.696
86.5124 161.076
86.5470 221.925
86.5815 321.315
86.6161 493.386
86.6333 625.031
86.6506 799.802
86.6853 1279.33
86.7200 1598.76
86.7547 1278.74
86.7894 799.096
86.8152 554.480
86.8410 395.510
86.8668 291.865
86.8926 222.369
86.9442 139.711
86.9958 95.1614
87.0474 68.7304
87.0990 51.8724
87.2022 32.4749
87.3055 22.2045
87.4087 16.1329
87.5119 12.2526
87.6151 9.62517
87.8215 6.39876
88.0279 4.56936
88.2343 3.43311
88.4407 2.67941
88.8536 1.77272
89.2664 1.26844
89.6792 0.958989
90.0921 0.755276
90.9177 0.511701
91.7434 0.376767
93.3947 0.239905
95.0460 0.176156
96.6974 0.143918
98.3487 0.132072
99.1743 0.136275
100.000 0.161310
100.254 0.184052
100.508 0.235991
100.634 0.294518
100.761 0.422958
100.825 0.556316
100.888 0.809728
100.920 1.02991
100.952 1.37021
100.983 1.91787
101.015 2.81021
101.053 4.38946
101.090 5.44500
101.128 4.40347
101.165 2.83746
101.194 2.00689
101.224 1.48307
101.253 1.15270
101.283 0.940158
101.341 0.706755
101.400 0.611930
101.459 0.603358
101.518 0.686215
101.576 0.936698
101.606 1.19069
101.635 1.59732
101.673 2.37146
101.710 2.88720
101.748 2.36155
101.785 1.57618
101.819 1.11367
101.852 0.839063
101.919 0.568527
101.986 0.453374
102.052 0.398556
102.186 0.359836
102.320 0.361650
102.587 0.426770
102.855 0.578422
103.122 0.905903
103.256 1.21903
103.389 1.75759
103.523 2.79718
103.590 3.72159
103.657 5.20159
103.724 7.78381
103.790 12.8168
103.824 17.2789
103.857 24.2954
103.891 35.8279
103.924 55.0915
103.962 88.3864
104.000 110.697
104.038 88.3531
104.076 55.0498
104.101 39.6561
104.126 29.2191
104.177 17.1976
104.227 11.1172
104.277 7.72791
104.327 5.66494
104.378 4.32940
104.478 2.76688
104.578 1.92553
104.679 1.42343
104.880 0.879624
105.081 0.607351
105.282 0.452029
105.683 0.290430
106.085 0.212235
106.487 0.168436
107.291 0.123449
108.898 0.0899573
110.506 0.0783996
113.720 0.0763054
115.328 0.0931256
115.730 0.109035
116.131 0.150260
116.332 0.202209
116.433 0.250104
116.533 0.330133
116.634 0.479109
116.684 0.606489
116.734 0.803028
116.784 1.12789
116.835 1.71002
116.885 2.86725
116.910 3.87527
116.935 5.35738
116.973 8.51836
117.010 10.6231
117.048 8.52132
117.085 5.36131
117.121 3.39660
117.157 2.27023
117.193 1.60710
117.228 1.19563
117.300 0.742103
117.372 0.515355
117.443 0.386932
117.515 0.307815
117.658 0.219761
117.801 0.174753
117.945 0.148957
118.231 0.122594
118.804 0.105090
119.377 0.102071
120.523 0.110414
121.670 0.133345
122.816 0.183747
123.389 0.233162
123.962 0.321638
124.535 0.505911
124.821 0.684794
125.108 1.00216
125.251 1.26262
125.395 1.65027
125.538 2.26369
125.681 3.31781
125.824 5.36314
125.896 7.19064
125.968 10.1421
126.039 15.3498
126.111 25.6858
126.147 35.0260
126.182 50.0008
126.218 75.2503
126.254 118.694
126.273 151.615
126.292 189.087
126.330 235.686
126.369 188.043
126.407 117.082
126.439 77.7079
126.471 53.5184
126.503 38.4817
126.535 28.7626
126.600 17.6237
126.664 11.8282
126.728 8.46816
126.792 6.35825
126.921 3.96848
127.049 2.72010
127.177 1.98929
127.434 1.21385
127.691 0.833675
127.948 0.620764
128.461 0.406287
128.975 0.311971
129.488 0.277148
129.745 0.284125
130.002 0.332376
130.130 0.401105
130.258 0.566287
130.323 0.744948
130.387 1.09261
130.419 1.39881
130.451 1.87629
130.483 2.65153
130.515 3.92047
130.553 6.15204
130.590 7.63935
130.628 6.15235
130.665 3.91982
130.692 2.82628
130.718 2.10128
130.771 1.28908
130.824 0.890225
130.876 0.671233
130.982 0.454962
131.088 0.356613
131.299 0.273178
131.510 0.240796
131.933 0.220908
132.355 0.225189
132.778 0.250178
133.200 0.322540
133.411 0.413931
133.517 0.497831
133.623 0.638058
133.728 0.899783
133.781 1.12468
133.834 1.47385
133.887 2.05512
133.939 3.11412
133.966 3.98882
133.992 5.27135
134.019 7.19711
134.045 10.0880
134.083 16.0062
134.120 19.9489
134.158 16.0129
134.195 10.0981
134.229 6.60240
134.262 4.52269
134.296 3.26513
134.329 2.46951
134.397 1.57742
134.464 1.12364
134.531 0.865076
134.598 0.705284
134.733 0.528837
135.001 0.394526
135.270 0.358232
135.539 0.365173
135.808 0.422556
135.942 0.497039
136.076 0.668058
136.144 0.850302
136.211 1.20543
136.244 1.52083
136.278 2.01840
136.312 2.84031
136.345 4.21592
136.383 6.54993
136.420 8.10671
136.458 6.55646
136.495 4.22770
136.531 2.77054
136.568 1.94202
136.604 1.45799
136.640 1.15990
136.712 0.835306
136.785 0.676857
136.930 0.540193
137.075 0.491963
137.654 0.505582
138.234 0.631068
138.813 0.876376
139.393 1.39151
139.682 1.89029
139.972 2.77196
140.117 3.49367
140.262 4.56577
140.407 6.25868
140.552 9.16050
140.696 14.7717
140.769 19.7770
140.841 27.8246
140.914 41.9544
140.986 69.7841
141.022 94.7275
141.059 134.381
141.095 200.484
141.131 312.647
141.171 498.501
141.210 621.712
141.250 498.346
141.289 312.465
141.324 204.377
141.358 139.082
141.393 99.1135
141.427 73.6510
141.496 44.7577
141.565 29.8958
141.634 21.3341
141.703 15.9957
141.840 9.97712
141.978 6.85168
142.116 5.03160
142.392 3.11149
142.667 2.18083
142.943 1.66859
143.494 1.17483
144.046 0.984848
144.597 0.934086
145.700 1.08856
146.251 1.30030
146.802 1.65359
147.354 2.25380
147.905 3.35210
148.181 4.26964
148.456 5.65298
148.732 7.87821
149.007 11.7886
149.145 14.9643
149.283 19.6338
149.421 26.9043
149.559 39.1168
149.628 48.6065
149.697 61.9617
149.766 81.5912
149.834 112.015
149.903 162.487
149.972 253.869
150.007 328.970
150.041 438.040
150.076 600.924
150.110 842.365
150.160 1345.18
150.210 1679.12
150.260 1344.48
150.310 841.610
150.346 588.913
150.383 422.860
150.419 313.621
150.456 240.026
150.528 151.682
150.601 103.699
150.674 75.0967
150.746 56.7885
150.892 35.6582
151.037 24.4391
151.183 17.7970
151.328 13.5499
151.473 10.6747
151.764 7.15185
152.055 5.16856
152.346 3.95603
152.637 3.17751
153.218 2.35783
153.800 2.26792
154.091 2.67516
154.236 3.15606
154.381 4.04507
154.527 5.83832
154.600 7.46770
154.672 10.1189
154.745 14.8140
154.818 24.1846
154.854 32.6963
154.890 46.3497
154.927 69.5470
154.963 109.641
155.002 175.224
155.040 219.088
155.079 175.163
155.117 109.552
155.146 76.0460
155.175 54.4174
155.203 40.3442
155.232 30.9202
155.289 19.7242
155.347 13.6920
155.404 10.1134
155.462 7.82927
155.576 5.19850
155.691 3.80348
155.806 2.97854
156.036 2.09965
156.265 1.67933
156.495 1.46737
156.954 1.37162
157.413 1.65178
157.643 2.02667
157.873 2.74167
158.102 4.23744
158.217 5.64868
158.332 8.04344
158.447 12.5658
158.504 16.4881
158.561 22.6181
158.619 32.9027
158.676 51.8351
158.705 67.6274
158.734 90.9939
158.762 126.469
158.791 180.368
158.811 230.633
158.831 287.637
158.870 358.828
158.910 287.552
158.949 180.258
158.986 115.045
159.022 76.9442
159.059 54.1285
159.095 39.8640
159.168 23.9725
159.241 15.9355
159.315 11.3579
159.388 8.51699
159.534 5.33216
159.680 3.68211
159.826 2.71904
160.118 1.69536
160.411 1.18823
160.703 0.898702
161.288 0.593838
161.873 0.442260
162.457 0.354771
163.627 0.263363
164.796 0.226624
165.965 0.237565
166.550 0.283391
166.842 0.334116
167.135 0.428359
167.427 0.625918
167.573 0.814966
167.719 1.14161
167.866 1.77839
167.939 2.34990
168.012 3.27464
168.085 4.91302
168.158 8.19325
168.195 11.1876
168.231 16.0188
168.268 24.2658
168.304 38.7017
168.342 62.0101
168.380 77.6166
168.418 61.9959
168.456 38.6842
168.490 24.8800
168.525 16.7386
168.559 11.8461
168.594 8.77043
168.662 5.32426
168.731 3.57224
168.800 2.57029
168.868 1.94872
169.006 1.25172
169.143 0.892425
169.281 0.685464
169.556 0.475392
169.830 0.394212
170.105 0.407215
170.243 0.478184
170.380 0.676231
170.449 0.901856
170.518 1.35491
170.552 1.76490
170.586 2.41722
170.621 3.51130
170.655 5.36790
170.693 8.46171
170.730 10.5210
170.768 8.45822
170.805 5.35955
170.831 3.88244
170.856 2.88845
170.907 1.75314
170.958 1.18565
171.009 0.870578
171.111 0.554474
171.214 0.407751
171.418 0.278588
171.622 0.223513
172.030 0.176209
172.439 0.155868
174.072 0.134664
175.706 0.144032
177.340 0.178399
178.973 0.263430
179.790 0.350950
180.607 0.511442
181.015 0.646434
181.424 0.851669
181.832 1.18543
182.240 1.78191
182.445 2.27404
182.649 3.00994
182.853 4.18130
183.057 6.21228
183.261 10.1996
183.364 13.8122
183.466 19.7310
183.568 30.3806
183.619 39.1918
183.670 52.2870
183.721 72.8760
183.772 107.196
183.798 133.325
183.823 168.632
183.849 216.918
183.874 282.442
183.922 453.010
183.970 567.162
184.018 452.872
184.066 282.279
184.097 204.624
184.128 151.490
184.191 89.6938
184.253 58.1396
184.315 40.4322
184.377 29.6127
184.440 22.5848
184.564 14.3352
184.689 9.88738
184.813 7.22669
185.062 4.34495
185.311 2.90171
185.560 2.07864
185.809 1.56561
186.058 1.22466
186.556 0.813787
187.054 0.585415
187.552 0.445671
188.050 0.354150
189.045 0.246034
190.041 0.187863
192.033 0.134061
194.025 0.118605
196.017 0.130100
197.012 0.150527
198.008 0.190422
199.004 0.272211
199.502 0.346797
200.000 0.468545
200.319 0.591334
200.637 0.777816
200.956 1.08058
201.274 1.62029
201.433 2.06454
201.593 2.72662
201.752 3.77716
201.911 5.58741
202.070 9.11254
202.150 12.2742
202.230 17.4002
202.309 26.4950
202.349 33.8846
202.389 44.7152
202.429 61.3464
202.468 88.2977
202.508 134.430
202.528 169.364
202.548 215.386
202.589 344.354
202.630 430.215
202.671 344.275
202.712 215.291
202.756 128.591
202.799 81.7977
202.843 55.5868
202.887 39.8900
202.931 29.8860
202.974 23.1684
203.062 15.0411
203.149 10.5254
203.236 7.76995
203.411 4.72987
203.586 3.18216
203.761 2.28991
203.936 1.72957
204.110 1.35514
204.460 0.901171
204.809 0.647300
205.159 0.491178
205.509 0.388577
206.208 0.267083
206.907 0.203462
207.606 0.182217
207.781 0.192644
207.956 0.229765
208.043 0.276713
208.130 0.379343
208.174 0.479715
208.218 0.653311
208.261 0.977714
208.305 1.61277
208.343 2.50199
208.380 3.09429
208.418 2.50017
208.455 1.60880
208.484 1.14050
208.513 0.841265
208.570 0.519446
208.628 0.367554
208.686 0.285928
208.801 0.205732
208.916 0.168608
209.147 0.134785
209.378 0.118906
210.300 0.0931739
212.145 0.0758562
213.990 0.0771372
214.451 0.0849158
214.913 0.107580
215.143 0.137405
215.259 0.165385
215.374 0.212890
215.489 0.303016
215.547 0.381779
215.604 0.505580
215.662 0.716013
215.720 1.10953
215.749 1.44504
215.777 1.94877
215.806 2.73074
215.835 3.94994
215.873 6.27663
215.910 7.82590
215.948 6.27775
215.985 3.95138
216.027 2.33542
216.069 1.48795
216.110 1.02138
216.152 0.746461
216.194 0.572519
216.236 0.456834
216.319 0.317694
216.403 0.240959
216.486 0.194399
216.653 0.143396
216.987 0.103082
217.321 0.0883118
217.989 0.0789139
218.657 0.0780781
219.992 0.0864381
221.328 0.107765
222.664 0.156191
223.332 0.204775
224.000 0.292987
224.334 0.366878
224.667 0.478946
225.001 0.660971
225.335 0.985830
225.502 1.25378
225.669 1.65435
225.836 2.29180
226.003 3.39588
226.170 5.56356
226.254 7.52667
226.337 10.7365
226.421 16.5122
226.462 21.2877
226.504 28.3753
226.546 39.5094
226.588 58.0258
226.629 90.9895
226.650 116.934
226.671 151.893
226.691 194.738
226.711 243.564
226.750 304.902
226.790 243.518
226.829 151.838
226.853 112.367
226.877 84.6802
226.925 51.4385
226.973 33.8886
227.020 23.8296
227.068 17.5889
227.116 13.4942
227.212 8.64011
227.307 5.99340
227.403 4.39997
227.594 2.66417
227.786 1.79003
227.977 1.29006
228.169 0.977558
228.360 0.769595
228.743 0.518696
229.125 0.379115
229.508 0.293731
229.891 0.237867
230.656 0.172022
231.421 0.136687
232.952 0.103599
234.483 0.0915389
236.014 0.0889689
239.075 0.100958
242.137 0.138623
243.668 0.175550
245.198 0.238371
246.729 0.358012
247.494 0.464116
248.260 0.636376
249.025 0.948805
249.408 1.21468
249.791 1.63160
250.173 2.35989
250.365 2.96526
250.556 3.90418
250.747 5.54446
250.843 6.91609
250.939 9.05058
251.034 12.7488
251.130 20.2192
251.178 27.3120
251.226 39.4459
251.250 48.9340
251.273 62.1969
251.297 81.0246
251.321 107.629
251.341 136.351
251.361 169.145
251.400 210.296
251.420 198.544
251.439 170.031
251.479 109.437
251.508 79.1093
251.536 59.4258
251.594 38.3858
251.651 29.0321
251.709 24.8528
251.824 23.7159
251.939 28.6912
252.054 41.2352
252.112 52.5745
252.169 70.2525
252.227 99.3310
252.284 150.817
252.313 192.077
252.342 250.492
252.370 335.120
252.399 456.223
252.445 726.748
252.490 906.101
252.536 726.407
252.581 455.679
252.610 334.827
252.638 250.477
252.695 150.697
252.753 98.7608
252.810 69.2560
252.867 51.0693
252.924 39.1818
253.038 25.1411
253.152 17.5070
253.267 12.9150
253.495 7.91150
253.724 5.39008
253.952 3.94840
254.409 2.45752
254.866 1.76007
255.323 1.40313
256.238 1.17034
257.152 1.38129
257.609 1.72551
258.066 2.40802
258.294 2.99343
258.523 3.88361
258.751 5.31933
258.980 7.83780
259.209 12.8495
259.323 17.4456
259.437 25.0600
259.551 39.0164
259.608 50.7490
259.666 68.5316
259.723 97.1803
259.780 146.638
259.808 185.471
259.837 239.493
259.866 316.181
259.894 423.582
259.942 676.372
259.990 844.326
260.038 676.189
260.086 423.376
260.138 250.151
260.191 157.894
260.243 106.747
260.296 76.3381
260.348 57.0572
260.400 44.1590
260.505 28.6230
260.610 20.0114
260.715 14.7732
260.924 9.00047
261.134 6.06514
261.343 4.37322
261.553 3.31010
261.762 2.59860
262.181 1.73447
262.600 1.24880
263.019 0.948310
263.438 0.749124
264.276 0.508943
265.114 0.374466
266.790 0.236066
268.466 0.169575
270.142 0.132814
273.494 0.0975542
276.846 0.0865343
280.198 0.0942746
281.874 0.112213
282.712 0.130565
283.550 0.163729
284.388 0.233075
284.807 0.300712
285.226 0.421585
285.645 0.671794
285.855 0.912567
286.064 1.33481
286.274 2.17971
286.379 2.96196
286.483 4.27239
286.588 6.71743
286.641 8.81422
286.693 12.0481
286.745 17.4007
286.798 27.0377
286.824 34.8998
286.850 46.2914
286.876 63.1450
286.902 87.9137
286.922 112.497
286.941 140.587
286.980 175.687
287.019 140.567
287.058 87.8898
287.094 55.8903
287.130 37.2776
287.166 26.1899
287.202 19.2496
287.274 11.5420
287.346 7.64948
287.418 5.43494
287.490 4.06213
287.634 2.52516
287.778 1.73216
287.922 1.27129
288.210 0.785348
288.498 0.548598
288.786 0.416469
289.362 0.283284
289.938 0.222622
290.514 0.191813
291.666 0.168167
293.970 0.180314
296.274 0.242273
297.426 0.300069
298.579 0.390487
299.731 0.540354
300.883 0.813028
301.459 1.04151
302.035 1.38810
302.611 1.95084
303.187 2.95473
303.475 3.78230
303.763 5.01820
304.051 6.98292
304.339 10.3836
304.483 13.1016
304.627 17.0424
304.771 23.0584
304.915 32.8850
305.059 50.4843
305.131 64.9589
305.203 86.4101
305.275 119.847
305.347 175.168
305.419 272.649
305.491 450.201
305.561 719.766
305.630 899.158
305.700 719.482
305.769 449.902
305.832 288.658
305.896 193.672
305.959 136.514
306.022 100.574
306.149 60.3850
306.275 39.9901
306.401 28.3360
306.528 21.0998
306.781 12.9754
307.034 8.77263
307.287 6.32698
307.540 4.78091
307.792 3.74263
308.298 2.47963
308.804 1.77218
309.310 1.33878
309.816 1.05712
310.827 0.740868
311.839 0.633922
312.345 0.682523
312.598 0.765402
312.851 0.935807
313.104 1.30892
313.230 1.66974
313.357 2.29143
313.483 3.48860
313.546 4.54416
313.610 6.22155
313.673 9.10861
313.736 14.6102
313.768 19.3711
313.799 26.6738
313.831 38.2854
313.862 56.9083
313.882 72.7639
313.901 90.8867
313.940 113.539
313.979 90.8703
314.018 56.8847
314.045 40.2152
314.073 29.1834
314.100 21.8267
314.127 16.8374
314.182 10.7963
314.237 7.49249
314.292 5.50716
314.347 4.23076
314.457 2.75102
314.566 1.95923
314.676 1.48761
314.896 0.975883
315.115 0.717037
315.335 0.566768
315.773 0.405059
316.212 0.321664
316.651 0.271263
317.529 0.213111
319.285 0.159251
321.041 0.135692
322.796 0.128256
324.552 0.141779
325.430 0.169525
325.869 0.198450
326.308 0.251421
326.747 0.362724
326.966 0.470609
327.186 0.660599
327.405 1.04306
327.515 1.39866
327.625 1.99816
327.734 3.12610
327.789 4.10191
327.844 5.62067
327.899 8.16675
327.954 12.8283
327.981 16.7187
328.009 22.4389
328.036 31.0897
328.064 44.1836
328.102 70.6917
328.140 88.3086
328.178 70.6095
328.217 44.1733
328.262 25.0563
328.307 15.3947
328.352 10.2389
328.397 7.25217
328.443 5.39241
328.488 4.16452
328.578 2.70376
328.669 1.90526
328.759 1.42330
328.940 0.897144
329.120 0.631735
329.301 0.479888
329.663 0.322056
330.024 0.246460
330.386 0.204968
331.109 0.164607
332.555 0.141714
334.001 0.143893
336.893 0.189247
338.339 0.261778
338.700 0.308053
339.062 0.410835
339.243 0.530292
339.333 0.636695
339.423 0.810409
339.514 1.12581
339.604 1.79050
339.649 2.43446
339.695 3.55040
339.740 5.65612
339.785 9.85147
339.822 15.5932
339.860 19.4201
339.898 15.5992
339.935 9.86223
339.963 6.92342
339.991 5.01672
340.020 3.77626
340.048 2.94621
340.104 1.96188
340.160 1.43365
340.216 1.12211
340.272 0.924883
340.385 0.701681
340.610 0.523702
340.834 0.464673
341.284 0.447572
341.733 0.478615
342.632 0.616970
343.531 0.885529
343.981 1.11012
344.430 1.44853
344.880 1.99362
345.329 2.95864
345.554 3.74989
345.779 4.92705
346.003 6.79232
346.228 10.0062
346.453 16.2701
346.565 21.9026
346.678 31.0484
346.790 47.3244
346.846 60.6151
346.902 80.1307
346.959 110.301
347.015 159.546
347.071 244.667
347.127 395.465
347.184 630.957
347.240 787.238
347.297 630.824
347.353 395.322
347.409 244.353
347.465 159.462
347.521 110.309
347.578 80.1781
347.634 60.6519
347.690 47.3791
347.802 31.1235
347.914 21.9796
348.026 16.3650
348.251 10.1338
348.475 6.95089
348.700 5.12155
349.149 3.23221
349.597 2.36144
350.046 1.93338
350.944 1.72483
351.393 1.85577
351.842 2.17291
352.291 2.78079
352.740 3.94186
353.188 6.38861
353.413 8.72576
353.637 12.7492
353.862 20.5372
353.974 27.4694
354.086 38.6096
354.142 46.8830
354.198 58.0765
354.255 73.6880
354.311 96.2572
354.367 130.284
354.423 184.063
354.479 273.021
354.535 422.600
354.598 675.173
354.660 843.150
354.723 674.998
354.785 422.400
354.847 261.535
354.909 170.881
354.970 118.229
355.032 85.9689
355.094 65.0098
355.156 50.7754
355.279 33.3193
355.402 23.4843
355.526 17.4347
355.773 10.7000
356.020 7.24160
356.267 5.23704
356.514 3.97215
356.760 3.12303
357.254 2.08859
357.748 1.50595
358.242 1.14519
358.736 0.906250
359.723 0.619411
360.711 0.461236
362.686 0.308248
364.662 0.258676
365.649 0.264045
366.637 0.300345
367.625 0.403089
368.119 0.512914
368.612 0.716597
368.859 0.888487
369.106 1.14957
369.353 1.57291
369.600 2.32501
369.724 2.94170
369.847 3.85672
369.970 5.30035
370.094 7.76598
370.217 12.5029
370.279 16.6885
370.341 23.3684
370.403 34.9525
370.433 44.1606
370.464 57.3086
370.495 76.9610
370.526 107.430
370.557 156.941
370.588 237.841
370.624 380.459
370.660 475.515
370.696 380.410
370.732 237.785
370.759 166.838
370.785 120.084
370.811 89.2410
370.837 68.3655
370.889 43.2971
370.941 29.6535
370.993 21.5090
371.046 16.2901
371.150 10.2640
371.254 7.05635
371.359 5.15666
371.567 3.11426
371.776 2.09949
371.985 1.52418
372.194 1.16721
372.402 0.931025
372.820 0.649117
373.237 0.496122
374.072 0.355511
374.907 0.325737
375.324 0.348421
375.742 0.414101
376.159 0.574523
376.368 0.736910
376.577 1.02693
376.786 1.61331
376.890 2.15783
376.994 3.07062
377.099 4.77259
377.151 6.23008
377.203 8.47394
377.255 12.1780
377.307 18.8192
377.360 32.0010
377.386 43.4654
377.412 60.2252
377.431 77.0601
377.451 96.3052
377.490 120.366
377.529 96.2934
377.568 60.2101
377.614 34.3174
377.660 21.1522
377.706 14.0959
377.752 10.0028
377.798 7.44201
377.844 5.75181
377.935 3.73442
378.027 2.62838
378.119 1.96053
378.302 1.22947
378.486 0.859563
378.669 0.647156
379.036 0.424982
379.403 0.317372
379.770 0.257541
380.504 0.198329
381.971 0.166030
383.439 0.181635
384.906 0.249421
385.640 0.324040
386.374 0.462927
386.741 0.580289
387.108 0.758919
387.475 1.04940
387.841 1.56796
388.025 1.99530
388.208 2.63298
388.392 3.64630
388.575 5.39658
388.759 8.81715
388.850 11.8974
388.942 16.9130
389.034 25.8535
389.080 33.1808
389.126 43.9643
389.171 60.7019
389.217 88.0860
389.240 108.581
389.263 135.842
389.286 172.468
389.309 221.239
389.355 354.046
389.400 442.289
389.423 416.215
389.446 353.686
389.491 221.182
389.544 126.594
389.597 78.2325
389.649 52.1565
389.702 36.9444
389.755 27.4259
389.807 21.1193
389.913 13.5904
390.018 9.46114
390.124 6.96339
390.334 4.23050
390.545 2.85126
390.756 2.06221
390.967 1.57130
391.178 1.24789
391.599 0.874979
392.021 0.722514
392.232 0.735149
392.443 0.892604
392.548 1.12133
392.653 1.65573
392.706 2.20797
392.759 3.21962
392.811 5.27890
392.838 7.11441
392.864 9.84833
392.902 15.5376
392.940 19.3183
392.978 15.5126
393.016 9.82937
393.047 6.69474
393.078 4.74506
393.109 3.52079
393.140 2.72311
393.203 1.80061
393.265 1.31545
393.327 1.03149
393.389 0.851637
393.513 0.646108
393.762 0.478964
394.011 0.433491
394.260 0.464998
394.384 0.522910
394.508 0.636932
394.633 0.871037
394.695 1.08301
394.757 1.42356
394.819 2.01577
394.881 3.15873
394.912 4.15764
394.944 5.70382
394.975 8.19041
395.006 12.2149
395.043 19.4315
395.080 24.2455
395.117 19.4290
395.154 12.2087
395.180 8.70768
395.206 6.37750
395.232 4.81493
395.258 3.75070
395.310 2.45559
395.362 1.74356
395.414 1.31379
395.466 1.03686
395.569 0.713439
395.673 0.539194
395.777 0.434452
395.984 0.319434
396.399 0.225633
396.814 0.188723
397.644 0.165096
398.473 0.173990
399.303 0.222257
399.718 0.277237
400.133 0.380341
400.547 0.599362
400.755 0.812122
400.962 1.18658
401.170 1.93697
401.273 2.63117
401.377 3.79404
401.481 5.95711
401.533 7.80932
401.584 10.6592
401.636 15.3602
401.688 23.7584
401.740 40.4203
401.766 54.8512
401.792 75.9960
401.811 97.3097
401.831 121.537
401.870 151.886
401.909 121.524
401.948 75.9799
401.987 47.0581
402.025 30.7733
402.064 21.3211
402.102 15.5152
402.141 11.7468
402.179 9.18194
402.256 6.03606
402.333 4.26450
402.410 3.17371
402.564 1.95989
402.718 1.33686
402.872 0.975706
403.026 0.747953
403.180 0.595175
403.488 0.409258
403.796 0.304749
404.412 0.197446
405.029 0.146253
405.645 0.118034
406.877 0.0904746
408.109 0.0804762
409.341 0.0834250
409.957 0.0946578
410.573 0.129161
410.881 0.175722
411.035 0.220235
411.189 0.297343
411.343 0.448264
411.420 0.584480
411.497 0.806697
411.574 1.20390
411.612 1.52990
411.651 2.01204
411.689 2.76145
411.728 3.99652
411.766 6.16087
411.805 10.0756
411.842 16.0910
411.880 20.0871
411.918 16.0756
411.955 10.0776
411.981 7.21924
412.007 5.29795
412.032 4.00248
412.058 3.11007
412.109 2.01675
412.160 1.41215
412.212 1.04618
412.263 0.810194
412.365 0.535246
412.468 0.387867
412.570 0.300186
412.775 0.205884
412.980 0.159202
413.185 0.133054
413.595 0.107127
414.415 0.0924398
415.234 0.0961323
416.054 0.115674
416.464 0.136713
416.874 0.174972
417.284 0.254478
417.489 0.330953
417.694 0.464829
417.899 0.732455
418.001 0.979845
418.104 1.39380
418.206 2.16505
418.257 2.82473
418.309 3.84264
418.360 5.52502
418.411 8.53930
418.462 14.5302
418.488 19.7480
418.513 27.4204
418.552 43.8216
418.590 54.7511
418.628 43.8178
418.667 27.4160
418.691 19.9424
418.716 14.8135
418.766 8.82369
418.815 5.75703
418.864 4.02862
418.914 2.97246
418.963 2.28452
419.062 1.47700
419.161 1.04134
419.260 0.780748
419.457 0.498777
419.655 0.358131
419.852 0.278540
420.248 0.197434
420.643 0.160284
421.038 0.141524
421.829 0.127755
423.409 0.138418
424.990 0.182643
425.781 0.223219
426.571 0.286335
427.362 0.390546
428.152 0.579637
428.548 0.737910
428.943 0.977835
429.338 1.36713
429.733 2.06145
429.931 2.63381
430.128 3.48831
430.326 4.84644
430.524 7.19645
430.721 11.7956
430.820 15.9483
430.919 22.7271
431.018 34.8556
431.067 44.8206
431.116 59.5735
431.166 82.5375
431.215 120.459
431.265 187.101
431.314 308.079
431.362 492.805
431.410 615.887
431.458 492.715
431.506 307.984
431.541 214.383
431.577 153.296
431.612 113.340
431.648 86.5418
431.718 54.4830
431.789 37.1765
431.860 26.8758
431.931 20.3052
432.072 12.7329
432.213 8.71511
432.355 6.33954
432.496 4.81942
432.638 3.79043
432.921 2.52605
433.204 1.80973
433.487 1.36533
433.769 1.07107
434.335 0.718488
434.901 0.524233
435.467 0.406765
436.033 0.331143
437.164 0.245442
438.296 0.204617
440.559 0.186932
442.823 0.233834
443.954 0.295809
445.086 0.414940
445.652 0.516670
446.218 0.672208
446.784 0.926223
447.349 1.38206
447.632 1.75966
447.915 2.32608
448.198 3.23190
448.481 4.81323
448.764 7.95164
448.905 10.8299
449.047 15.6026
449.188 24.3631
449.259 31.7430
449.330 42.9518
449.401 61.0559
449.436 74.4783
449.471 92.4560
449.507 117.210
449.542 151.810
449.577 201.137
449.613 270.657
449.671 432.915
449.730 541.028
449.789 432.842
449.847 270.573
449.913 157.813
449.979 98.7883
450.044 66.3838
450.110 47.2966
450.175 35.2409
450.241 27.2203
450.372 17.5822
450.503 12.2672
450.634 9.04023
450.896 5.49666
451.158 3.70086
451.421 2.66897
451.683 2.02271
451.945 1.59182
452.469 1.07200
452.994 0.783579
453.518 0.608416
454.043 0.495395
455.091 0.367328
456.140 0.307075
458.238 0.286249
459.286 0.313839
460.335 0.373519
461.384 0.485320
462.433 0.699697
462.957 0.882567
463.482 1.16176
464.006 1.61626
464.530 2.42689
464.793 3.09343
465.055 4.08621
465.317 5.65736
465.579 8.35800
465.710 10.5011
465.841 13.5868
465.972 18.2530
466.104 25.7742
466.235 38.9801
466.300 49.6332
466.366 65.0862
466.431 88.5744
466.497 125.972
466.562 188.565
466.628 295.382
466.699 472.543
466.770 590.589
466.841 472.416
466.912 295.249
466.973 194.376
467.034 133.034
467.095 95.1371
467.155 70.8349
467.277 43.1304
467.398 28.8042
467.520 20.5310
467.641 15.3498
467.884 9.49390
468.127 6.44234
468.370 4.65732
468.613 3.52486
468.856 2.76232
469.342 1.83070
469.828 1.30539
470.314 0.980346
470.800 0.765358
471.772 0.507669
472.743 0.365215
473.715 0.278614
474.687 0.222620
476.631 0.160246
478.575 0.140829
479.546 0.153598
480.032 0.173568
480.518 0.214527
481.004 0.305985
481.247 0.396940
481.490 0.559238
481.733 0.889743
481.855 1.19990
481.976 1.72646
482.098 2.72778
482.158 3.60439
482.219 4.98493
482.280 7.33743
482.341 11.7546
482.371 15.5278
482.401 21.2122
482.432 30.1110
482.462 44.0224
482.501 70.4170
482.540 87.9463
482.579 70.3385
482.618 44.0140
482.655 27.9104
482.691 18.5796
482.728 13.0268
482.764 9.57052
482.837 5.73607
482.911 3.80438
482.984 2.70696
483.057 2.02720
483.203 1.26643
483.349 0.873715
483.495 0.645135
483.788 0.403161
484.080 0.284193
484.373 0.216794
484.957 0.146647
485.542 0.112242
486.127 0.0924749
487.297 0.0712189
489.636 0.0550690
490.805 0.0588493
491.098 0.0661252
491.390 0.0865527
491.536 0.112403
491.683 0.173842
491.756 0.241464
491.829 0.377403
491.865 0.501919
491.902 0.703443
491.938 1.05003
491.975 1.65806
492.013 2.62852
492.050 3.27344
492.088 2.62578
492.125 1.65794
492.152 1.17695
492.179 0.859620
492.233 0.508086
492.287 0.337410
492.341 0.244387
492.449 0.153087
492.557 0.111765
492.773 0.0764726
492.989 0.0621277
493.421 0.0505375
493.853 0.0458595
495.580 0.0406866
497.308 0.0455576
497.739 0.0523157
498.171 0.0710420
498.387 0.0953524
498.603 0.156309
498.711 0.228384
498.819 0.387902
498.873 0.550793
498.927 0.849887
498.954 1.09877
498.981 1.46619
499.008 2.02252
499.035 2.86172
499.073 4.55919
499.110 5.68641
499.148 4.55469
499.185 2.86209
499.211 2.05863
499.236 1.51563
499.287 0.897697
499.338 0.588368
499.389 0.417116
499.491 0.246418
499.593 0.168347
499.796 0.101480
500.000 0.0745070
500.360 0.0548597
500.719 0.0468259
501.438 0.0406093
502.876 0.0380093
505.752 0.0430532
507.190 0.0518532
507.909 0.0602643
508.628 0.0747272
509.347 0.103129
509.706 0.129330
510.066 0.173916
510.425 0.261173
510.605 0.341614
510.785 0.478005
510.964 0.741525
511.054 0.978838
511.144 1.36744
511.234 2.07260
511.279 2.66130
511.324 3.54940
511.369 4.97410
511.414 7.41947
511.459 11.9809
511.504 20.9564
511.542 33.4483
511.580 41.7494
511.618 33.4284
511.657 20.9884
511.696 12.8472
511.735 8.36510
511.774 5.81947
511.814 4.28385
511.892 2.64868
511.971 1.87231
512.049 1.46723
512.128 1.25477
512.285 1.15414
512.442 1.40677
512.521 1.72683
512.599 2.29246
512.678 3.34568
512.717 4.22387
512.757 5.52798
512.796 7.57020
512.835 10.9510
512.874 16.9006
512.914 27.6708
512.952 44.1566
512.990 55.1413
513.028 44.1402
513.066 27.6403
513.104 17.2243
513.141 11.3184
513.179 7.88052
513.216 5.76384
513.291 3.44835
513.366 2.29485
513.440 1.64155
513.515 1.23799
513.665 0.785342
513.814 0.550290
513.964 0.412518
514.263 0.264850
514.562 0.190981
514.861 0.148595
515.459 0.104145
516.057 0.0826292
516.655 0.0708584
517.851 0.0599871
520.243 0.0573705
522.635 0.0671235
525.028 0.0928446
526.224 0.118638
527.420 0.164958
528.616 0.261698
529.214 0.356217
529.812 0.525564
530.111 0.666156
530.410 0.877891
530.709 1.21876
531.008 1.82031
531.158 2.31122
531.307 3.03681
531.457 4.17469
531.606 6.10617
531.756 9.77480
531.831 12.9858
531.905 18.0455
531.980 26.6692
532.055 42.8822
532.092 56.7429
532.130 77.7323
532.167 110.556
532.204 162.004
532.252 259.247
532.300 323.873
532.348 259.003
532.396 161.973
532.438 105.117
532.481 71.1141
532.523 50.4588
532.565 37.3419
532.650 22.5703
532.735 15.0189
532.820 10.6811
532.904 7.97976
533.074 4.93677
533.243 3.35862
533.413 2.43828
533.582 1.85590
533.752 1.46458
534.091 0.988419
534.430 0.721760
534.769 0.558289
535.108 0.451578
535.786 0.327371
536.464 0.263581
537.820 0.214624
539.176 0.219290
540.532 0.270675
541.210 0.325925
541.888 0.430255
542.227 0.531465
542.566 0.743029
542.736 0.975995
542.821 1.17781
542.905 1.50066
542.990 2.07441
543.075 3.25040
543.117 4.36308
543.160 6.24394
543.202 9.67047
543.244 16.1825
543.282 25.5541
543.320 31.8031
543.358 25.5767
543.396 16.2265
543.425 11.3482
543.454 8.22736
543.483 6.21507
543.512 4.87895
543.569 3.31012
543.627 2.48033
543.743 1.70261
543.858 1.38429
544.090 1.18882
544.321 1.20674
544.783 1.52188
545.246 2.21857
545.477 2.81225
545.708 3.70607
545.940 5.13279
546.171 7.60362
546.402 12.4393
546.518 16.7983
546.633 23.9012
546.691 29.2484
546.749 36.5741
546.807 46.9559
546.865 62.2809
546.922 86.0410
546.980 125.060
547.038 193.098
547.096 315.373
547.153 504.676
547.210 630.530
547.267 504.242
547.324 315.283
547.365 222.684
547.405 161.145
547.446 120.245
547.486 92.3969
547.567 58.7474
547.648 40.3211
547.728 29.2767
547.809 22.1796
547.971 13.9564
548.132 9.57307
548.294 6.97027
548.456 5.30166
548.617 4.16966
548.940 2.77550
549.263 1.98341
549.587 1.49062
549.910 1.16360
550.556 0.770057
551.202 0.551544
551.849 0.417910
552.495 0.330426
553.788 0.227170
555.080 0.171769
557.665 0.121298
560.251 0.109706
561.543 0.116073
562.836 0.135676
564.129 0.184363
564.775 0.234523
565.421 0.326394
566.068 0.520866
566.391 0.711573
566.714 1.05235
566.875 1.33376
567.037 1.75490
567.199 2.42607
567.360 3.59102
567.522 5.88592
567.603 7.97173
567.683 11.4008
567.764 17.6018
567.805 22.7527
567.845 30.4620
567.885 42.6411
567.926 63.1760
567.946 78.8842
567.966 100.349
567.986 129.962
568.006 170.266
568.043 272.331
568.080 340.345
568.117 272.307
568.154 170.240
568.196 98.2443
568.238 61.0756
568.279 40.8819
568.321 29.0402
568.363 21.5895
568.405 16.6538
568.489 10.7451
568.573 7.49258
568.657 5.52425
568.824 3.36513
568.992 2.27276
569.160 1.64569
569.328 1.25320
569.495 0.991736
569.831 0.676112
570.166 0.500894
570.837 0.325312
571.507 0.246318
572.178 0.207710
573.520 0.186931
574.861 0.219060
575.532 0.264350
576.202 0.351724
576.873 0.539463
577.209 0.723646
577.544 1.05182
577.712 1.32189
577.879 1.72469
578.047 2.36373
578.215 3.46579
578.382 5.61520
578.466 7.54953
578.550 10.6896
578.634 16.2791
578.676 20.8364
578.718 27.5384
578.760 37.8769
578.802 54.7370
578.843 83.8521
578.864 106.137
578.885 135.532
578.928 216.904
578.970 270.982
579.012 216.681
579.055 135.511
579.101 79.7623
579.148 50.2794
579.194 33.9494
579.241 24.2821
579.287 18.1477
579.333 14.0572
579.426 9.12580
579.519 6.39878
579.612 4.74024
579.798 2.91699
579.984 1.99154
580.169 1.45988
580.541 0.906144
580.913 0.640634
581.284 0.495318
582.027 0.355670
582.770 0.301713
583.513 0.286626
585.000 0.326393
586.486 0.473733
587.229 0.628036
587.972 0.906473
588.344 1.13670
588.715 1.48152
589.087 2.03322
589.458 3.00059
589.830 4.94908
590.016 6.77327
590.201 9.88030
590.294 12.3309
590.387 15.8412
590.480 21.1181
590.573 29.5501
590.666 44.2208
590.712 55.9474
590.759 72.7950
590.805 98.1216
590.851 137.797
590.898 202.819
590.944 310.967
590.997 497.179
591.050 621.297
591.103 497.166
591.156 311.007
591.218 176.985
591.280 109.105
591.342 72.7392
591.404 51.6912
591.467 38.5717
591.529 29.9425
591.653 19.7352
591.777 14.2642
591.902 11.0974
592.150 8.16015
592.399 7.88079
592.523 8.75764
592.647 10.7688
592.772 15.0023
592.834 18.7775
592.896 24.6722
592.958 34.4585
593.020 51.9555
593.051 66.1240
593.082 86.3817
593.113 116.066
593.144 159.121
593.192 253.553
593.240 316.490
593.288 253.401
593.336 158.839
593.382 99.5446
593.428 65.7637
593.475 46.0201
593.521 33.8462
593.614 20.4467
593.707 13.7409
593.799 9.92756
593.892 7.56024
594.078 4.88520
594.263 3.47928
594.449 2.64274
594.820 1.72660
595.191 1.25339
595.561 0.973581
596.303 0.670290
597.045 0.520674
597.787 0.442693
599.271 0.402384
600.755 0.493991
601.497 0.622020
602.239 0.872001
602.610 1.08637
602.981 1.41394
603.352 1.94665
603.723 2.89344
603.908 3.66907
604.094 4.81959
604.279 6.62992
604.465 9.71329
604.650 15.6060
604.743 20.7932
604.836 29.0187
604.928 43.1570
604.975 54.3006
605.021 70.1047
605.067 93.4600
605.114 129.220
605.160 186.236
605.206 277.533
605.263 443.910
605.320 554.771
605.377 443.846
605.434 277.463
605.479 188.042
605.524 131.697
605.569 95.8552
605.614 72.2813
605.704 44.7913
605.794 30.2507
605.884 21.7308
605.974 16.3415
606.154 10.1908
606.334 6.95726
606.514 5.05625
606.694 3.84542
606.874 3.02756
607.234 2.02614
607.594 1.46082
607.954 1.11154
608.314 0.882054
609.034 0.614913
609.754 0.493581
610.114 0.484779
610.474 0.556863
610.654 0.681913
610.744 0.804233
610.834 1.01256
610.924 1.40051
611.014 2.22987
611.059 3.03662
611.104 4.43410
611.149 7.06243
611.194 12.2837
611.232 19.4889
611.270 24.2738
611.308 19.4651
611.346 12.2759
611.390 7.11388
611.434 4.48197
611.478 3.06804
611.523 2.24474
611.567 1.72984
611.611 1.38850
611.699 0.979993
611.788 0.754566
611.876 0.616964
612.053 0.463722
612.407 0.336201
612.760 0.283933
613.467 0.243771
614.174 0.239463
614.882 0.266781
615.589 0.364894
615.942 0.496834
616.119 0.621930
616.296 0.837865
616.473 1.26120
616.561 1.64570
616.649 2.27893
616.738 3.42937
616.782 4.39064
616.826 5.83864
616.870 8.14750
616.915 12.0935
616.959 19.3814
617.003 33.4716
617.042 53.4447
617.080 66.7135
617.119 53.3907
617.157 33.4766
617.189 22.4630
617.221 15.6274
617.252 11.3454
617.284 8.56253
617.347 5.35745
617.411 3.68565
617.474 2.71365
617.537 2.10498
617.664 1.41861
617.791 1.06676
617.917 0.867682
618.171 0.676399
618.424 0.611798
618.678 0.611361
619.185 0.748804
619.438 0.900244
619.691 1.14282
619.945 1.54393
620.198 2.25751
620.452 3.69310
620.578 5.02038
620.705 7.23995
620.832 11.3551
620.895 14.8652
620.959 20.2469
621.022 29.0721
621.085 44.7145
621.117 57.3170
621.149 75.3450
621.180 101.605
621.212 139.572
621.237 178.757
621.261 223.349
621.310 279.039
621.335 262.528
621.359 223.144
621.408 139.544
621.466 78.9001
621.525 48.3206
621.583 32.0302
621.641 22.6165
621.699 16.7472
621.757 12.8743
621.874 8.27234
621.990 5.75496
622.106 4.23672
622.339 2.57685
622.572 1.73892
622.804 1.25815
623.037 0.957019
623.270 0.756067
623.735 0.512659
624.200 0.376577
625.131 0.238734
626.062 0.177564
626.993 0.158172
627.458 0.170325
627.691 0.189312
627.923 0.227658
628.156 0.310814
628.272 0.390745
628.389 0.527720
628.505 0.789496
628.563 1.01872
628.621 1.37935
628.680 1.99249
628.738 3.13856
628.767 4.11282
628.796 5.57933
628.825 7.85492
628.854 11.3863
628.892 18.1697
628.930 22.6930
628.968 18.1697
629.006 11.3855
629.036 7.79524
629.065 5.51518
629.095 4.04909
629.124 3.08257
629.183 1.94645
629.242 1.34187
629.302 0.986076
629.361 0.760214
629.479 0.501422
629.597 0.364383
629.715 0.283212
629.951 0.195379
630.188 0.150922
630.424 0.124958
630.897 0.0966193
631.842 0.0722664
632.787 0.0609921
634.678 0.0496143
636.568 0.0437663
640.349 0.0387046
644.130 0.0388199
647.911 0.0442426
651.692 0.0599635
653.582 0.0771055
655.473 0.110697
656.418 0.141999
657.363 0.199254
657.836 0.253357
658.309 0.363334
658.545 0.483003
658.663 0.587315
658.781 0.757124
658.899 1.06965
658.959 1.33823
659.018 1.75702
659.077 2.46506
659.136 3.78911
659.165 4.91697
659.195 6.61315
659.224 9.25358
659.254 13.3863
659.292 21.2297
659.330 26.4611
659.368 21.2431
659.406 13.4124
659.435 9.34496
659.464 6.73650
659.493 5.04584
659.522 3.92539
659.580 2.60381
659.638 1.90259
659.696 1.49285
659.753 1.23767
659.869 0.957500
660.101 0.763867
660.332 0.742466
660.795 0.900695
661.258 1.29573
661.489 1.63778
661.721 2.15509
661.952 2.98335
662.184 4.42174
662.415 7.24667
662.531 9.80206
662.647 13.9814
662.762 21.4791
662.820 27.6623
662.878 36.8243
662.936 51.1618
662.994 74.9132
663.052 117.020
663.080 149.824
663.109 194.013
663.165 310.430
663.220 387.807
663.275 310.164
663.331 193.968
663.393 112.815
663.455 70.4807
663.517 47.2950
663.579 33.6625
663.642 25.0615
663.704 19.3446
663.828 12.4842
663.952 8.69994
664.076 6.40358
664.325 3.88343
664.574 2.60569
664.822 1.87149
665.071 1.41130
665.319 1.10410
665.816 0.732544
666.313 0.525373
666.810 0.398558
667.307 0.315869
668.301 0.220719
669.295 0.179323
669.793 0.178826
670.290 0.212334
670.538 0.268439
670.662 0.324035
670.787 0.420765
670.911 0.608140
670.973 0.773756
671.035 1.03721
671.097 1.49089
671.159 2.35539
671.191 3.10471
671.222 4.24979
671.253 6.07518
671.284 8.99040
671.322 14.3240
671.360 17.8800
671.398 14.3235
671.436 8.98887
671.480 5.23269
671.523 3.28741
671.567 2.23058
671.610 1.61184
671.654 1.22203
671.697 0.963428
671.784 0.652928
671.871 0.481495
671.958 0.377315
672.132 0.262166
672.306 0.202942
672.480 0.168241
672.827 0.130624
673.522 0.0995148
674.218 0.0864241
675.608 0.0763278
676.999 0.0766027
678.390 0.0881838
679.085 0.102259
679.780 0.129042
680.475 0.186598
680.823 0.243264
681.171 0.344633
681.518 0.553705
681.692 0.753415
681.866 1.10037
682.040 1.78427
682.127 2.40589
682.214 3.42831
682.301 5.27864
682.344 6.81899
682.388 9.12094
682.431 12.7704
682.474 18.9196
682.518 30.1057
682.561 51.2393
682.581 65.5839
682.601 81.9726
682.640 102.383
682.679 81.8845
682.719 51.2333
682.747 36.2099
682.774 26.2510
682.802 19.6012
682.830 15.0865
682.885 9.61500
682.941 6.62059
682.996 4.82092
683.052 3.66590
683.162 2.32547
683.273 1.61068
683.384 1.18621
683.606 0.729529
683.828 0.502549
684.050 0.373838
684.493 0.241387
684.937 0.178713
685.381 0.144819
686.268 0.112990
688.042 0.0996442
689.817 0.113533
691.591 0.156158
692.479 0.199260
693.366 0.275929
694.253 0.433309
694.697 0.584609
695.140 0.852067
695.362 1.07165
695.584 1.39964
695.806 1.92261
696.027 2.83475
696.249 4.64926
696.360 6.32020
696.471 9.10984
696.582 14.2783
696.637 18.6878
696.693 25.4502
696.748 36.5524
696.776 44.8947
696.804 56.2568
696.832 72.1955
696.859 94.9504
696.887 128.139
696.915 176.379
696.957 282.118
697.000 352.613
697.043 282.102
697.085 176.367
697.113 128.711
697.140 95.8425
697.194 57.2433
697.249 37.3412
697.303 26.1092
697.358 19.2187
697.412 14.7332
697.521 9.45822
697.630 6.61359
697.739 4.91609
697.957 3.09451
698.174 2.20900
698.392 1.73753
698.828 1.37576
699.263 1.50296
699.481 1.79579
699.699 2.38782
699.916 3.63939
700.025 4.81132
700.134 6.76954
700.243 10.3809
700.297 13.4346
700.352 18.0687
700.406 25.5599
700.461 38.5475
700.488 48.7665
700.515 63.0862
700.542 83.4348
700.570 112.184
700.615 179.420
700.660 224.113
700.705 179.238
700.751 112.150
700.795 69.9890
700.838 46.0454
700.882 32.0573
700.926 23.4243
700.970 17.7907
701.014 13.9561
701.102 9.23842
701.190 6.57046
701.278 4.92557
701.453 3.08828
701.629 2.14135
701.805 1.59024
702.156 1.00658
702.508 0.720038
702.859 0.559010
703.562 0.397176
704.264 0.327721
704.967 0.300627
706.373 0.320731
707.778 0.448137
708.481 0.590386
709.184 0.854202
709.535 1.07595
709.887 1.41166
710.238 1.95366
710.589 2.91094
710.765 3.69166
710.941 4.84562
711.116 6.65345
711.292 9.71687
711.468 15.5190
711.556 20.5811
711.643 28.5333
711.731 42.0196
711.775 52.4939
711.819 67.1944
711.863 88.5202
711.907 120.555
711.951 170.144
711.995 247.221
712.052 395.650
712.110 494.363
712.168 395.326
712.225 247.168
712.265 176.258
712.304 128.671
712.344 96.6787
712.383 74.6924
712.463 47.8379
712.542 33.0118
712.621 24.0576
712.700 18.2857
712.858 11.5679
713.016 7.97036
713.174 5.82951
713.490 3.52278
713.806 2.37490
714.122 1.72499
714.438 1.32393
714.754 1.06179
715.387 0.763344
716.019 0.645334
716.335 0.659135
716.651 0.796591
716.809 1.00226
716.888 1.19562
716.967 1.51668
717.047 2.09847
717.126 3.29151
717.165 4.40383
717.205 6.24471
717.244 9.48715
717.284 15.3878
717.322 24.3904
717.360 30.3701
717.398 24.3623
717.437 15.3807
717.463 10.9947
717.490 8.08172
717.517 6.13276
717.544 4.80756
717.598 3.19825
717.651 2.31543
717.705 1.78361
717.759 1.44155
717.866 1.04328
717.973 0.829972
718.080 0.702894
718.295 0.566326
718.724 0.465255
719.153 0.440557
720.012 0.480022
720.870 0.623715
721.300 0.758118
721.729 0.968416
722.158 1.31457
722.587 1.93341
722.802 2.44127
723.017 3.19422
723.231 4.37778
723.446 6.39081
723.660 10.2222
723.768 13.5787
723.875 18.8834
723.982 27.9320
724.036 35.0237
724.090 45.0245
724.143 59.6852
724.197 81.9130
724.251 116.881
724.304 172.035
724.372 275.295
724.440 343.993
724.474 323.719
724.508 275.098
724.576 171.994
724.647 103.627
724.718 66.3803
724.789 45.3324
724.860 32.6482
724.931 24.5275
725.002 19.0562
725.144 12.4140
725.286 8.71087
725.428 6.44593
725.712 3.94115
725.996 2.66284
726.280 1.92451
726.564 1.46009
726.848 1.14916
727.416 0.771738
727.984 0.560225
728.552 0.430181
729.120 0.345022
730.256 0.246784
731.392 0.205320
731.960 0.207547
732.528 0.250746
732.812 0.320813
732.954 0.390274
733.096 0.512004
733.238 0.750708
733.309 0.965107
733.380 1.31202
733.451 1.92348
733.522 3.13789
733.558 4.23428
733.593 5.99019
733.629 8.94723
733.664 14.0318
733.702 22.3762
733.740 27.9384
733.778 22.3762
733.816 14.0311
733.851 9.04345
733.885 6.10874
733.920 4.34387
733.954 3.23131
734.023 1.98705
734.092 1.35430
734.161 0.992142
734.230 0.767144
734.368 0.513972
734.506 0.382361
734.644 0.305389
734.920 0.223399
735.473 0.160728
736.025 0.141288
736.577 0.143249
737.129 0.179223
737.405 0.234864
737.543 0.289222
737.681 0.383626
737.819 0.567470
737.888 0.731512
737.957 0.995491
738.026 1.45732
738.095 2.36416
738.130 3.17314
738.164 4.45295
738.199 6.57283
738.233 10.1446
738.272 16.1869
738.310 20.2177
738.348 16.1871
738.387 10.1445
738.411 7.48194
738.435 5.62144
738.482 3.41314
738.530 2.26333
738.578 1.60799
738.626 1.20441
738.674 0.939998
738.769 0.627716
738.865 0.458074
738.960 0.356001
739.152 0.244666
739.343 0.188345
739.534 0.155904
739.916 0.121697
740.681 0.0953475
741.445 0.0857690
742.975 0.0809361
744.504 0.0849815
746.033 0.0981178
747.563 0.131702
748.327 0.171720
748.710 0.208291
749.092 0.270892
749.474 0.395620
749.665 0.512911
749.857 0.715338
750.048 1.11418
750.143 1.47852
750.239 2.08144
750.334 3.18755
750.382 4.12018
750.430 5.53778
750.478 7.82633
750.526 11.8079
750.573 19.3574
750.597 25.6398
750.621 34.4964
750.661 55.1517
750.700 68.8797
750.740 55.0951
750.779 34.4972
750.805 24.8455
750.832 18.2873
750.884 10.7746
750.937 6.98933
750.990 4.88524
751.043 3.60763
751.095 2.78219
751.201 1.81940
751.306 1.30367
751.412 0.997778
751.623 0.671786
751.834 0.514384
752.045 0.430251
752.467 0.358075
753.310 0.362871
754.154 0.478639
754.576 0.590465
754.998 0.765672
755.420 1.05417
755.842 1.57136
756.053 1.99784
756.263 2.63372
756.474 3.64221
756.685 5.37865
756.896 8.75326
757.002 11.7757
757.107 16.6600
757.213 25.2895
757.265 32.2756
757.318 42.4758
757.371 58.0963
757.424 83.1993
757.476 125.766
757.529 199.596
757.585 319.262
757.640 399.003
757.696 319.228
757.751 199.559
757.796 134.516
757.840 93.8061
757.885 68.0567
757.930 51.1950
758.019 31.6038
758.108 21.3002
758.197 15.2736
758.287 11.4736
758.465 7.14221
758.644 4.87037
758.822 3.53544
759.001 2.68594
759.179 2.11275
759.536 1.41095
759.893 1.01456
760.250 0.769215
760.607 0.607081
761.321 0.413170
762.035 0.306636
763.463 0.201436
764.890 0.155775
766.318 0.135403
769.174 0.132705
772.030 0.173301
773.458 0.221520
774.885 0.311773
775.599 0.387924
776.313 0.503655
777.027 0.691824
777.741 1.02864
778.098 1.30747
778.455 1.72622
778.812 2.39736
779.169 3.57343
779.526 5.92570
779.704 8.10088
779.883 11.7432
779.972 14.5650
780.061 18.5279
780.151 24.3423
780.240 33.3087
780.329 48.1181
780.374 59.3255
780.418 74.6813
780.463 96.2899
780.508 127.516
780.552 173.570
780.597 241.338
780.663 386.257
780.730 482.682
780.797 385.972
780.863 241.284
780.930 148.754
780.996 96.8958
781.062 66.9045
781.129 48.5800
781.195 36.7007
781.261 28.6445
781.394 18.7813
781.527 13.2345
781.659 9.82735
781.925 6.04187
782.190 4.10422
782.455 2.98589
782.721 2.28446
782.986 1.81759
783.517 1.25955
784.047 0.959914
785.108 0.702086
786.170 0.690718
786.700 0.779475
787.231 0.983172
787.762 1.44411
788.027 1.89849
788.292 2.70104
788.558 4.31252
788.690 5.80679
788.823 8.31400
788.956 13.0012
789.022 17.0265
789.088 23.2629
789.155 33.6241
789.221 52.3550
789.254 67.7454
789.287 90.0908
789.320 123.464
789.354 172.944
789.402 276.642
789.450 345.584
789.498 276.390
789.547 172.926
789.585 117.410
789.623 82.4012
789.661 60.1068
789.699 45.4305
789.775 28.2865
789.852 19.2283
789.928 13.9146
790.004 10.5601
790.157 6.73572
790.309 4.73594
790.462 3.56983
790.767 2.35520
791.072 1.79895
791.377 1.53770
791.987 1.47404
792.597 1.93510
792.902 2.49653
793.207 3.53856
793.512 5.67870
793.664 7.67680
793.817 11.0383
793.969 17.3139
794.045 22.7002
794.122 31.0123
794.198 44.7567
794.236 55.1643
794.274 69.4331
794.312 89.5900
794.350 118.684
794.388 161.644
794.427 224.942
794.483 359.951
794.540 449.749
794.597 359.651
794.654 224.886
794.706 143.919
794.757 96.4166
794.809 67.9041
794.861 50.0181
794.965 30.0509
795.069 19.9280
795.173 14.1537
795.277 10.5670
795.485 6.54180
795.693 4.45837
795.900 3.24344
796.108 2.47365
796.316 1.95518
796.732 1.32120
797.147 0.962380
797.563 0.739330
797.978 0.591074
798.810 0.412348
799.641 0.313357
801.303 0.217956
802.966 0.190083
803.797 0.197631
804.628 0.228722
805.459 0.311592
805.875 0.398802
806.290 0.559291
806.706 0.897322
806.914 1.22497
807.122 1.80135
807.329 2.95684
807.433 4.02672
807.537 5.82086
807.641 9.16407
807.693 12.0322
807.745 16.4538
807.797 23.7675
807.849 36.8862
807.875 47.5890
807.901 63.0041
807.927 85.8429
807.953 119.342
807.991 190.896
808.030 238.593
808.069 190.883
808.107 119.327
808.153 68.1226
808.198 42.0395
808.243 28.0089
808.288 19.8366
808.333 14.7284
808.378 11.3464
808.468 7.31161
808.558 5.09987
808.648 3.76224
808.828 2.29826
809.008 1.55802
809.188 1.13341
809.368 0.867470
809.548 0.689995
809.908 0.475249
810.268 0.355340
810.988 0.233474
811.708 0.176724
812.428 0.147052
813.868 0.124419
815.308 0.132304
816.028 0.150664
816.748 0.188317
817.468 0.270658
817.828 0.351558
818.188 0.495647
818.548 0.791251
818.728 1.07264
818.908 1.56045
819.088 2.51952
819.178 3.39060
819.268 4.82231
819.358 7.41144
819.403 9.56261
819.448 12.7833
819.493 17.8740
819.538 26.4647
819.583 42.0369
819.606 54.4592
819.628 71.4836
819.649 91.5407
819.669 114.341
819.710 142.808
819.751 114.225
819.792 71.4794
819.830 45.3748
819.868 30.2287
819.906 21.2078
819.944 15.5886
820.021 9.35187
820.097 6.21239
820.173 4.42649
820.249 3.32129
820.402 2.08781
820.555 1.45418
820.707 1.08918
821.012 0.712385
821.317 0.540676
821.622 0.459357
822.232 0.434342
822.843 0.563032
823.148 0.724630
823.453 1.03071
823.605 1.28910
823.758 1.67921
823.910 2.30557
824.063 3.39877
824.216 5.56411
824.292 7.54119
824.368 10.8003
824.444 16.7365
824.482 21.6906
824.521 29.1468
824.559 41.0572
824.578 49.7858
824.597 61.3244
824.616 77.0450
824.635 98.6210
824.654 128.887
824.673 170.600
824.707 272.940
824.740 341.174
824.757 320.984
824.774 272.924
824.807 170.581
824.839 106.893
824.871 70.5155
824.904 49.0968
824.936 35.8770
824.968 27.2191
825.000 21.3195
825.064 14.0463
825.128 9.92489
825.193 7.38333
825.321 4.54421
825.450 3.08303
825.578 2.23461
825.707 1.69900
825.835 1.33948
826.092 0.901769
826.349 0.655804
826.606 0.503971
826.863 0.403798
827.377 0.284403
827.891 0.219506
828.919 0.159070
829.947 0.143474
830.976 0.169663
831.490 0.220380
831.747 0.271893
832.004 0.364188
832.261 0.552284
832.389 0.729036
832.518 1.03017
832.646 1.60529
832.710 2.11173
832.775 2.91459
832.839 4.29596
832.903 6.93013
832.935 9.22112
832.967 12.7320
833.000 18.3265
833.032 27.3233
833.071 43.6724
833.110 54.5765
833.149 43.6709
833.188 27.3220
833.212 20.2415
833.236 15.2562
833.284 9.29216
833.332 6.15303
833.379 4.35125
833.427 3.23653
833.475 2.50404
833.570 1.63696
833.666 1.16560
833.761 0.882474
833.952 0.575611
834.143 0.423287
834.333 0.338297
834.715 0.256077
835.097 0.225575
835.478 0.219924
836.241 0.258357
836.623 0.305785
837.005 0.383929
837.386 0.516021
837.768 0.756772
837.959 0.957064
838.149 1.25785
838.340 1.73842
838.531 2.57487
838.722 4.22499
838.817 5.72700
838.913 8.19976
839.008 12.6803
839.056 16.4095
839.103 22.0020
839.151 30.8611
839.199 45.8561
839.223 57.3976
839.247 73.1549
839.270 95.0722
839.294 125.073
839.337 200.031
839.380 249.972
839.423 200.016
839.466 125.056
839.501 83.3402
839.537 57.6098
839.573 41.4897
839.608 31.0640
839.679 19.0554
839.750 12.7953
839.821 9.15259
839.892 6.86232
840.034 4.26471
840.177 2.90576
840.319 2.10945
840.461 1.60299
840.603 1.26164
840.887 0.843998
841.172 0.608088
841.456 0.461941
841.740 0.365206
842.309 0.249054
842.877 0.184689
844.014 0.119729
845.151 0.0896972
846.289 0.0740605
848.563 0.0619763
850.837 0.0648766
851.974 0.0726676
853.111 0.0882589
854.248 0.120857
854.817 0.151696
855.385 0.205109
855.954 0.312227
856.238 0.413465
856.523 0.589687
856.807 0.943174
856.949 1.27387
857.091 1.83719
857.233 2.91929
857.304 3.87849
857.375 5.41253
857.447 8.08690
857.518 13.2983
857.553 17.9344
857.589 25.2086
857.624 37.1628
857.660 57.1097
857.680 73.0504
857.700 91.2620
857.740 114.017
857.780 91.2626
857.820 57.1146
857.847 41.3196
857.873 30.5184
857.926 18.0357
857.979 11.7147
858.032 8.18396
858.085 6.03350
858.138 4.64146
858.244 3.01489
858.350 2.14473
858.456 1.63135
858.668 1.09227
858.880 0.846162
859.092 0.734346
859.515 0.726017
859.939 0.975947
860.151 1.26752
860.362 1.80060
860.574 2.88024
860.680 3.87480
860.786 5.52570
860.892 8.54693
860.945 11.0879
860.998 14.9254
861.051 21.0908
861.104 31.6876
861.157 51.5106
861.183 67.7723
861.210 90.4483
861.255 144.719
861.300 180.788
861.345 144.579
861.390 90.4317
861.435 55.7672
861.480 36.3503
861.525 25.1299
861.570 18.2596
861.615 13.8105
861.660 10.7872
861.750 7.08503
861.839 5.00317
861.929 3.72234
862.109 2.29773
862.289 1.56618
862.468 1.14220
862.648 0.874634
862.827 0.695026
863.187 0.476351
863.546 0.353530
864.264 0.228415
864.983 0.170763
865.701 0.141790
867.138 0.124971
868.575 0.148457
869.294 0.183317
870.012 0.251905
870.371 0.310910
870.731 0.401253
871.090 0.548660
871.449 0.811914
871.629 1.02876
871.808 1.35193
871.988 1.86412
872.168 2.74642
872.347 4.46063
872.437 5.99629
872.527 8.48179
872.617 12.8729
872.662 16.4342
872.706 21.6398
872.751 29.6048
872.796 42.4491
872.841 64.2870
872.864 80.7686
872.886 102.291
872.933 163.613
872.980 204.480
873.027 163.602
873.074 102.279
873.115 67.1466
873.155 45.8338
873.196 32.7342
873.236 24.3586
873.317 14.8255
873.398 9.90565
873.479 7.06569
873.560 5.29171
873.721 3.28898
873.883 2.24822
874.045 1.64278
874.207 1.26197
874.369 1.01026
874.693 0.723900
875.016 0.627976
875.178 0.670460
875.340 0.869655
875.421 1.12596
875.502 1.67644
875.542 2.20188
875.583 3.08133
875.623 4.65729
875.664 7.56497
875.702 11.9340
875.740 14.8347
875.778 11.9091
875.817 7.53927
875.844 5.34705
875.872 3.90596
875.900 2.95682
875.928 2.31474
875.983 1.54275
876.039 1.12054
876.095 0.866372
876.150 0.701586
876.261 0.507011
876.372 0.399102
876.484 0.331797
876.706 0.253070
877.151 0.178891
877.595 0.142114
878.485 0.104303
879.374 0.0852523
881.153 0.0688669
882.931 0.0673223
884.710 0.0801292
885.599 0.0964863
886.488 0.128007
887.378 0.196385
887.823 0.264140
888.267 0.386065
888.490 0.487341
888.712 0.639619
888.934 0.883931
889.156 1.31241
889.379 2.16950
889.490 2.96158
889.601 4.28605
889.712 6.74953
889.768 8.85509
889.823 12.0917
889.879 17.4218
889.935 26.9478
889.962 34.6619
889.990 45.7612
890.018 62.0428
890.046 85.7516
890.067 109.766
890.088 137.201
890.130 171.371
890.151 161.277
890.172 137.063
890.214 85.7428
890.242 61.7529
890.270 45.4674
890.327 26.6885
890.383 17.2199
890.439 11.9361
890.495 8.72891
890.551 6.64961
890.663 4.22127
890.775 2.91486
890.887 2.13517
891.112 1.29260
891.336 0.871588
891.560 0.632085
891.785 0.483090
892.009 0.384400
892.458 0.266357
892.907 0.201975
893.804 0.141352
894.701 0.123676
895.150 0.127340
895.599 0.143764
896.047 0.187142
896.272 0.231983
896.496 0.312755
896.720 0.477489
896.833 0.631666
896.945 0.892260
897.057 1.38420
897.113 1.81098
897.169 2.47703
897.225 3.59759
897.281 5.66532
897.309 7.39832
897.337 9.96001
897.365 13.8598
897.393 19.8064
897.432 31.6527
897.470 39.5511
897.508 31.6538
897.547 19.8077
897.572 14.3509
897.597 10.6257
897.647 6.29705
897.698 4.09782
897.748 2.86633
897.798 2.11447
897.848 1.62670
897.949 1.05449
898.050 0.745998
898.150 0.561806
898.351 0.362469
898.552 0.262941
898.753 0.206558
899.155 0.149178
899.557 0.123435
899.959 0.111564
900.764 0.109344
901.568 0.132359
901.970 0.160326
902.372 0.212957
902.774 0.324346
902.975 0.432168
903.176 0.621154
903.377 0.998253
903.478 1.34531
903.578 1.92374
903.679 2.99158
903.729 3.89885
903.779 5.28361
903.829 7.54250
903.880 11.5116
903.930 19.1897
903.955 25.6779
903.980 34.9958
904.020 56.0042
904.060 69.9690
904.100 55.9455
904.140 34.9926
904.181 21.1695
904.223 13.6002
904.264 9.31241
904.306 6.72896
904.347 5.06819
904.389 3.95064
904.472 2.59037
904.555 1.83116
904.637 1.36651
904.803 0.852460
904.969 0.590138
905.135 0.438742
905.466 0.280109
905.798 0.203323
906.130 0.160674
906.793 0.118084
908.119 0.0900817
909.446 0.0847995
912.099 0.0965863
914.751 0.131556
916.078 0.162792
917.404 0.210986
918.731 0.290063
920.057 0.432631
920.720 0.551286
921.384 0.730262
922.047 1.01875
922.710 1.52851
923.042 1.94464
923.373 2.56064
923.705 3.52792
924.036 5.17282
924.202 6.46456
924.368 8.30601
924.534 11.0544
924.700 15.4048
924.865 22.8433
924.948 28.6809
925.031 36.9476
925.114 49.0798
925.197 67.5814
925.280 96.7803
925.363 143.199
925.466 229.127
925.570 286.313
925.674 228.988
925.777 143.149
925.895 82.7694
926.013 51.4859
926.131 34.4615
926.248 24.4821
926.366 18.2077
926.484 14.0422
926.719 9.05296
926.955 6.30913
927.190 4.64644
927.661 2.82409
928.132 1.90260
928.603 1.37424
929.074 1.04423
929.545 0.825004
930.487 0.562787
931.429 0.420651
932.371 0.338687
933.313 0.291846
935.197 0.268352
936.139 0.292971
937.081 0.360000
938.023 0.522196
938.494 0.687577
938.965 0.987109
939.201 1.23564
939.436 1.60824
939.672 2.20234
939.907 3.23362
940.143 5.25972
940.261 7.09686
940.378 10.1044
940.496 15.5203
940.555 19.9962
940.614 26.6471
940.673 37.0941
940.732 54.4935
940.761 67.7179
940.790 85.5753
940.820 109.961
940.849 142.989
940.905 228.765
940.960 285.959
941.015 228.743
941.071 142.965
941.105 105.605
941.139 79.3629
941.207 48.0454
941.275 31.5990
941.343 22.1970
941.411 16.3809
941.479 12.5687
941.614 8.05754
941.750 5.60255
941.886 4.12683
942.158 2.51906
942.430 1.71022
942.701 1.24783
942.973 0.959155
943.245 0.767139
943.788 0.536134
944.332 0.408613
945.418 0.282892
946.505 0.229902
947.592 0.209130
949.766 0.221962
951.940 0.311358
953.027 0.411997
954.114 0.599525
954.657 0.757634
955.201 0.997488
955.744 1.38575
956.287 2.07363
956.559 2.63624
956.831 3.46952
957.103 4.77903
957.374 7.00766
957.646 11.2566
957.782 14.9886
957.918 20.8964
958.054 31.0173
958.122 38.9635
958.189 50.2270
958.257 66.8074
958.325 92.1050
958.393 132.117
958.461 195.895
958.546 313.511
958.630 391.796
958.715 313.316
958.799 195.846
958.872 128.015
958.946 87.0841
959.019 62.0348
959.093 46.0560
959.240 27.9337
959.387 18.6186
959.534 13.2536
959.681 9.90363
959.974 6.12399
960.268 4.15872
960.562 3.01080
960.856 2.28338
961.150 1.79407
961.738 1.19725
962.325 0.861658
962.913 0.654850
963.501 0.518900
964.676 0.358370
965.852 0.273234
967.027 0.226097
968.203 0.201882
970.554 0.204749
971.729 0.237639
972.905 0.311751
974.080 0.482224
974.668 0.654092
975.256 0.964967
975.549 1.22333
975.843 1.61160
976.137 2.23312
976.431 3.31803
976.725 5.47099
976.872 7.44222
977.019 10.7092
977.166 16.6951
977.239 21.7322
977.313 29.3572
977.386 41.6342
977.460 62.8332
977.496 79.4982
977.533 102.714
977.570 135.568
977.606 181.776
977.668 290.800
977.730 363.468
977.792 290.771
977.854 181.745
977.923 105.582
977.993 65.8688
978.062 44.1880
978.132 31.4469
978.202 23.4134
978.271 18.0682
978.410 11.6634
978.549 8.13292
978.689 5.99261
978.967 3.64259
979.245 2.45210
979.523 1.76804
979.802 1.33956
980.080 1.05382
980.637 0.709103
981.193 0.518223
981.750 0.403322
982.306 0.331179
983.420 0.262155
983.976 0.258093
984.533 0.281845
985.089 0.361855
985.368 0.449730
985.646 0.612303
985.924 0.951015
986.063 1.27326
986.203 1.82612
986.342 2.89174
986.411 3.83622
986.481 5.34373
986.550 7.96124
986.620 13.0234
986.655 17.4811
986.690 24.4335
986.724 35.7313
986.759 54.2567
986.779 69.4520
986.800 86.7244
986.840 108.356
986.881 86.7191
986.921 54.2494
986.947 39.7435
986.972 29.6938
987.023 17.8072
987.074 11.6565
987.125 8.16559
987.177 6.02210
987.228 4.62088
987.330 2.96982
987.432 2.07521
987.534 1.53804
987.739 0.953662
987.943 0.659112
988.147 0.490027
988.556 0.312412
988.965 0.225076
989.373 0.175173
990.191 0.122095
991.008 0.0949930
991.826 0.0787363
993.461 0.0602099
996.730 0.0435478
1000.00 0.0364954
1003.76 0.0339859
1007.51 0.0377774
1009.39 0.0450147
1010.33 0.0521401
1011.27 0.0646041
1012.21 0.0897652
1012.68 0.113714
1013.14 0.155699
1013.61 0.241639
1013.85 0.323919
1014.08 0.467368
1014.32 0.756407
1014.44 1.02420
1014.55 1.47592
1014.67 2.33685
1014.73 3.08763
1014.79 4.24341
1014.85 6.22519
1014.90 9.83406
1014.93 12.9790
1014.96 17.5247
1014.99 24.4677
1015.02 35.0982
1015.04 45.0759
1015.06 56.4863
1015.10 70.3025
1015.14 55.9144
1015.18 35.0974
1015.22 20.9834
1015.26 13.5036
1015.30 9.26169
1015.34 6.69758
1015.39 5.05211
1015.43 3.94151
1015.51 2.59093
1015.59 1.83000
1015.67 1.37140
1015.84 0.864669
1016.00 0.606353
1016.17 0.460065
1016.49 0.311614
1016.82 0.246753
1017.15 0.219608
1017.81 0.226830
1018.14 0.257737
1018.47 0.314488
1018.80 0.414827
1019.12 0.601179
1019.29 0.758896
1019.45 0.996093
1019.62 1.38080
1019.78 2.05391
1019.95 3.41378
1020.03 4.66759
1020.11 6.76996
1020.19 10.6869
1020.23 14.0428
1020.28 19.2252
1020.32 27.7775
1020.34 34.4421
1020.36 43.1396
1020.38 56.0062
1020.40 73.7121
1020.42 101.153
1020.44 139.558
1020.47 224.087
1020.50 277.767
1020.52 260.043
1020.53 221.180
1020.56 139.547
1020.59 88.0186
1020.62 58.2559
1020.65 40.6882
1020.68 30.0702
1020.71 22.8220
1020.73 17.8646
1020.79 11.8323
1020.85 8.34521
1020.91 6.22450
1021.02 3.84197
1021.14 2.60002
1021.25 1.88378
1021.36 1.42691
1021.48 1.12266
1021.71 0.750158
1021.94 0.540616
1022.17 0.411201
1022.39 0.325730
1022.85 0.223478
1023.31 0.167090
1024.23 0.110749
1025.14 0.0853396
1026.06 0.0728188
1027.89 0.0654245
1029.72 0.0729047
1031.56 0.101399
1032.47 0.135170
1032.93 0.164251
1033.39 0.210844
1033.85 0.296336
1034.08 0.371925
1034.31 0.497295
1034.53 0.736560
1034.65 0.953619
1034.76 1.31023
1034.88 1.97812
1034.94 2.54754
1034.99 3.43153
1035.05 4.93964
1035.11 7.66848
1035.14 9.98653
1035.16 13.2909
1035.19 18.4808
1035.22 26.0789
1035.26 41.7658
1035.30 51.8754
1035.34 41.3616
1035.38 26.1072
1035.42 15.9209
1035.46 10.3422
1035.50 7.18453
1035.54 5.28186
1035.63 3.25000
1035.71 2.26873
1035.79 1.73428
1035.87 1.42049
1036.03 1.11166
1036.20 1.00560
1036.36 1.00793
1036.69 1.24876
1037.02 1.92057
1037.18 2.58744
1037.34 3.73182
1037.51 5.94307
1037.59 7.89297
1037.67 10.9908
1037.75 16.3108
1037.84 26.4564
1037.88 35.2308
1037.92 48.6765
1037.96 70.0121
1038.00 103.061
1038.05 165.104
1038.10 205.222
1038.15 163.796
1038.20 103.042
1038.24 71.3158
1038.28 51.1866
1038.31 37.6750
1038.35 28.8437
1038.43 18.1561
1038.50 12.3875
1038.58 8.96269
1038.65 6.77633
1038.80 4.27061
1038.95 2.93114
1039.10 2.13896
1039.40 1.29104
1039.70 0.868285
1040.00 0.628965
1040.30 0.479634
1040.60 0.380863
1041.20 0.261961
1041.80 0.196262
1042.99 0.131107
1044.19 0.102804
1045.39 0.0904446
1047.78 0.0905901
1050.18 0.121192
1051.38 0.157224
1052.57 0.225017
1053.17 0.282551
1053.77 0.370294
1054.37 0.513284
1054.97 0.768718
1055.27 0.980428
1055.57 1.29633
1055.87 1.80176
1056.17 2.67721
1056.47 4.40863
1056.62 5.98541
1056.77 8.56042
1056.92 13.2510
1056.99 17.1556
1057.07 22.9152
1057.14 32.1300
1057.22 47.7048
1057.25 59.8306
1057.29 75.9905
1057.33 98.2306
1057.36 128.601
1057.43 205.828
1057.50 257.339
1057.57 205.805
1057.64 128.578
1057.69 90.2048
1057.73 64.9200
1057.78 48.2400
1057.83 37.1416
1057.93 23.4918
1058.03 16.1276
1058.12 11.6791
1058.22 8.85578
1058.42 5.57054
1058.61 3.82287
1058.81 2.78659
1059.00 2.12302
1059.20 1.67310
1059.59 1.12023
1059.98 0.806854
1060.37 0.612665
1060.76 0.484698
1061.54 0.332179
1062.31 0.250300
1063.09 0.203574
1063.87 0.177585
1065.43 0.168142
1066.21 0.186648
1066.99 0.233252
1067.77 0.344014
1068.16 0.456501
1068.55 0.659436
1068.75 0.828177
1068.94 1.08130
1069.14 1.48529
1069.33 2.18765
1069.53 3.57093
1069.62 4.83594
1069.72 6.89316
1069.82 10.6507
1069.87 13.7778
1069.92 18.3480
1069.97 25.6932
1070.01 37.7507
1070.04 47.3279
1070.06 59.8691
1070.09 77.0217
1070.11 100.292
1070.13 129.059
1070.16 160.474
1070.20 200.611
1070.22 188.302
1070.25 160.465
1070.29 100.281
1070.33 63.0033
1070.38 41.5949
1070.42 29.0078
1070.46 21.3494
1070.50 16.2024
1070.55 12.6850
1070.63 8.39046
1070.72 5.92711
1070.80 4.42212
1070.97 2.73580
1071.14 1.86092
1071.31 1.35550
1071.49 1.03439
1071.66 0.820146
1072.00 0.558187
1072.34 0.411889
1073.02 0.263262
1073.70 0.194639
1074.39 0.159678
1075.75 0.136086
1077.11 0.153706
1077.80 0.183891
1078.48 0.244027
1079.16 0.374934
1079.50 0.503348
1079.84 0.731695
1080.18 1.19752
1080.36 1.63920
1080.53 2.39272
1080.70 3.85849
1080.78 5.15801
1080.87 7.24766
1080.95 10.9628
1081.04 18.2205
1081.08 24.8161
1081.12 35.0481
1081.17 52.5094
1081.21 81.4016
1081.25 130.394
1081.30 161.985
1081.35 129.280
1081.39 81.3966
1081.43 57.5119
1081.46 42.0217
1081.49 31.6044
1081.52 24.4419
1081.59 15.5978
1081.65 10.7991
1081.72 7.86373
1081.78 6.00166
1081.91 3.81898
1082.04 2.65453
1082.17 1.96411
1082.42 1.22806
1082.68 0.868353
1082.94 0.675230
1083.45 0.515964
1083.97 0.538120
1084.23 0.629270
1084.48 0.822668
1084.74 1.24629
1084.87 1.65259
1085.00 2.34086
1085.13 3.65856
1085.19 4.82016
1085.26 6.61889
1085.32 9.71336
1085.39 15.3946
1085.42 20.1776
1085.45 27.3199
1085.48 38.2939
1085.51 55.2151
1085.54 71.1263
1085.56 88.5067
1085.60 110.798
1085.64 88.4995
1085.69 55.2041
1085.72 38.2811
1085.75 27.3053
1085.78 20.1612
1085.81 15.5001
1085.88 9.81833
1085.94 6.73724
1086.00 4.90155
1086.07 3.72648
1086.19 2.36929
1086.32 1.64735
1086.44 1.21875
1086.70 0.756610
1086.95 0.525411
1087.20 0.393003
1087.70 0.254145
1088.21 0.185957
1088.71 0.147400
1089.72 0.107639
1090.73 0.0892709
1091.74 0.0804715
1093.75 0.0775827
1095.77 0.0892857
1097.79 0.123182
1098.80 0.159902
1099.80 0.237747
1100.31 0.323577
1100.56 0.399274
1100.81 0.525345
1101.06 0.768264
1101.19 0.989681
1101.32 1.36032
1101.44 2.05726
1101.51 2.66388
1101.57 3.61910
1101.63 5.24348
1101.69 8.30311
1101.73 10.9695
1101.76 14.8851
1101.79 21.2222
1101.82 30.8896
1101.84 39.4333
1101.86 49.1811
1101.90 61.3428
1101.94 49.1880
1101.98 30.9050
1102.02 20.0499
1102.05 13.7402
1102.09 9.88114
1102.12 7.41779
1102.19 4.63106
1102.26 3.20161
1102.33 2.37402
1102.40 1.86983
1102.54 1.31116
1102.68 1.03244
1102.82 0.884376
1103.10 0.764294
1103.66 0.817396
1104.23 1.11668
1104.51 1.39353
1104.79 1.81940
1105.07 2.50729
1105.35 3.70449
1105.63 6.07459
1105.77 8.22064
1105.91 11.7411
1105.98 14.4530
1106.05 18.1472
1106.12 23.4256
1106.19 31.3024
1106.26 43.6961
1106.33 64.4761
1106.37 80.2891
1106.40 101.801
1106.44 131.335
1106.47 171.570
1106.54 275.022
1106.60 344.205
1106.67 274.994
1106.73 171.540
1106.78 117.496
1106.83 83.4921
1106.88 61.4524
1106.93 46.7357
1107.03 29.1765
1107.12 19.8650
1107.22 14.3041
1107.32 10.8020
1107.52 6.77179
1107.71 4.62889
1107.91 3.36448
1108.11 2.55755
1108.30 2.01405
1108.70 1.34398
1109.09 0.966125
1109.48 0.732601
1109.88 0.579290
1110.66 0.401993
1111.45 0.326092
1111.85 0.327445
1112.24 0.394998
1112.44 0.504119
1112.53 0.609505
1112.63 0.789066
1112.73 1.13043
1112.78 1.42079
1112.83 1.86774
1112.88 2.60056
1112.93 3.90247
1112.98 6.44750
1113.00 8.68120
1113.02 11.7891
1113.06 18.7545
1113.10 23.3980
1113.14 18.7525
1113.18 11.7847
1113.21 7.95965
1113.24 5.63643
1113.27 4.15511
1113.30 3.17836
1113.36 2.03566
1113.42 1.42877
1113.48 1.07184
1113.54 0.845232
1113.66 0.585197
1113.78 0.446540
1113.90 0.365081
1114.14 0.277196
1114.62 0.210473
1115.10 0.195104
1115.58 0.213483
1115.82 0.242784
1116.06 0.300450
1116.30 0.423952
1116.42 0.541325
1116.54 0.741981
1116.66 1.12467
1116.72 1.45990
1116.78 1.98914
1116.84 2.89008
1116.90 4.58593
1116.93 6.03336
1116.96 8.22366
1116.99 11.6461
1117.02 17.0243
1117.06 27.3334
1117.10 33.9783
1117.14 27.0518
1117.18 17.0244
1117.21 11.7890
1117.23 8.49939
1117.26 6.27301
1117.29 4.83027
1117.35 3.07518
1117.40 2.14025
1117.46 1.57283
1117.52 1.21610
1117.63 0.799848
1117.74 0.578767
1117.86 0.447847
1118.08 0.307543
1118.31 0.238455
1118.53 0.200039
1118.99 0.163128
1119.89 0.149262
1120.80 0.174686
1121.70 0.252945
1122.15 0.335439
1122.60 0.486615
1122.83 0.612998
1123.06 0.803618
1123.28 1.10989
1123.51 1.64720
1123.73 2.72024
1123.85 3.70990
1123.96 5.36263
1124.07 8.42303
1124.13 11.0565
1124.19 15.0259
1124.24 21.6383
1124.30 33.1511
1124.33 42.7534
1124.36 56.0365
1124.38 75.2909
1124.41 103.094
1124.46 165.104
1124.50 206.515
1124.54 165.094
1124.59 103.083
1124.64 58.3561
1124.69 36.0803
1124.74 24.0708
1124.79 17.0616
1124.84 12.6735
1124.90 9.76448
1125.00 6.28934
1125.10 4.38175
1125.20 3.22697
1125.41 1.96203
1125.61 1.31994
1125.81 0.953521
1126.02 0.723980
1126.22 0.570835
1126.63 0.385494
1127.04 0.282763
1127.45 0.220247
1127.86 0.180352
1128.67 0.138422
1129.49 0.134694
1129.90 0.157804
1130.31 0.236827
1130.51 0.344742
1130.61 0.445769
1130.72 0.616212
1130.82 0.935017
1130.87 1.20865
1130.92 1.63161
1130.97 2.33010
1131.02 3.58565
1131.07 6.08692
1131.10 8.32216
1131.12 11.4862
1131.16 18.3411
1131.20 22.9112
1131.24 18.3408
1131.28 11.4853
1131.30 8.01453
1131.33 5.81379
1131.36 4.35290
1131.39 3.35859
1131.44 2.14110
1131.49 1.48936
1131.55 1.09209
1131.60 0.841824
1131.71 0.550674
1131.82 0.393566
1131.93 0.300844
1132.15 0.199867
1132.58 0.119796
1133.01 0.0889048
1133.88 0.0655197
1134.75 0.0592723
1135.62 0.0634507
1136.49 0.0882215
1136.92 0.125401
1137.14 0.162096
1137.36 0.227257
1137.57 0.358972
1137.68 0.482423
1137.79 0.688752
1137.90 1.08036
1137.95 1.41602
1138.01 1.93810
1138.06 2.82970
1138.12 4.43704
1138.14 5.76829
1138.17 7.72471
1138.20 10.6699
1138.22 15.1019
1138.26 24.0823
1138.30 30.0435
1138.34 24.0829
1138.38 15.1025
1138.40 10.6704
1138.43 7.81378
1138.46 5.82802
1138.48 4.51987
1138.54 2.89445
1138.59 2.01275
1138.64 1.47000
1138.69 1.12618
1138.80 0.721177
1138.90 0.504245
1139.01 0.374992
1139.22 0.235388
1139.43 0.165626
1139.64 0.125827
1140.06 0.0844177
1140.90 0.0531279
1141.74 0.0416893
1143.42 0.0337529
1145.10 0.0324072
1146.78 0.0348790
1148.46 0.0436835
1149.30 0.0547898
1150.14 0.0826805
1150.56 0.118091
1150.98 0.209465
1151.19 0.324722
1151.30 0.431111
1151.40 0.609465
1151.51 0.942361
1151.56 1.23175
1151.61 1.67171
1151.67 2.41633
1151.72 3.73909
1151.75 4.86963
1151.77 6.46133
1151.80 8.82339
1151.82 12.3209
1151.86 19.6225
1151.90 24.4643
1151.94 19.6237
1151.98 12.3230
1152.02 7.01025
1152.07 4.36118
1152.11 2.92870
1152.15 2.09123
1152.20 1.56645
1152.24 1.21843
1152.33 0.802754
1152.42 0.572929
1152.51 0.436096
1152.68 0.287119
1152.86 0.212715
1153.04 0.171581
1153.39 0.132139
1154.09 0.115805
1154.80 0.134790
1155.50 0.192063
1155.86 0.249907
1156.21 0.352208
1156.56 0.560660
1156.74 0.757165
1156.91 1.09585
1157.09 1.76325
1157.18 2.36496
1157.27 3.35123
1157.36 5.12897
1157.40 6.60159
1157.44 8.80018
1157.49 12.2625
1157.53 18.0747
1157.58 28.5302
1157.60 36.8106
1157.62 48.0914
1157.64 62.0073
1157.66 77.0863
1157.70 95.7195
1157.74 76.3358
1157.78 48.0968
1157.81 35.5294
1157.83 27.0000
1157.88 16.4739
1157.93 10.9127
1157.98 7.71409
1158.03 5.73320
1158.08 4.43119
1158.17 2.89115
1158.27 2.05668
1158.37 1.55874
1158.57 1.02904
1158.76 0.781116
1158.96 0.661829
1159.35 0.623475
1159.74 0.807301
1159.94 1.03498
1160.13 1.45626
1160.33 2.31292
1160.43 3.10312
1160.52 4.41447
1160.62 6.81173
1160.67 8.82270
1160.72 11.8605
1160.77 16.7192
1160.82 25.0525
1160.87 40.5060
1160.89 52.7826
1160.92 69.7452
1160.94 89.9825
1160.96 112.002
1161.00 139.276
1161.02 130.549
1161.04 110.948
1161.09 69.7345
1161.12 47.6837
1161.15 33.9547
1161.18 24.8139
1161.22 18.9211
1161.28 11.8409
1161.34 8.09890
1161.41 5.84812
1161.47 4.41870
1161.60 2.78986
1161.73 1.92223
1161.86 1.41403
1162.12 0.869201
1162.38 0.599398
1162.64 0.449339
1163.15 0.304713
1163.67 0.263531
1163.93 0.275467
1164.19 0.321634
1164.45 0.440128
1164.58 0.559168
1164.71 0.767434
1164.84 1.17629
1164.90 1.54075
1164.97 2.11365
1165.03 3.11972
1165.09 5.02446
1165.13 6.74284
1165.16 9.32754
1165.19 13.4643
1165.22 20.1454
1165.26 32.2484
1165.30 40.0020
1165.34 31.9174
1165.38 20.1423
1165.40 14.4849
1165.43 10.7657
1165.48 6.36417
1165.53 4.13563
1165.58 2.90734
1165.63 2.14194
1165.68 1.65336
1165.78 1.07250
1165.88 0.756034
1165.99 0.568259
1166.19 0.363170
1166.39 0.258637
1166.59 0.198314
1167.00 0.133745
1167.81 0.0817058
1168.61 0.0604599
1170.23 0.0426456
1171.85 0.0359146
1173.47 0.0344338
1175.09 0.0396232
1175.90 0.0490924
1176.71 0.0765310
1177.11 0.113658
1177.52 0.212261
1177.72 0.338769
1177.82 0.455360
1177.92 0.650641
1178.02 1.01391
1178.07 1.32842
1178.12 1.80380
1178.17 2.60296
1178.22 4.00554
1178.25 5.19242
1178.27 6.84328
1178.30 9.26141
1178.32 12.7919
1178.36 20.4257
1178.40 25.5042
1178.44 20.4263
1178.48 12.7927
1178.50 9.03256
1178.53 6.61161
1178.56 4.92992
1178.58 3.82262
1178.64 2.44739
1178.69 1.69086
1178.74 1.23605
1178.79 0.943166
1178.90 0.605412
1179.01 0.422862
1179.11 0.314443
1179.32 0.198148
1179.75 0.107121
1180.17 0.0731717
1181.01 0.0484048
1181.86 0.0402899
1183.55 0.0372512
1185.24 0.0419082
1186.94 0.0558358
1187.78 0.0702990
1188.63 0.0967324
1189.47 0.152617
1189.90 0.207445
1190.32 0.305626
1190.53 0.387088
1190.74 0.508700
1190.96 0.704101
1191.17 1.04355
1191.38 1.72062
1191.48 2.34228
1191.59 3.36284
1191.70 5.25047
1191.75 6.84350
1191.80 9.26597
1191.85 13.1777
1191.91 19.9822
1191.96 32.8719
1191.99 43.3398
1192.01 58.0443
1192.03 74.3130
1192.06 92.9182
1192.10 116.192
1192.14 92.9140
1192.19 58.0396
1192.24 33.8981
1192.29 21.2301
1192.34 14.2807
1192.38 10.2439
1192.43 7.63277
1192.48 5.92338
1192.58 3.83880
1192.68 2.67650
1192.77 1.97807
1192.97 1.20883
1193.16 0.816359
1193.36 0.591802
1193.55 0.450870
1193.74 0.356726
1194.13 0.242617
1194.52 0.179189
1195.30 0.114938
1196.08 0.0851754
1196.85 0.0695375
1198.41 0.0560331
1199.96 0.0536756
1201.52 0.0602649
1202.29 0.0704349
1203.07 0.0965760
1203.46 0.129730
1203.85 0.214738
1204.04 0.321868
1204.14 0.419776
1204.24 0.582763
1204.33 0.883733
1204.38 1.14268
1204.43 1.53128
1204.48 2.17945
1204.53 3.30206
1204.58 5.53299
1204.60 7.39874
1204.62 10.0840
1204.66 16.1059
1204.70 20.1244
1204.74 16.1070
1204.78 10.0859
1204.82 5.73278
1204.87 3.53633
1204.91 2.36568
1204.96 1.68817
1205.00 1.26668
1205.05 0.988641
1205.14 0.660994
1205.23 0.479864
1205.32 0.371093
1205.49 0.253951
1205.85 0.164081
1206.21 0.134475
1206.93 0.126043
1207.65 0.148964
1208.37 0.211520
1208.72 0.274874
1209.08 0.388188
1209.44 0.622090
1209.62 0.846053
1209.80 1.23250
1209.98 1.99720
1210.07 2.69297
1210.16 3.82162
1210.25 5.88088
1210.29 7.59186
1210.34 10.0830
1210.38 14.0848
1210.43 20.8167
1210.47 32.9563
1210.50 42.3370
1210.52 55.0434
1210.54 70.6679
1210.56 88.5260
1210.60 110.169
1210.62 103.527
1210.64 87.6726
1210.68 55.0402
1210.73 31.5417
1210.78 19.5054
1210.83 13.0189
1210.88 9.23612
1210.92 6.86971
1210.97 5.30208
1211.07 3.43101
1211.16 2.40507
1211.26 1.78467
1211.45 1.10616
1211.64 0.763959
1211.84 0.568272
1212.22 0.366102
1212.60 0.270063
1212.99 0.218528
1213.75 0.171680
1215.29 0.158345
1216.82 0.192439
1218.36 0.283212
1219.13 0.373116
1219.89 0.531439
1220.66 0.853122
1221.04 1.15835
1221.43 1.68709
1221.81 2.73990
1222.00 3.71144
1222.19 5.32915
1222.39 8.36058
1222.48 10.9666
1222.58 15.0081
1222.67 21.7215
1222.72 26.8427
1222.77 33.9057
1222.82 43.9273
1222.87 58.5602
1222.91 80.4137
1222.96 112.197
1223.03 180.194
1223.10 224.786
1223.17 179.154
1223.24 112.208
1223.30 71.6656
1223.37 48.2301
1223.43 34.1394
1223.49 25.2570
1223.62 15.2738
1223.75 10.2583
1223.87 7.38264
1224.00 5.62122
1224.25 3.67157
1224.50 2.70288
1224.76 2.19451
1225.26 1.86016
1225.77 2.17815
1226.02 2.68193
1226.27 3.64657
1226.52 5.63640
1226.65 7.45963
1226.78 10.4589
1226.90 15.9168
1226.97 20.3976
1227.03 27.0579
1227.09 37.4764
1227.15 54.7923
1227.19 68.0961
1227.22 85.4910
1227.25 109.924
1227.28 141.836
1227.34 226.498
1227.40 282.828
1227.46 226.468
1227.52 141.793
1227.57 91.5570
1227.63 62.1493
1227.68 43.9731
1227.73 32.6630
1227.84 19.7952
1227.95 13.2181
1228.06 9.44633
1228.16 7.09445
1228.38 4.45302
1228.59 3.07147
1228.80 2.26334
1229.23 1.40482
1229.66 0.979766
1230.09 0.739886
1230.94 0.494624
1231.79 0.383131
1232.65 0.330945
1234.36 0.319780
1236.07 0.419598
1236.92 0.542088
1237.78 0.772452
1238.20 0.966514
1238.63 1.25809
1239.06 1.72385
1239.48 2.53221
1239.91 4.12222
1240.13 5.56122
1240.34 7.90054
1240.55 12.1097
1240.66 15.5746
1240.77 20.6544
1240.87 28.6355
1240.98 41.8448
1241.09 65.1268
1241.19 107.006
1241.30 171.577
1241.40 214.092
1241.50 170.886
1241.61 106.977
1241.69 73.8862
1241.76 52.5060
1241.84 38.6415
1241.92 29.3841
1242.08 18.4221
1242.23 12.5369
1242.39 9.05502
1242.54 6.83771
1242.86 4.29080
1243.17 2.94424
1243.48 2.14888
1244.10 1.29799
1244.73 0.875764
1245.35 0.637144
1245.97 0.489195
1246.60 0.391806
1247.84 0.276462
1249.09 0.215622
1251.59 0.166881
1254.08 0.176362
1255.33 0.207854
1256.57 0.275565
1257.82 0.428622
1258.45 0.582162
1259.07 0.858585
1259.38 1.08814
1259.69 1.43265
1260.00 1.98320
1260.32 2.93835
1260.63 4.83035
1260.78 6.55609
1260.94 9.40367
1261.10 14.5814
1261.17 18.9064
1261.25 25.4157
1261.33 35.7775
1261.41 53.4372
1261.45 67.0854
1261.49 85.9039
1261.52 112.136
1261.56 147.354
1261.63 236.157
1261.70 295.527
1261.77 236.136
1261.84 147.331
1261.89 104.536
1261.93 75.9466
1261.98 56.8514
1262.03 44.0232
1262.13 28.0705
1262.22 19.3742
1262.32 14.0826
1262.41 10.7080
1262.60 6.77634
1262.79 4.66079
1262.98 3.40295
1263.36 2.05005
1263.75 1.37385
1264.13 0.990221
1264.51 0.750857
1264.89 0.592346
1265.65 0.401414
1266.42 0.295572
1267.94 0.189340
1269.47 0.141171
1270.99 0.117417
1274.04 0.104729
1277.09 0.126793
1278.62 0.158206
1280.15 0.219590
1280.91 0.272379
1281.67 0.353352
1282.43 0.485898
1283.20 0.723796
1283.58 0.921537
1283.96 1.21779
1284.34 1.69352
1284.72 2.52350
1285.10 4.18071
1285.30 5.70661
1285.49 8.23331
1285.58 10.1977
1285.68 12.9164
1285.77 16.8650
1285.87 22.8880
1285.96 32.7899
1286.06 50.0107
1286.11 63.8631
1286.15 83.0378
1286.20 111.171
1286.25 150.528
1286.32 241.358
1286.40 300.818
1286.48 240.075
1286.55 150.501
1286.63 91.2674
1286.71 59.0029
1286.79 40.3716
1286.87 29.2227
1286.95 21.9604
1287.02 17.1153
1287.18 11.1703
1287.34 7.84651
1287.50 5.81015
1287.81 3.55526
1288.12 2.40398
1288.44 1.73964
1288.75 1.32271
1289.06 1.04540
1289.69 0.710814
1290.32 0.528330
1290.95 0.421803
1291.57 0.359869
1292.83 0.324106
1293.46 0.351322
1294.08 0.430209
1294.71 0.623931
1295.03 0.821058
1295.34 1.17360
1295.65 1.89361
1295.81 2.56807
1295.97 3.71096
1296.12 5.87208
1296.20 7.76636
1296.28 10.6989
1296.36 15.7107
1296.44 24.8901
1296.48 32.5838
1296.52 44.0223
1296.56 61.4978
1296.59 88.2553
1296.65 141.182
1296.70 176.476
1296.75 141.172
1296.81 88.2434
1296.87 49.8564
1296.93 30.7452
1296.99 20.3612
1297.06 14.4377
1297.12 10.6852
1297.18 8.24601
1297.31 5.31419
1297.43 3.71030
1297.56 2.74140
1297.81 1.68171
1298.06 1.14605
1298.31 0.838262
1298.81 0.516401
1299.31 0.359257
1299.80 0.270990
1300.80 0.180071
1301.80 0.136963
1302.80 0.114192
1304.80 0.0975199
1306.80 0.108059
1307.80 0.128195
1308.80 0.169684
1309.80 0.262278
1310.30 0.354944
1310.80 0.521685
1311.05 0.660280
1311.30 0.868448
1311.55 1.20152
1311.79 1.77984
1312.04 2.92931
1312.17 3.98100
1312.29 5.72212
1312.42 8.90380
1312.48 11.6010
1312.54 15.6159
1312.61 22.1596
1312.67 33.2404
1312.70 41.8542
1312.73 53.7936
1312.76 70.5409
1312.79 93.8695
1312.85 150.507
1312.90 187.241
1312.95 149.381
1313.01 93.8591
1313.06 56.5975
1313.12 36.2485
1313.18 24.7496
1313.23 17.9186
1313.29 13.4502
1313.34 10.4873
1313.45 6.84289
1313.56 4.79261
1313.68 3.55047
1313.90 2.17411
1314.12 1.46820
1314.34 1.06246
1314.57 0.806206
1314.79 0.635577
1315.23 0.428323
1315.68 0.312700
1316.12 0.242166
1316.57 0.196715
1317.46 0.146941
1318.35 0.135112
1318.79 0.150739
1319.24 0.212601
1319.46 0.299796
1319.68 0.523274
1319.79 0.789977
1319.85 1.02428
1319.90 1.38432
1319.96 2.00073
1320.01 3.11681
1320.04 4.06541
1320.07 5.47625
1320.10 7.63033
1320.12 10.7769
1320.16 17.1469
1320.20 21.3708
1320.24 17.1465
1320.28 10.7758
1320.31 6.91556
1320.35 4.69580
1320.38 3.31797
1320.41 2.47364
1320.48 1.51147
1320.55 1.02714
1320.62 0.745066
1320.69 0.571694
1320.83 0.374391
1321.10 0.210878
1321.37 0.146295
1321.92 0.0948740
1322.47 0.0744470
1323.57 0.0574427
1324.67 0.0504220
1326.86 0.0460827
1329.05 0.0490136
1331.25 0.0611507
1332.35 0.0741912
1333.44 0.0978438
1334.54 0.146862
1335.09 0.194275
1335.64 0.278358
1335.91 0.348070
1336.19 0.452552
1336.46 0.620745
1336.73 0.918542
1336.87 1.16483
1337.01 1.52934
1337.15 2.10689
1337.28 3.10280
1337.42 5.04346
1337.49 6.80446
1337.56 9.62538
1337.63 14.7210
1337.66 18.8275
1337.69 24.8563
1337.73 34.4815
1337.76 49.8140
1337.78 61.1740
1337.80 76.2754
1337.81 96.4683
1337.83 123.235
1337.87 198.692
1337.90 247.253
1337.92 231.398
1337.94 196.384
1337.97 123.230
1338.01 73.2814
1338.04 47.0287
1338.08 32.1780
1338.11 23.2158
1338.15 17.3420
1338.19 13.5068
1338.26 8.83898
1338.33 6.20253
1338.40 4.61474
1338.55 2.84790
1338.69 1.95052
1338.84 1.43606
1339.13 0.905720
1339.42 0.661084
1339.71 0.539837
1340.29 0.475660
1340.87 0.586864
1341.16 0.742202
1341.45 1.03791
1341.74 1.65890
1341.88 2.24691
1342.03 3.24936
1342.17 5.15741
1342.25 6.84089
1342.32 9.45938
1342.39 13.9756
1342.46 22.3383
1342.50 29.4309
1342.53 40.0958
1342.57 56.6213
1342.61 82.3239
1342.65 131.369
1342.70 163.938
1342.75 131.361
1342.79 82.3126
1342.83 56.6093
1342.87 40.4500
1342.90 29.9002
1342.94 22.8167
1343.01 14.2932
1343.08 9.77215
1343.15 7.05306
1343.22 5.34417
1343.36 3.37151
1343.50 2.31753
1343.64 1.69451
1343.92 1.02778
1344.20 0.694951
1344.48 0.506190
1344.77 0.388018
1345.05 0.309554
1345.61 0.214356
1346.17 0.160977
1347.30 0.106327
1348.42 0.0806287
1349.55 0.0670927
1351.80 0.0565816
1354.05 0.0593445
1355.18 0.0665826
1356.31 0.0814335
1357.43 0.113887
1358.00 0.145897
1358.56 0.203325
1359.12 0.322698
1359.40 0.438376
1359.68 0.641691
1359.97 1.05413
1360.11 1.44050
1360.25 2.09117
1360.39 3.33538
1360.46 4.43470
1360.53 6.14734
1360.60 9.11262
1360.67 14.6334
1360.71 19.3452
1360.74 26.4763
1360.78 37.6235
1360.81 55.1591
1360.83 71.0621
1360.86 88.4732
1360.90 110.785
1360.95 88.4698
1360.99 55.1555
1361.02 40.0999
1361.05 29.7376
1361.11 17.8015
1361.16 11.6375
1361.22 8.14163
1361.28 5.99573
1361.33 4.59320
1361.45 2.94105
1361.56 2.04051
1361.68 1.50611
1361.90 0.925510
1362.13 0.633481
1362.36 0.467960
1362.82 0.296767
1363.28 0.215875
1363.73 0.172422
1364.65 0.132699
1365.56 0.120204
1366.47 0.120952
1368.30 0.150750
1369.21 0.182890
1370.13 0.234493
1371.04 0.320662
1371.96 0.476656
1372.41 0.606398
1372.87 0.801354
1373.33 1.11342
1373.78 1.65691
1374.24 2.73734
1374.47 3.73033
1374.70 5.37044
1374.93 8.39139
1375.04 10.9265
1375.15 14.7721
1375.27 20.9613
1375.38 31.6793
1375.44 40.0933
1375.50 51.8605
1375.55 68.5438
1375.61 92.0588
1375.71 147.648
1375.80 184.212
1375.90 147.014
1375.99 92.0420
1376.06 66.1512
1376.12 48.7960
1376.25 28.6374
1376.37 18.4734
1376.50 12.8012
1376.63 9.35825
1376.75 7.12608
1377.01 4.51764
1377.26 3.11614
1377.52 2.27989
1378.02 1.37669
1378.53 0.926911
1379.04 0.672593
1379.55 0.516680
1380.06 0.416474
1381.07 0.311826
1382.09 0.306517
1382.60 0.371103
1382.85 0.447102
1383.10 0.590302
1383.36 0.890368
1383.48 1.17519
1383.61 1.66171
1383.74 2.58964
1383.80 3.41069
1383.87 4.68715
1383.93 6.89780
1383.99 10.9962
1384.02 14.5498
1384.06 19.9485
1384.09 28.4180
1384.12 41.2473
1384.14 53.1436
1384.16 66.0180
1384.20 81.9024
1384.24 65.3723
1384.28 41.2411
1384.31 28.4106
1384.34 20.1501
1384.37 14.8138
1384.40 11.3570
1384.47 7.16821
1384.53 4.91198
1384.59 3.55673
1384.65 2.70878
1384.77 1.73143
1384.89 1.20930
1385.02 0.902701
1385.26 0.571941
1385.51 0.405614
1385.75 0.310458
1386.24 0.209538
1386.73 0.158957
1387.22 0.129491
1388.20 0.0972889
1390.15 0.0710466
1392.11 0.0634243
1394.07 0.0685277
1395.04 0.0786407
1396.02 0.0997542
1397.00 0.147485
1397.49 0.195615
1397.98 0.283277
1398.22 0.356930
1398.47 0.468175
1398.71 0.649341
1398.96 0.970541
1399.08 1.23689
1399.20 1.63081
1399.32 2.25420
1399.45 3.32599
1399.57 5.42680
1399.63 7.29490
1399.69 10.3127
1399.75 15.6290
1399.78 20.0125
1399.81 26.1951
1399.84 35.9440
1399.87 51.0776
1399.91 77.5222
1399.94 121.675
1399.97 196.223
1400.00 244.063
1400.02 228.347
1400.03 193.804
1400.07 121.668
1400.09 82.1352
1400.12 58.0688
1400.14 42.0888
1400.17 31.9635
1400.22 19.8413
1400.27 13.5091
1400.32 9.70114
1400.37 7.33119
1400.47 4.58314
1400.57 3.12328
1400.67 2.27282
1400.77 1.72988
1400.88 1.36250
1401.08 0.910197
1401.28 0.655594
1401.48 0.496980
1401.69 0.392512
1402.09 0.266938
1402.50 0.197606
1403.31 0.128294
1404.12 0.0970306
1404.93 0.0816084
1406.55 0.0730808
1408.17 0.0863695
1408.98 0.105716
1409.79 0.143853
1410.19 0.176801
1410.60 0.227521
1411.00 0.310848
1411.41 0.461260
1411.61 0.586737
1411.81 0.774775
1412.01 1.07842
1412.22 1.60911
1412.42 2.67783
1412.52 3.66277
1412.62 5.31251
1412.72 8.38162
1412.77 11.0390
1412.82 15.0560
1412.87 21.8102
1412.90 26.8253
1412.92 33.6676
1412.95 43.7052
1412.97 57.6719
1413.00 78.1415
1413.02 108.052
1413.06 172.826
1413.10 215.989
1413.12 203.292
1413.14 172.819
1413.18 108.044
1413.22 63.3761
1413.26 39.8041
1413.30 26.8209
1413.34 19.2796
1413.39 14.3719
1413.43 11.1645
1413.51 7.23765
1413.59 5.04135
1413.68 3.72274
1413.84 2.26848
1414.01 1.52498
1414.18 1.09954
1414.34 0.832211
1414.51 0.653409
1414.84 0.436157
1415.17 0.314698
1415.51 0.240016
1415.84 0.190986
1416.50 0.132367
1417.17 0.100261
1418.50 0.0685556
1419.83 0.0552340
1421.16 0.0518521
1421.83 0.0553510
1422.49 0.0697055
1422.83 0.0903532
1423.16 0.145618
1423.33 0.215525
1423.49 0.383087
1423.58 0.571482
1423.66 0.961880
1423.70 1.33690
1423.74 1.95337
1423.78 3.09657
1423.82 5.19936
1423.86 8.31423
1423.90 10.3984
1423.94 8.31437
1423.98 5.19949
1424.00 3.81379
1424.02 2.85215
1424.07 1.73639
1424.12 1.14409
1424.17 0.814288
1424.26 0.474140
1424.36 0.315442
1424.55 0.177710
1424.74 0.121509
1425.12 0.0771398
1425.50 0.0604369
1427.01 0.0442603
1430.05 0.0469962
1431.57 0.0551707
1433.09 0.0744626
1433.85 0.0972833
1434.60 0.154538
1434.98 0.227508
1435.17 0.296553
1435.36 0.415478
1435.55 0.651467
1435.65 0.867583
1435.74 1.22640
1435.84 1.88574
1435.89 2.44999
1435.93 3.29127
1435.98 4.68288
1436.03 7.06016
1436.08 11.5537
1436.10 15.3761
1436.12 20.5499
1436.16 32.8181
1436.20 40.9886
1436.24 32.8196
1436.28 20.5526
1436.31 14.4653
1436.33 10.5609
1436.36 7.94347
1436.39 6.14812
1436.44 3.96099
1436.50 2.75339
1436.55 2.01501
1436.60 1.54916
1436.71 1.00714
1436.82 0.715413
1436.93 0.544212
1437.15 0.360857
1437.36 0.270945
1437.58 0.221933
1438.01 0.176111
1438.88 0.160701
1439.74 0.189136
1440.61 0.267212
1441.04 0.344603
1441.48 0.481284
1441.91 0.759100
1442.13 1.02336
1442.34 1.47926
1442.56 2.38312
1442.67 3.20524
1442.78 4.56468
1442.89 7.07969
1442.94 9.18041
1442.99 12.3641
1443.05 17.4829
1443.07 21.2660
1443.10 26.3362
1443.13 33.2793
1443.16 42.9821
1443.18 56.7293
1443.21 76.1004
1443.23 97.7570
1443.26 122.564
1443.30 152.790
1443.32 143.540
1443.35 121.484
1443.39 76.1031
1443.43 48.5085
1443.47 32.6951
1443.52 23.1647
1443.56 17.1441
1443.64 10.3402
1443.72 6.92864
1443.80 4.95750
1443.89 3.74929
1444.05 2.39380
1444.22 1.69360
1444.38 1.29443
1444.71 0.888343
1445.04 0.714513
1445.37 0.647615
1446.03 0.693945
1446.68 0.986285
1447.01 1.30349
1447.34 1.87357
1447.67 3.02246
1447.84 4.07947
1448.00 5.82026
1448.17 9.02148
1448.25 11.6925
1448.33 15.7247
1448.41 22.2715
1448.50 33.4040
1448.54 42.0673
1448.58 54.0865
1448.62 70.9639
1448.66 94.4997
1448.73 151.308
1448.80 188.358
1448.87 150.442
1448.94 94.4829
1449.00 61.1807
1449.07 41.5629
1449.13 29.5896
1449.19 21.9576
1449.32 13.2825
1449.44 8.87334
1449.56 6.32029
1449.69 4.74059
1449.94 2.95274
1450.19 2.02536
1450.44 1.48480
1450.93 0.914457
1451.43 0.638681
1451.93 0.488596
1452.92 0.355514
1453.92 0.342896
1454.42 0.382825
1454.92 0.479441
1455.41 0.703796
1455.66 0.927695
1455.91 1.32566
1456.16 2.12809
1456.29 2.87668
1456.41 4.12348
1456.54 6.46944
1456.60 8.46669
1456.66 11.5487
1456.72 16.6293
1456.78 25.7411
1456.81 33.1459
1456.85 43.8366
1456.88 59.5857
1456.91 82.7333
1456.93 106.715
1456.95 132.944
1457.00 165.497
1457.02 155.151
1457.05 131.798
1457.09 82.7255
1457.13 56.6015
1457.17 39.9274
1457.20 29.2282
1457.24 22.1431
1457.31 13.8238
1457.38 9.39380
1457.45 6.78670
1457.53 5.13252
1457.67 3.23902
1457.81 2.24115
1457.96 1.65297
1458.24 1.02573
1458.53 0.714446
1458.82 0.538823
1459.40 0.360050
1459.97 0.277965
1460.55 0.237466
1461.70 0.216565
1462.85 0.256028
1463.42 0.310806
1464.00 0.416251
1464.58 0.642453
1464.86 0.863016
1465.15 1.25082
1465.44 2.03466
1465.58 2.76498
1465.73 3.98709
1465.87 6.29939
1465.94 8.30196
1466.01 11.4294
1466.09 16.6732
1466.12 20.7091
1466.16 26.3204
1466.19 34.3627
1466.23 46.2544
1466.27 64.2900
1466.30 90.7341
1466.35 145.268
1466.40 181.686
1466.45 145.260
1466.50 90.7262
1466.56 53.3312
1466.61 33.5661
1466.67 22.6639
1466.72 16.2037
1466.78 12.1169
1466.83 9.38752
1466.94 6.10319
1467.05 4.28799
1467.16 3.18443
1467.38 1.97133
1467.60 1.35635
1467.82 1.00330
1468.26 0.636169
1468.70 0.461064
1469.14 0.366175
1470.02 0.278067
1470.90 0.248837
1471.78 0.248203
1473.54 0.307244
1474.42 0.372910
1475.30 0.478938
1476.18 0.656178
1477.06 0.976177
1477.50 1.24117
1477.94 1.63733
1478.38 2.26671
1478.82 3.35029
1479.26 5.46500
1479.48 7.36442
1479.70 10.4468
1479.92 15.9130
1480.03 20.3629
1480.14 26.8910
1480.25 36.9269
1480.36 53.2140
1480.47 81.1408
1480.57 129.647
1480.69 207.293
1480.80 258.995
1480.91 207.266
1481.03 129.618
1481.16 73.3214
1481.29 44.9059
1481.43 29.7593
1481.56 21.0427
1481.70 15.5685
1481.83 11.9792
1482.10 7.68703
1482.36 5.33906
1482.63 3.92099
1483.16 2.37095
1483.70 1.58738
1484.23 1.13902
1484.77 0.858341
1485.30 0.671093
1486.37 0.444473
1487.44 0.318003
1488.51 0.240245
1489.57 0.189065
1491.71 0.128082
1493.85 0.0947384
1498.12 0.0623359
1502.39 0.0500464
1506.67 0.0507555
1508.80 0.0597038
1509.87 0.0697562
1510.94 0.0885826
1512.01 0.128889
1512.54 0.168597
1513.08 0.239990
1513.34 0.299313
1513.61 0.388706
1513.88 0.532595
1514.14 0.786341
1514.41 1.29842
1514.55 1.77884
1514.68 2.58636
1514.81 4.12706
1514.88 5.47267
1514.95 7.55246
1515.01 11.1204
1515.08 17.7959
1515.11 23.5595
1515.15 31.9666
1515.18 44.8977
1515.21 64.8467
1515.23 82.9617
1515.26 103.648
1515.30 129.481
1515.34 103.645
1515.39 64.8428
1515.43 42.5510
1515.46 29.0349
1515.50 20.7321
1515.54 15.4152
1515.62 9.37874
1515.69 6.26644
1515.77 4.47256
1515.84 3.35062
1516.00 2.08397
1516.15 1.42525
1516.30 1.04043
1516.45 0.796638
1516.60 0.632703
1516.91 0.433162
1517.21 0.321392
1517.82 0.208610
1518.43 0.157399
1519.03 0.132308
1520.25 0.119017
1521.47 0.141637
1522.07 0.173563
1522.68 0.235477
1523.29 0.369403
1523.59 0.500960
1523.90 0.734002
1524.05 0.925529
1524.20 1.20999
1524.35 1.65842
1524.50 2.42489
1524.66 3.89577
1524.73 5.19593
1524.81 7.27020
1524.88 10.8571
1524.96 17.7761
1525.00 23.8330
1525.04 33.2284
1525.07 48.3758
1525.09 59.2514
1525.11 72.2143
1525.13 92.7878
1525.16 115.185
1525.20 143.695
1525.22 134.966
1525.25 115.181
1525.29 72.2093
1525.34 43.1962
1525.39 27.5067
1525.43 18.7097
1525.48 13.4386
1525.53 10.0781
1525.58 7.82102
1525.67 5.11039
1525.77 3.58408
1525.86 2.66114
1526.06 1.63469
1526.25 1.11143
1526.44 0.809552
1526.63 0.619913
1526.82 0.493146
1527.20 0.339399
1527.58 0.253926
1528.35 0.167579
1529.11 0.127943
1529.88 0.107685
1531.41 0.0925413
1532.93 0.0958118
1534.46 0.120926
1535.23 0.155171
1535.61 0.187645
1535.99 0.244417
1536.37 0.359458
1536.57 0.468579
1536.76 0.657866
1536.95 1.03164
1537.04 1.37550
1537.14 1.93895
1537.23 2.98163
1537.28 3.86157
1537.33 5.16519
1537.38 7.30284
1537.43 11.0132
1537.47 18.0162
1537.50 23.8104
1537.52 31.5713
1537.54 40.3322
1537.56 50.3178
1537.60 62.7595
1537.64 50.3174
1537.68 31.5717
1537.72 18.8477
1537.77 12.0007
1537.81 8.17591
1537.85 5.89020
1537.90 4.43583
1537.94 3.46052
1538.02 2.28236
1538.11 1.62905
1538.20 1.23124
1538.37 0.795643
1538.54 0.573837
1538.71 0.448044
1539.05 0.319114
1539.40 0.260695
1539.74 0.232171
1540.43 0.214501
1541.80 0.245989
1543.17 0.343063
1543.86 0.429493
1544.54 0.561630
1545.23 0.775664
1545.91 1.15349
1546.60 1.91372
1546.94 2.62036
1547.29 3.81059
1547.63 6.04389
1547.80 7.97867
1547.97 10.9726
1548.14 16.0002
1548.23 19.8576
1548.32 25.1322
1548.40 32.7361
1548.49 43.9234
1548.57 60.7872
1548.66 85.8451
1548.78 137.237
1548.90 171.452
1549.02 137.217
1549.14 85.8245
1549.27 52.2488
1549.39 33.8096
1549.51 23.2515
1549.64 16.8286
1549.76 12.6614
1549.88 9.86664
1550.13 6.45538
1550.38 4.53773
1550.62 3.36686
1551.11 2.06841
1551.61 1.40405
1552.10 1.02214
1552.59 0.782999
1553.08 0.625319
1554.07 0.442376
1555.05 0.364268
1555.55 0.365531
1556.04 0.434270
1556.29 0.546742
1556.41 0.656991
1556.53 0.848083
1556.65 1.21628
1556.72 1.54411
1556.78 2.05566
1556.84 2.94653
1556.90 4.60879
1556.93 6.06081
1556.96 8.28242
1556.99 11.8001
1557.02 17.1814
1557.06 27.4751
1557.10 34.0950
1557.14 27.1929
1557.18 17.1788
1557.21 11.5156
1557.24 8.10164
1557.27 5.94121
1557.30 4.52517
1557.37 2.86039
1557.43 1.99975
1557.49 1.48892
1557.55 1.17169
1557.68 0.806582
1557.80 0.614795
1557.93 0.501900
1558.18 0.381457
1558.68 0.290309
1559.18 0.261798
1560.18 0.266273
1561.18 0.328007
1562.18 0.489332
1562.68 0.655288
1563.17 0.955268
1563.42 1.20427
1563.67 1.57694
1563.92 2.16961
1564.17 3.18868
1564.42 5.18172
1564.55 6.97308
1564.67 9.88188
1564.80 15.0443
1564.86 19.2902
1564.92 25.4233
1564.99 35.0161
1565.05 50.3474
1565.11 76.5414
1565.17 122.380
1565.24 195.314
1565.30 243.740
1565.37 194.084
1565.43 121.415
1565.47 89.3188
1565.51 67.3613
1565.59 40.9784
1565.66 27.0523
1565.74 19.0399
1565.82 14.0732
1565.90 10.8042
1566.05 6.92641
1566.21 4.80191
1566.37 3.53146
1566.68 2.14446
1566.99 1.44321
1567.30 1.04265
1567.62 0.791127
1567.93 0.623830
1568.55 0.420869
1569.18 0.307156
1569.80 0.236969
1570.43 0.190604
1571.68 0.134793
1572.93 0.103816
1575.43 0.0728142
1577.93 0.0598619
1580.43 0.0572298
1581.68 0.0613116
1582.92 0.0764539
1583.55 0.0978852
1584.17 0.156447
1584.49 0.233638
1584.64 0.306853
1584.80 0.433364
1584.96 0.680503
1585.03 0.903254
1585.11 1.26620
1585.19 1.91384
1585.23 2.44450
1585.27 3.22801
1585.31 4.44317
1585.35 6.43965
1585.38 9.92317
1585.42 16.1885
1585.46 25.9999
1585.50 32.3153
1585.54 25.7325
1585.58 16.1894
1585.61 10.9297
1585.64 7.71513
1585.67 5.60033
1585.70 4.25463
1585.76 2.65367
1585.82 1.80695
1585.88 1.31088
1585.94 0.997148
1586.07 0.639192
1586.19 0.451208
1586.31 0.340719
1586.55 0.223062
1587.04 0.132890
1587.53 0.100274
1588.51 0.0784639
1589.48 0.0739188
1591.43 0.0812526
1593.38 0.104193
1595.33 0.154363
1596.31 0.202204
1597.28 0.285057
1598.26 0.450957
1598.75 0.607312
1599.24 0.878448
1599.72 1.42364
1599.97 1.93592
1600.21 2.81645
1600.46 4.53382
1600.58 6.08495
1600.70 8.62337
1600.76 10.5443
1600.82 13.1900
1600.88 16.9663
1600.94 22.5949
1601.00 31.4392
1601.07 46.2388
1601.13 72.7338
1601.16 93.2180
1601.19 120.880
1601.24 193.187
1601.30 241.370
1601.36 193.193
1601.41 120.905
1601.47 77.6368
1601.52 52.5259
1601.57 37.3259
1601.62 27.6973
1601.72 16.8838
1601.82 11.3726
1601.93 8.22733
1602.03 6.28133
1602.23 4.13072
1602.44 3.06746
1602.64 2.51782
1603.05 2.18677
1603.46 2.60799
1603.66 3.21881
1603.87 4.36383
1604.07 6.67095
1604.17 8.73590
1604.27 12.0549
1604.33 14.5140
1604.38 17.8308
1604.43 22.4358
1604.48 29.0516
1604.53 38.9400
1604.58 54.3831
1604.63 79.5171
1604.68 120.941
1604.74 192.846
1604.80 240.608
1604.86 192.825
1604.92 120.911
1604.97 80.1131
1605.02 55.1106
1605.07 39.6189
1605.12 29.7971
1605.22 18.3082
1605.32 12.4032
1605.42 8.94984
1605.52 6.80824
1605.71 4.38800
1605.91 3.13708
1606.11 2.43156
1606.51 1.79242
1606.91 1.74490
1607.11 1.95570
1607.30 2.44057
1607.50 3.50627
1607.60 4.49571
1607.70 6.12151
1607.80 9.05977
1607.90 14.9214
1607.95 20.3320
1608.00 28.8985
1608.05 43.8002
1608.10 69.2344
1608.15 110.668
1608.20 137.463
1608.25 109.796
1608.30 69.1897
1608.35 44.5273
1608.40 30.2031
1608.44 21.5089
1608.49 15.9886
1608.58 9.76900
1608.67 6.58180
1608.76 4.74916
1608.86 3.60303
1609.04 2.30526
1609.23 1.62203
1609.41 1.22068
1609.78 0.785445
1610.15 0.563028
1610.51 0.432639
1611.25 0.289883
1611.99 0.215251
1612.72 0.170381
1614.20 0.120479
1615.67 0.0947319
1617.14 0.0803614
1620.09 0.0693266
1623.04 0.0754935
1624.51 0.0874592
1625.99 0.111503
1627.46 0.163703
1628.20 0.214982
1628.93 0.306492
1629.67 0.496105
1630.04 0.678541
1630.41 0.999268
1630.77 1.64721
1630.96 2.25019
1631.14 3.27028
1631.33 5.19850
1631.42 6.87656
1631.51 9.51089
1631.60 13.9620
1631.69 22.2483
1631.74 29.2416
1631.79 39.7078
1631.83 55.8293
1631.88 80.7353
1631.94 128.880
1632.00 160.869
1632.06 128.874
1632.12 80.7294
1632.19 49.0260
1632.25 31.5663
1632.31 21.6374
1632.37 15.6284
1632.44 11.7701
1632.50 9.16523
1632.63 5.99683
1632.75 4.22763
1632.88 3.14493
1633.13 1.95142
1633.38 1.34101
1633.63 0.991852
1634.14 0.630321
1634.64 0.463054
1635.14 0.379660
1636.15 0.333354
1637.15 0.403484
1637.66 0.503698
1638.16 0.696843
1638.66 1.10610
1638.92 1.49982
1639.17 2.17893
1639.42 3.51035
1639.54 4.70927
1639.67 6.63939
1639.80 10.0912
1639.86 12.9076
1639.92 17.0481
1639.98 23.4314
1640.05 33.8294
1640.11 51.7456
1640.14 65.1353
1640.17 82.7569
1640.24 132.181
1640.30 165.055
1640.36 132.173
1640.43 82.7474
1640.47 59.0477
1640.52 43.0985
1640.56 32.3814
1640.60 25.0204
1640.69 16.0439
1640.78 11.1268
1640.87 8.12024
1640.95 6.19947
1641.13 3.94612
1641.31 2.73376
1641.48 2.01679
1641.83 1.24349
1642.18 0.858158
1642.53 0.641218
1643.23 0.421480
1643.93 0.323655
1644.63 0.279411
1646.03 0.274255
1646.73 0.306249
1647.44 0.369214
1648.14 0.483195
1648.84 0.696780
1649.19 0.876797
1649.54 1.14739
1649.89 1.58034
1650.24 2.33368
1650.59 3.82283
1650.76 5.17236
1650.94 7.38753
1651.11 11.3829
1651.20 14.7150
1651.29 19.6308
1651.38 27.4578
1651.46 40.4282
1651.51 50.4035
1651.55 63.9925
1651.60 82.6672
1651.64 107.444
1651.72 171.611
1651.80 214.270
1651.88 171.597
1651.96 107.428
1652.06 60.5031
1652.16 36.9433
1652.25 24.4359
1652.35 17.2740
1652.45 12.7693
1652.54 9.82722
1652.74 6.30630
1652.93 4.38200
1653.12 3.22044
1653.51 1.95125
1653.89 1.30942
1654.28 0.942421
1654.67 0.712575
1655.05 0.559160
1655.83 0.373302
1656.60 0.269589
1657.37 0.205879
1658.14 0.164334
1659.69 0.116953
1661.23 0.0993766
1662.01 0.104720
1662.78 0.138464
1663.16 0.190439
1663.55 0.333407
1663.74 0.516546
1663.84 0.686377
1663.94 0.966127
1664.03 1.48663
1664.08 1.92245
1664.13 2.58479
1664.18 3.68227
1664.23 5.56323
1664.27 9.13342
1664.30 12.1068
1664.32 16.3219
1664.36 26.2013
1664.40 32.5625
1664.44 25.9382
1664.48 16.3216
1664.51 11.8160
1664.53 8.73214
1664.58 5.21178
1664.63 3.40647
1664.68 2.38735
1664.74 1.75406
1664.79 1.35050
1664.89 0.875420
1664.99 0.616245
1665.09 0.462485
1665.30 0.294947
1665.71 0.161514
1666.12 0.110214
1666.93 0.0703770
1667.75 0.0553230
1669.39 0.0513205
1670.21 0.0849091
1670.41 0.119052
1670.62 0.204507
1670.72 0.305990
1670.82 0.526186
1670.87 0.747014
1670.92 1.14409
1670.97 1.93564
1671.00 2.64362
1671.02 3.64676
1671.06 5.82406
1671.10 7.27868
1671.14 5.82394
1671.18 3.64643
1671.22 2.22660
1671.25 1.44428
1671.33 0.728995
1671.41 0.438273
1671.49 0.296779
1671.64 0.167446
1671.80 0.112634
1672.11 0.0678921
1672.42 0.0502168
1673.66 0.0300815
1676.14 0.0217187
1681.10 0.0165155
1683.58 0.0156781
1686.06 0.0166424
1688.54 0.0270650
1689.16 0.0382316
1689.78 0.0689710
1690.09 0.109600
1690.40 0.215309
1690.56 0.346370
1690.71 0.657475
1690.79 1.00504
1690.87 1.70236
1690.91 2.35638
1690.95 3.43689
1690.99 5.33522
1691.02 8.65709
1691.06 13.8304
1691.10 17.2734
1691.14 13.8307
1691.18 8.65742
1691.21 5.33551
1691.25 3.50996
1691.29 2.42113
1691.33 1.77043
1691.40 1.04904
1691.48 0.690907
1691.63 0.365215
1691.78 0.227799
1692.07 0.115709
1692.37 0.0723346
1692.97 0.0391935
1693.57 0.0269646
1695.96 0.0144867
1700.75 0.0113101
1705.54 0.0129816
1707.93 0.0209645
1709.13 0.0491205
1709.43 0.0758124
1709.73 0.144671
1709.88 0.229909
1710.03 0.429453
1710.10 0.650165
1710.18 1.09578
1710.21 1.51234
1710.25 2.17425
1710.29 3.30970
1710.32 5.30851
1710.36 8.49308
1710.40 10.6190
1710.44 8.49332
1710.48 5.30887
1710.51 3.47609
1710.54 2.36952
1710.61 1.25902
1710.67 0.768586
1710.74 0.516247
1710.87 0.280250
1711.00 0.177916
1711.27 0.0938167
1711.53 0.0611400
1712.59 0.0282256
1714.70 0.0270516
1715.76 0.0369667
1716.81 0.0665378
1717.34 0.106672
1717.87 0.214803
1718.13 0.355289
1718.26 0.487519
1718.40 0.713477
1718.53 1.14716
1718.59 1.53065
1718.66 2.14281
1718.73 3.20232
1718.79 5.24919
1718.82 7.04408
1718.86 9.83344
1718.89 14.3422
1718.92 21.4266
1718.96 34.2751
1719.00 42.8412
1719.04 34.2758
1719.08 21.4277
1719.12 13.3491
1719.15 8.84920
1719.19 6.19146
1719.23 4.53742
1719.30 2.70997
1719.38 1.79126
1719.45 1.26459
1719.52 0.943980
1719.67 0.585323
1719.82 0.399562
1719.97 0.292672
1720.27 0.180373
1720.86 0.0970430
1721.45 0.0713505
1722.04 0.0692312
1722.64 0.0959857
1722.93 0.139102
1723.23 0.254885
1723.38 0.400203
1723.53 0.741118
1723.60 1.11433
1723.68 1.86093
1723.71 2.54043
1723.75 3.63797
1723.79 5.50789
1723.82 8.76946
1723.86 14.0720
1723.90 17.4795
1723.94 13.9273
1723.98 8.76932
1724.01 6.14417
1724.03 4.46864
1724.06 3.35030
1724.09 2.58589
1724.14 1.64578
1724.20 1.14042
1724.30 0.636753
1724.41 0.409845
1724.63 0.215240
1724.85 0.136972
1725.28 0.0758328
1725.71 0.0531707
1726.58 0.0378205
1727.45 0.0359607
1728.32 0.0430342
1729.19 0.0693046
1729.62 0.105895
1730.06 0.204010
1730.27 0.329763
1730.38 0.447243
1730.49 0.643174
1730.60 1.01419
1730.65 1.33160
1730.71 1.82441
1730.76 2.66404
1730.82 4.17271
1730.84 5.41834
1730.87 7.24383
1730.90 9.98318
1730.92 14.0933
1730.96 22.6671
1731.00 28.1930
1731.04 22.4332
1731.08 14.0942
1731.10 10.1089
1731.13 7.49646
1731.18 4.45440
1731.23 2.87724
1731.28 2.01087
1731.33 1.47243
1731.38 1.12955
1731.48 0.726060
1731.58 0.506144
1731.68 0.374920
1731.88 0.233726
1732.29 0.123315
1732.69 0.0830517
1733.49 0.0569854
1734.30 0.0557971
1735.11 0.0722432
1735.91 0.129124
1736.31 0.207767
1736.51 0.283694
1736.72 0.416765
1736.92 0.683834
1737.02 0.930426
1737.12 1.33731
1737.22 2.09653
1737.27 2.73504
1737.32 3.70976
1737.37 5.33373
1737.42 8.14600
1737.47 13.5643
1737.50 18.1440
1737.52 24.7175
1737.56 39.6239
1737.60 49.5979
1737.64 39.6246
1737.68 24.7184
1737.72 14.6820
1737.77 9.30806
1737.81 6.31408
1737.85 4.56017
1737.89 3.41297
1737.94 2.65965
1738.02 1.73382
1738.11 1.21858
1738.19 0.903841
1738.36 0.556242
1738.53 0.379177
1738.70 0.277141
1739.04 0.170522
1739.72 0.0912900
1740.40 0.0655611
1741.08 0.0598450
1741.76 0.0743855
1742.10 0.100858
1742.44 0.174155
1742.61 0.267272
1742.78 0.492589
1742.87 0.747124
1742.95 1.27755
1743.00 1.78996
1743.04 2.63810
1743.08 4.22384
1743.12 7.17304
1743.16 11.4377
1743.20 14.2718
1743.24 11.4378
1743.28 7.17320
1743.30 5.00792
1743.33 3.59207
1743.39 2.05921
1743.44 1.31513
1743.50 0.909631
1743.61 0.511942
1743.72 0.332289
1743.94 0.180163
1744.16 0.119552
1744.60 0.0732381
1745.04 0.0573693
1745.92 0.0508999
1746.80 0.0597837
1747.68 0.0876791
1748.12 0.117012
1748.56 0.170662
1749.00 0.283085
1749.22 0.391759
1749.44 0.582625
1749.66 0.964622
1749.77 1.31782
1749.88 1.90931
1749.99 3.00933
1750.04 3.95004
1750.10 5.40010
1750.15 7.78694
1750.21 12.0585
1750.26 20.5135
1750.29 28.0092
1750.32 38.5956
1750.34 49.5390
1750.36 62.0351
1750.40 77.1630
1750.44 61.4386
1750.48 38.5935
1750.53 21.8775
1750.58 13.4203
1750.63 8.90416
1750.68 6.32835
1750.73 4.68331
1750.78 3.61635
1750.87 2.32713
1750.97 1.61469
1751.07 1.18911
1751.26 0.722863
1751.46 0.486116
1751.65 0.351035
1752.04 0.209910
1752.43 0.141465
1752.82 0.103314
1753.59 0.0646631
1754.37 0.0466257
1755.15 0.0370757
1756.70 0.0289568
1758.26 0.0288326
1759.81 0.0392758
1760.59 0.0561497
1761.37 0.103989
1761.76 0.168260
1761.95 0.229955
1762.14 0.337745
1762.34 0.553364
1762.44 0.750514
1762.53 1.07793
1762.63 1.67908
1762.68 2.19271
1762.73 2.95765
1762.78 4.21962
1762.82 6.36985
1762.87 10.5364
1762.90 13.9367
1762.92 18.7345
1762.96 29.9457
1763.00 37.4110
1763.04 29.9461
1763.08 18.7351
1763.12 11.8098
1763.16 7.81585
1763.19 5.46027
1763.23 4.02749
1763.31 2.41178
1763.38 1.59660
1763.46 1.13302
1763.53 0.845671
1763.68 0.523932
1763.83 0.357030
1763.98 0.260745
1764.28 0.158968
1764.88 0.0810809
1765.48 0.0524217
1766.69 0.0314711
1767.89 0.0243171
1770.29 0.0204889
1772.70 0.0219102
1775.10 0.0282316
1776.30 0.0350425
1777.50 0.0475879
1778.71 0.0742555
1779.31 0.100562
1779.91 0.147992
1780.51 0.247256
1780.81 0.343975
1781.11 0.514842
1781.26 0.655744
1781.41 0.863660
1781.56 1.19115
1781.71 1.75048
1781.86 2.83317
1781.94 3.78614
1782.01 5.30731
1782.09 7.94034
1782.16 13.0293
1782.20 17.5687
1782.24 24.4448
1782.28 35.8980
1782.31 54.1865
1782.33 69.3858
1782.36 86.7733
1782.40 108.532
1782.44 86.7707
1782.49 54.1835
1782.52 39.5709
1782.54 29.4504
1782.60 17.5669
1782.66 11.4481
1782.71 8.03395
1782.77 5.89577
1782.82 4.52212
1782.93 2.88460
1783.05 1.99098
1783.16 1.46041
1783.38 0.883290
1783.60 0.592374
1783.82 0.427009
1784.27 0.254786
1784.71 0.171967
1785.16 0.126008
1786.05 0.0797680
1786.94 0.0584666
1787.83 0.0473675
1789.61 0.0381140
1791.39 0.0374014
1793.16 0.0450124
1794.05 0.0564305
1794.94 0.0869826
1795.39 0.126993
1795.83 0.232461
1796.06 0.367502
1796.17 0.492425
1796.28 0.702723
1796.39 1.09732
1796.45 1.44187
1796.50 1.96886
1796.56 2.86608
1796.61 4.47845
1796.64 5.83921
1796.67 7.84997
1796.70 10.8966
1796.72 15.3135
1796.76 24.5037
1796.80 30.6410
1796.84 24.5044
1796.88 15.3146
1796.91 10.1325
1796.94 7.03825
1796.98 5.09709
1797.01 3.83317
1797.07 2.35779
1797.14 1.59974
1797.20 1.15217
1797.27 0.875148
1797.39 0.559650
1797.65 0.296179
1797.91 0.193768
1798.42 0.116594
1798.94 0.0904224
1799.97 0.0779174
1801.00 0.0852562
1802.03 0.109711
1802.54 0.133825
1803.06 0.175660
1803.57 0.259768
1803.83 0.339513
1804.09 0.477757
1804.34 0.755074
1804.47 1.01300
1804.60 1.44474
1804.73 2.26566
1804.79 2.97383
1804.86 4.08229
1804.92 5.98663
1804.99 9.47878
1805.02 12.4163
1805.05 16.7993
1805.08 23.5270
1805.11 33.8852
1805.14 43.6086
1805.16 54.2121
1805.20 67.7851
1805.24 54.2123
1805.29 33.8869
1805.32 24.0566
1805.35 17.4934
1805.38 13.1126
1805.41 10.2027
1805.46 6.57721
1805.52 4.57118
1805.58 3.36052
1805.64 2.57898
1805.76 1.67004
1805.88 1.18156
1806.00 0.894991
1806.23 0.589004
1806.47 0.440143
1806.71 0.360144
1807.18 0.288941
1807.65 0.271465
1808.12 0.281762
1809.07 0.367432
1809.54 0.452379
1810.02 0.585564
1810.49 0.803936
1810.96 1.19137
1811.20 1.50946
1811.43 1.97841
1811.67 2.71783
1811.91 3.96916
1812.14 6.36154
1812.26 8.45049
1812.38 11.7516
1812.50 17.3831
1812.56 21.7925
1812.62 28.0234
1812.67 37.1422
1812.73 50.9966
1812.79 72.7527
1812.85 107.125
1812.93 171.496
1813.00 213.514
1813.08 170.574
1813.15 107.119
1813.21 72.7525
1813.27 51.0013
1813.33 37.1516
1813.39 28.0371
1813.50 17.4050
1813.62 11.8170
1813.74 8.51005
1813.86 6.43614
1814.09 4.06156
1814.33 2.82348
1814.56 2.10816
1815.03 1.39673
1815.50 1.17048
1815.74 1.20474
1815.97 1.38697
1816.21 1.86782
1816.32 2.35287
1816.44 3.18260
1816.56 4.76674
1816.62 6.13473
1816.68 8.21011
1816.74 11.6861
1816.79 17.9288
1816.82 23.1064
1816.85 30.3283
1816.88 40.8865
1816.91 56.2747
1816.93 72.5528
1816.96 90.3315
1817.00 112.400
1817.02 105.356
1817.05 89.5080
1817.09 56.2453
1817.12 40.8487
1817.15 30.5830
1817.20 18.3052
1817.26 11.9998
1817.32 8.48512
1817.37 6.28545
1817.43 4.87131
1817.54 3.18309
1817.66 2.26434
1817.77 1.70955
1817.99 1.09967
1818.22 0.786908
1818.45 0.603473
1818.90 0.404504
1819.35 0.302106
1819.80 0.241441
1820.71 0.176527
1821.61 0.150198
1822.51 0.159341
1822.97 0.194439
1823.42 0.303730
1823.64 0.449921
1823.76 0.587394
1823.87 0.820415
1823.98 1.26024
1824.04 1.64583
1824.10 2.23784
1824.15 3.24996
1824.21 5.08115
1824.24 6.66908
1824.27 8.94809
1824.29 12.4031
1824.32 17.6498
1824.36 28.2824
1824.40 35.4076
1824.44 28.2822
1824.48 17.6492
1824.50 13.0265
1824.53 9.78936
1824.57 5.93428
1824.62 3.91929
1824.67 2.76774
1824.72 2.05723
1824.77 1.59111
1824.86 1.03991
1824.96 0.740182
1825.05 0.559764
1825.25 0.362959
1825.63 0.206572
1826.01 0.146932
1826.78 0.102965
1827.55 0.0912626
1828.32 0.0970752
1829.09 0.134460
1829.47 0.190006
1829.85 0.340502
1830.05 0.532273
1830.14 0.708743
1830.24 1.00242
1830.33 1.54300
1830.38 2.00022
1830.43 2.69701
1830.48 3.82554
1830.53 5.79744
1830.57 9.55928
1830.60 12.7069
1830.62 17.1840
1830.66 27.4031
1830.70 34.1901
1830.74 27.4034
1830.78 17.1843
1830.81 12.2488
1830.83 8.93423
1830.86 6.71146
1830.89 5.23457
1830.94 3.38210
1830.99 2.35255
1831.05 1.71996
1831.10 1.31959
1831.20 0.851853
1831.31 0.598716
1831.42 0.449311
1831.63 0.287030
1832.06 0.159909
1832.48 0.112272
1833.33 0.0771836
1834.18 0.0657459
1835.89 0.0626955
1837.59 0.0729962
1839.29 0.101424
1840.14 0.130317
1840.99 0.182253
1841.85 0.290114
1842.27 0.394439
1842.70 0.578645
1842.91 0.730021
1843.12 0.955596
1843.34 1.31357
1843.55 1.92876
1843.76 3.13722
1843.87 4.23611
1843.97 6.01616
1844.08 9.24252
1844.13 11.8789
1844.19 15.7875
1844.24 21.8831
1844.29 31.9763
1844.32 39.7307
1844.35 49.7799
1844.37 63.9341
1844.40 82.2472
1844.45 131.382
1844.50 164.068
1844.53 154.102
1844.55 131.380
1844.60 82.2464
1844.64 58.1761
1844.67 42.1545
1844.71 31.4936
1844.75 24.2290
1844.82 15.4442
1844.89 10.6308
1844.96 7.74540
1845.03 5.89153
1845.18 3.74532
1845.32 2.60401
1845.47 1.92924
1845.75 1.21309
1846.04 0.867112
1846.33 0.685513
1846.90 0.552031
1847.48 0.618870
1847.77 0.751286
1848.05 1.01619
1848.34 1.58330
1848.49 2.12318
1848.63 3.03600
1848.77 4.77913
1848.85 6.29953
1848.92 8.68895
1848.99 12.7291
1849.06 20.2529
1849.10 26.6012
1849.13 36.0963
1849.17 50.7012
1849.20 72.4412
1849.23 92.6139
1849.25 115.625
1849.30 144.323
1849.32 135.887
1849.35 115.618
1849.40 72.4308
1849.44 48.2567
1849.48 33.6145
1849.51 24.3788
1849.55 18.3419
1849.63 11.3442
1849.71 7.66302
1849.79 5.51307
1849.87 4.15582
1850.02 2.60907
1850.18 1.79285
1850.33 1.31611
1850.65 0.805813
1850.96 0.551774
1851.27 0.407629
1851.90 0.257332
1852.52 0.184121
1853.14 0.143031
1854.39 0.101129
1855.64 0.0821642
1856.89 0.0733296
1859.39 0.0713499
1861.89 0.0864770
1863.14 0.104121
1864.39 0.136087
1865.63 0.201549
1866.26 0.264200
1866.88 0.374339
1867.51 0.599600
1867.82 0.814216
1868.13 1.18837
1868.45 1.93607
1868.60 2.62363
1868.76 3.77256
1868.91 5.90426
1868.99 7.72368
1869.07 10.5234
1869.15 15.1212
1869.23 23.3237
1869.26 29.9552
1869.30 39.4839
1869.34 53.4409
1869.38 73.8276
1869.44 118.603
1869.50 147.847
1869.56 117.802
1869.62 73.8254
1869.68 43.5533
1869.75 27.6675
1869.81 18.8066
1869.88 13.5134
1869.94 10.1455
1870.00 7.88666
1870.13 5.15760
1870.26 3.64413
1870.39 2.72273
1870.64 1.71100
1870.90 1.20211
1871.16 0.915527
1871.67 0.638374
1872.18 0.552679
1872.69 0.627327
1872.95 0.793367
1873.08 0.960057
1873.21 1.24951
1873.33 1.80534
1873.40 2.29300
1873.46 3.06275
1873.53 4.37159
1873.59 6.82969
1873.62 8.92270
1873.65 12.0828
1873.69 17.0073
1873.72 24.7266
1873.76 39.6929
1873.80 49.4068
1873.84 39.3124
1873.88 24.7273
1873.91 18.0010
1873.94 13.3901
1873.99 8.10888
1874.04 5.39282
1874.10 3.85672
1874.15 2.90178
1874.20 2.29262
1874.31 1.57632
1874.42 1.18738
1874.52 0.958540
1874.73 0.714946
1875.16 0.541409
1875.58 0.503948
1876.43 0.571347
1877.28 0.786113
1877.71 0.978077
1878.13 1.27101
1878.56 1.74136
1878.98 2.55815
1879.41 4.15486
1879.62 5.59577
1879.83 7.92595
1879.94 9.69257
1880.05 12.0854
1880.15 15.4622
1880.26 20.4190
1880.37 28.1367
1880.47 40.5946
1880.58 62.0213
1880.68 99.8498
1880.79 159.605
1880.90 199.380
1881.01 159.586
1881.12 99.8297
1881.19 71.2773
1881.26 52.2558
1881.34 39.2516
1881.41 30.4163
1881.56 19.5210
1881.70 13.4824
1881.85 9.83368
1882.00 7.47573
1882.29 4.73516
1882.59 3.26014
1882.88 2.38143
1883.47 1.43388
1884.05 0.959872
1884.64 0.690313
1885.23 0.522324
1885.82 0.410664
1886.99 0.276231
1888.17 0.201922
1889.34 0.157137
1890.51 0.128863
1892.86 0.100628
1895.21 0.103053
1896.39 0.126387
1896.98 0.152887
1897.56 0.202793
1898.15 0.309563
1898.44 0.413993
1898.74 0.598469
1899.03 0.974273
1899.18 1.32760
1899.32 1.92507
1899.47 3.07394
1899.55 4.09498
1899.62 5.69707
1899.69 8.49593
1899.77 13.7874
1899.80 18.4499
1899.84 25.4177
1899.88 36.8358
1899.89 44.7498
1899.91 54.6802
1899.93 70.4965
1899.96 87.7298
1900.00 109.066
1900.02 102.268
1900.05 86.9468
1900.09 54.6800
1900.13 35.6904
1900.17 24.4839
1900.20 17.5597
1900.24 13.1043
1900.32 8.02070
1900.39 5.38718
1900.47 3.86506
1900.55 2.91180
1900.70 1.83598
1900.85 1.27948
1901.00 0.959109
1901.31 0.639479
1901.61 0.531199
1901.92 0.601708
1902.07 0.775535
1902.22 1.23794
1902.30 1.76462
1902.37 2.83866
1902.41 3.82897
1902.45 5.44616
1902.49 8.23979
1902.52 13.1965
1902.56 21.1182
1902.60 26.2205
1902.64 20.8943
1902.68 13.1817
1902.71 9.26439
1902.73 6.69224
1902.76 5.00039
1902.79 3.85769
1902.85 2.48764
1902.90 1.74226
1903.01 1.01028
1903.12 0.679365
1903.35 0.390598
1903.57 0.270968
1904.02 0.170679
1904.46 0.128616
1905.36 0.0926754
1906.25 0.0791297
1907.14 0.0770988
1908.04 0.0917350
1908.48 0.117043
1908.93 0.188264
1909.15 0.281637
1909.38 0.515655
1909.49 0.794415
1909.60 1.40765
1909.66 2.04034
1909.71 3.20907
1909.74 4.18735
1909.77 5.63952
1909.80 7.85264
1909.82 11.0830
1909.86 17.8425
1909.90 22.2142
1909.94 17.6575
1909.98 11.0831
1910.02 6.39777
1910.06 4.02342
1910.11 2.72185
1910.15 1.95335
1910.24 1.13858
1910.32 0.752685
1910.50 0.408275
1910.67 0.265411
1911.02 0.151254
1911.36 0.107696
1912.05 0.0747372
1912.74 0.0629507
1914.12 0.0555331
1915.51 0.0550718
1918.27 0.0628795
1921.04 0.0822503
1923.80 0.124798
1925.18 0.166052
1926.56 0.238720
1927.95 0.386547
1928.64 0.527284
1929.33 0.773052
1930.02 1.26583
1930.37 1.72633
1930.71 2.50596
1931.06 3.99700
1931.23 5.30979
1931.40 7.38247
1931.57 10.9680
1931.66 13.8222
1931.75 17.8465
1931.83 23.8796
1931.92 33.0870
1932.01 47.8111
1932.09 71.5873
1932.20 114.422
1932.30 142.961
1932.40 114.420
1932.51 71.5945
1932.60 47.6127
1932.68 32.8484
1932.77 23.6628
1932.86 17.7801
1933.03 10.9764
1933.20 7.43362
1933.38 5.37336
1933.55 4.09355
1933.89 2.65917
1934.24 1.93414
1934.59 1.54248
1935.28 1.24756
1935.97 1.39050
1936.32 1.67807
1936.67 2.24948
1937.01 3.45114
1937.19 4.56779
1937.36 6.42644
1937.53 9.82778
1937.62 12.7005
1937.70 16.9874
1937.79 23.9199
1937.88 35.6562
1937.92 44.9953
1937.96 57.6566
1938.01 75.3631
1938.05 99.9512
1938.13 159.653
1938.20 199.399
1938.28 159.636
1938.35 99.9272
1938.41 66.7729
1938.47 46.2313
1938.54 33.3826
1938.60 25.0408
1938.72 15.4397
1938.85 10.4546
1938.97 7.52796
1939.09 5.68828
1939.34 3.60859
1939.59 2.52020
1939.84 1.89079
1940.33 1.24853
1940.83 1.00928
1941.07 1.00065
1941.32 1.09416
1941.57 1.38749
1941.69 1.69450
1941.82 2.22809
1941.94 3.25822
1942.00 4.15453
1942.06 5.55233
1942.13 7.88306
1942.19 12.1231
1942.22 15.6138
1942.25 20.7118
1942.28 28.3237
1942.31 39.2314
1942.36 62.6766
1942.40 78.3563
1942.45 62.6630
1942.49 39.2059
1942.53 24.9688
1942.57 16.8485
1942.62 11.8804
1942.66 8.84047
1942.74 5.40565
1942.82 3.66505
1942.91 2.67079
1942.99 2.05144
1943.15 1.35197
1943.32 0.985267
1943.49 0.767791
1943.82 0.530676
1944.15 0.407374
1944.48 0.333524
1945.14 0.250848
1946.47 0.181483
1947.80 0.160908
1949.12 0.173973
1949.79 0.200060
1950.45 0.253906
1951.12 0.373449
1951.45 0.491833
1951.78 0.702248
1952.11 1.13295
1952.28 1.53952
1952.44 2.23035
1952.61 3.56538
1952.69 4.74875
1952.77 6.64243
1952.86 9.93192
1952.94 16.3235
1952.98 22.0465
1953.02 30.7810
1953.06 44.9341
1953.08 55.4324
1953.10 68.1467
1953.13 87.1707
1953.15 108.895
1953.20 136.022
1953.22 128.045
1953.25 108.892
1953.30 68.1436
1953.35 38.9215
1953.41 24.2010
1953.46 16.1068
1953.52 11.4688
1953.57 8.51146
1953.63 6.58707
1953.74 4.26445
1953.85 2.99075
1953.96 2.22053
1954.18 1.37842
1954.41 0.954216
1954.63 0.712279
1955.07 0.464515
1955.52 0.350768
1955.96 0.295322
1956.85 0.270231
1957.73 0.334492
1958.18 0.420292
1958.62 0.584040
1959.07 0.932169
1959.29 1.26775
1959.51 1.84858
1959.73 2.99535
1959.84 4.03538
1959.95 5.74011
1960.06 8.80805
1960.12 11.3708
1960.17 15.1177
1960.23 21.1045
1960.29 30.9122
1960.31 38.4672
1960.34 48.3013
1960.37 62.1841
1960.40 80.2462
1960.42 103.461
1960.45 128.998
1960.50 160.745
1960.53 150.740
1960.55 128.011
1960.61 80.2398
1960.64 56.7134
1960.68 41.0746
1960.72 30.6761
1960.75 23.7523
1960.83 15.1123
1960.90 10.4331
1960.97 7.58300
1961.05 5.77399
1961.19 3.66778
1961.34 2.53387
1961.49 1.86406
1961.78 1.13908
1962.07 0.777247
1962.37 0.572765
1962.95 0.362589
1963.54 0.264267
1964.12 0.213483
1965.30 0.177415
1966.47 0.199148
1967.06 0.239798
1967.64 0.321927
1968.23 0.501684
1968.52 0.677468
1968.82 0.987470
1969.11 1.60889
1969.26 2.18590
1969.40 3.14490
1969.55 4.93889
1969.62 6.46113
1969.70 8.80053
1969.77 12.7036
1969.84 19.5849
1969.88 25.2305
1969.92 33.1110
1969.95 44.9602
1969.99 61.7645
1970.04 98.9697
1970.10 123.847
1970.16 98.9652
1970.21 61.7595
1970.26 39.5895
1970.31 26.5423
1970.37 18.7167
1970.42 13.7931
1970.52 8.29752
1970.62 5.52894
1970.72 3.92946
1970.82 2.94433
1971.03 1.83090
1971.23 1.25248
1971.43 0.917699
1971.84 0.564261
1972.25 0.392364
1972.65 0.298114
1973.46 0.210579
1974.28 0.192029
1974.68 0.206592
1975.09 0.248462
1975.50 0.350681
1975.70 0.453579
1975.90 0.636392
1976.11 1.00250
1976.21 1.34107
1976.31 1.89733
1976.41 2.92662
1976.46 3.79471
1976.51 5.08137
1976.56 7.18566
1976.61 10.8290
1976.66 17.6820
1976.71 30.9218
1976.74 39.8005
1976.76 49.4829
1976.80 61.8764
1976.84 49.4807
1976.89 30.9184
1976.92 22.1859
1976.94 16.4411
1977.00 9.68096
1977.06 6.26776
1977.11 4.38669
1977.17 3.21895
1977.23 2.47297
1977.34 1.58881
1977.45 1.11192
1977.57 0.826388
1977.79 0.516414
1978.02 0.360100
1978.24 0.270951
1978.70 0.177518
1979.15 0.131788
1979.60 0.106081
1980.51 0.0800743
1981.41 0.0697016
1982.31 0.0708981
1983.22 0.109774
1983.45 0.149544
1983.67 0.250515
1983.78 0.370576
1983.90 0.637990
1983.95 0.915481
1984.01 1.41878
1984.07 2.48531
1984.10 3.44080
1984.12 4.89335
1984.16 7.82272
1984.20 9.70176
1984.24 7.74282
1984.28 4.89321
1984.31 3.44055
1984.33 2.51253
1984.39 1.45602
1984.44 0.940839
1984.50 0.659411
1984.61 0.382872
1984.72 0.258499
1984.94 0.151664
1985.16 0.108970
1986.03 0.0629968
1987.79 0.0520838
1989.55 0.0545091
1991.30 0.0626970
1993.06 0.0784408
1994.81 0.109936
1995.69 0.140421
1996.57 0.201775
1997.01 0.267851
1997.45 0.421708
1997.67 0.606349
1997.78 0.773957
1997.88 1.04972
1997.99 1.56639
1998.05 2.01084
1998.10 2.68605
1998.16 3.82754
1998.21 5.91073
1998.24 7.67189
1998.27 10.1644
1998.30 13.8829
1998.32 19.4246
1998.36 30.9196
1998.40 38.5713
1998.44 30.9263
1998.48 19.4377
1998.52 12.2029
1998.55 8.08881
1998.59 5.69022
1998.63 4.24408
1998.71 2.61424
1998.78 1.81549
1998.86 1.36159
1998.93 1.08861
1999.08 0.791557
1999.23 0.647898
1999.38 0.575221
1999.68 0.526155
2000.29 0.596423
2000.89 0.824733
2001.49 1.32688
2001.79 1.80158
2002.09 2.60683
2002.40 4.13559
2002.55 5.46683
2002.70 7.53963
2002.85 11.0583
2002.92 13.7642
2003.00 17.5415
2003.07 23.0719
2003.15 31.2220
2003.22 43.7048
2003.30 62.8659
2003.40 100.392
2003.50 125.344
2003.60 99.9885
2003.70 62.5514
2003.79 40.3805
2003.88 27.3322
2003.98 19.3434
2004.07 14.3397
2004.25 8.68107
2004.43 5.79426
2004.61 4.14286
2004.79 3.11670
2005.15 1.96959
2005.51 1.38530
2005.88 1.05721
2006.60 0.759033
2007.32 0.730604
2007.68 0.822590
2008.05 1.04296
2008.41 1.54767
2008.59 2.04096
2008.77 2.89551
2008.95 4.54747
2009.04 6.02150
2009.13 8.34881
2009.22 12.4202
2009.31 20.1792
2009.36 26.9442
2009.40 37.4001
2009.45 54.1935
2009.49 81.4593
2009.55 130.422
2009.60 163.138
2009.65 130.412
2009.71 81.4439
2009.75 56.1054
2009.79 39.8009
2009.83 29.2634
2009.87 22.2453
2009.95 13.9556
2010.04 9.51493
2010.12 6.89085
2010.20 5.22074
2010.36 3.30236
2010.53 2.28703
2010.69 1.68605
2011.02 1.03938
2011.35 0.716065
2011.68 0.530644
2012.33 0.335504
2012.99 0.238613
2013.64 0.182862
2014.95 0.123604
2016.27 0.0941648
2017.58 0.0778660
2020.20 0.0643568
2022.82 0.0679771
2024.14 0.0782408
2025.45 0.100008
2026.76 0.148907
2027.41 0.197844
2028.07 0.286141
2028.40 0.359766
2028.73 0.470840
2029.05 0.649793
2029.38 0.965622
2029.55 1.22305
2029.71 1.60352
2029.87 2.19960
2030.04 3.20982
2030.20 5.12375
2030.28 6.79288
2030.37 9.41859
2030.45 13.8676
2030.49 17.3272
2030.53 22.1839
2030.57 29.2309
2030.61 39.8168
2030.65 56.1948
2030.69 80.8549
2030.75 129.375
2030.80 161.732
2030.83 152.212
2030.85 129.370
2030.91 80.8498
2030.96 51.4981
2031.01 34.6114
2031.06 24.2886
2031.11 17.9346
2031.21 10.7640
2031.30 7.13089
2031.40 5.05972
2031.50 3.77398
2031.70 2.33759
2031.90 1.59067
2032.09 1.15812
2032.29 0.883361
2032.49 0.699911
2032.88 0.476477
2033.28 0.351741
2034.07 0.226532
2034.86 0.170814
2035.65 0.144753
2037.23 0.136576
2038.81 0.176244
2039.60 0.225993
2040.39 0.320193
2040.78 0.399726
2041.18 0.520083
2041.57 0.713830
2041.97 1.05415
2042.36 1.73469
2042.56 2.36522
2042.76 3.41450
2042.96 5.37301
2043.06 7.04751
2043.15 9.59537
2043.25 13.8179
2043.35 21.3604
2043.40 27.5382
2043.45 36.2429
2043.50 48.9524
2043.55 67.4533
2043.63 108.376
2043.70 135.254
2043.78 107.794
2043.85 67.4466
2043.92 42.1148
2044.00 27.6823
2044.07 19.2477
2044.14 14.0407
2044.22 10.6487
2044.29 8.33371
2044.44 5.48651
2044.58 3.87899
2044.73 2.88767
2045.02 1.78348
2045.31 1.21689
2045.60 0.889222
2045.90 0.683580
2046.19 0.547137
2046.77 0.383930
2047.35 0.297434
2048.52 0.228963
2049.69 0.245424
2050.27 0.293312
2050.86 0.394512
2051.44 0.620093
2051.73 0.842616
2052.02 1.23664
2052.32 2.02957
2052.46 2.76502
2052.61 3.99941
2052.75 6.30128
2052.83 8.27465
2052.90 11.3236
2052.97 16.3579
2053.05 25.4059
2053.08 32.8923
2053.12 43.4197
2053.16 58.8598
2053.19 81.4331
2053.25 130.535
2053.30 162.391
2053.33 152.389
2053.36 129.579
2053.41 81.4258
2053.45 54.4143
2053.50 37.6568
2053.50 3.32782
2500.00 3.04506
3000.00 2.81867
3500.00 2.65069
4000.00 2.52037
5000.00 2.32916
6000.00 2.19288
7200.00 2.07004
8500.00 1.96660
10000.0 1.87045
12500.0 1.74291
15000.0 1.64008
17000.0 1.56944
20000.0 1.47729
25000.0 1.35003
30000.0 1.24625
35000.0 1.15948
40000.0 1.08574
50000.0 0.966984
60000.0 0.875600
70000.0 0.803247
80000.0 0.744689
90000.0 0.696459
100000 0.656161
120000 0.592976
140000 0.546110
160000 0.510320
179358 0.483252
180000 0.482355
200000 0.460088
200000 0.460088
200000 0.460088
220000 0.442081
240000 0.427323
242923 0.425535
256826 0.417033
260000 0.415092
261490 0.414286
283200 0.402540
283207 0.402536
283207 0.405078
283207 0.405078
287044 0.400656
300000 0.385723
309195 0.375725
309195 0.375725
311971 0.372706
322289 0.361487
322289 0.361486
347822 0.333723
347823 0.333722
427754 0.246807
445500 0.227510
445500 0.227510
446634 0.226278
446634 0.226277
450000 0.222617
451298 0.222197
493843 0.208436
493843 0.208436
514227 0.201843
540144 0.193460
540144 0.193460
552371 0.189505
566142 0.185051
566142 0.185051
573461 0.182683
576420 0.181726
596622 0.175192
600000 0.174099
607788 0.171800
620913 0.167924
633645 0.164165
650727 0.159121
650727 0.159121
656957 0.157282
656957 0.157282
657259 0.157193
679643 0.150584
679643 0.150584
689567 0.147653
700000 0.144573
703358 0.143814
703359 0.143814
715817 0.140997
734212 0.136837
734212 0.136837
761704 0.130621
768317 0.129125
789458 0.124345
789459 0.124345
794567 0.123190
794567 0.123190
800000 0.121961
811731 0.119960
816779 0.119099
900000 0.104904
940961 0.0996982
984375 0.0941807
1.00000E+06 0.0921949
1.00962E+06 0.0916210
1.00962E+06 0.0916207
2.00000E+06 0.0325108
2.91678E+06 0.0180687
3.00000E+06 0.0167577
4.00000E+06 0.00913026
5.00000E+06 0.00510198
6.00000E+06 0.00260751
7.00000E+06 0.00161675
7.16221E+06 0.00155340
7.16221E+06 0.00155340
8.00000E+06 0.00122621
8.83716E+06 0.00108763
9.00000E+06 0.00106067
9.78418E+06 0.00106062
1.00000E+07 0.00106060
1.10000E+07 0.00102432
1.20000E+07 0.000951178
1.30000E+07 0.000878036
1.40000E+07 0.000792831
1.45000E+07 0.000731306
1.50000E+07 0.000669781
1.59035E+07 0.000541277
1.60000E+07 0.000527546
1.70000E+07 0.000393153
1.72412E+07 0.000366148
1.72412E+07 0.000366147
1.80000E+07 0.000281191
1.90000E+07 0.000194496
2.00000E+07 0.000136159