Pd-110(n,tot) ENDF/B-VII.1
Energy(eV) XS(b)
1.00000E-05 17.1882
1.25000E-05 15.9713
1.50000E-05 15.0730
2.00000E-05 13.8120
2.75000E-05 12.6123
3.50000E-05 11.8227
4.25000E-05 11.2526
5.00000E-05 10.8163
6.25000E-05 10.2720
7.50000E-05 9.87029
0.000100000 9.30638
0.000125000 8.92155
0.000150000 8.63748
0.000200000 8.23873
0.000275000 7.85933
0.000350000 7.60963
0.000425000 7.42937
0.000500000 7.29137
0.000625000 7.11927
0.000750000 6.99222
0.00100000 6.81390
0.00125000 6.69220
0.00150000 6.60236
0.00200000 6.47626
0.00275000 6.35627
0.00350000 6.27730
0.00425000 6.22029
0.00500000 6.17664
0.00625000 6.12221
0.00750000 6.08202
0.0100000 6.02561
0.0125000 5.98710
0.0150000 5.95868
0.0200000 5.91877
0.0253000 5.89014
0.0314750 5.86640
0.0376500 5.84875
0.0500000 5.82384
0.0625000 5.80655
0.0750000 5.79378
0.100000 5.77581
0.125000 5.76352
0.150000 5.75441
0.200000 5.74156
0.275000 5.72921
0.350000 5.72098
0.500000 5.71027
0.750000 5.69977
1.00000 5.69313
1.50000 5.68451
2.00000 5.67865
2.75000 5.67214
3.50000 5.66702
5.00000 5.65881
7.50000 5.64799
10.0000 5.63897
15.0000 5.62379
20.0000 5.61103
27.5000 5.59487
35.0000 5.58129
42.5000 5.56963
46.2500 5.56441
48.1250 5.56198
50.0000 5.55993
50.4675 5.55972
50.9350 5.56020
51.1688 5.56137
51.4025 5.56503
51.5194 5.57009
51.6363 5.58342
51.6947 5.59995
51.7239 5.61482
51.7531 5.63898
51.7824 5.68184
51.8116 5.76794
51.8262 5.84665
51.8408 5.97440
51.8554 6.19352
51.8700 6.57873
51.8850 7.19191
51.9000 7.60088
51.9150 7.19234
51.9300 6.57924
51.9393 6.30979
51.9486 6.12117
51.9672 5.89692
51.9858 5.77983
52.0044 5.71303
52.0230 5.67183
52.0416 5.64483
52.0788 5.61292
52.1531 5.58512
52.2275 5.57371
52.3763 5.56458
52.5250 5.56101
52.8225 5.55810
53.1200 5.55681
54.3100 5.55446
56.6900 5.55146
61.4500 5.54619
66.2100 5.54143
68.5900 5.53939
69.7800 5.53905
70.0775 5.53952
70.3750 5.54127
70.5238 5.54382
70.6725 5.55075
70.7469 5.55963
70.8213 5.58148
70.8584 5.60666
70.8956 5.66056
70.9142 5.71344
70.9328 5.80608
70.9514 5.98364
70.9607 6.13301
70.9700 6.34617
70.9850 6.83172
71.0000 7.15551
71.0150 6.83196
71.0300 6.34646
71.0449 6.03641
71.0598 5.86232
71.0747 5.76169
71.0897 5.70007
71.1195 5.63301
71.1493 5.59980
71.2090 5.56961
71.2686 5.55680
71.3879 5.54637
71.5072 5.54228
71.7458 5.53906
71.9844 5.53775
72.9387 5.53589
74.8475 5.53427
76.7562 5.53322
78.6650 5.53285
79.6193 5.53314
80.5737 5.53406
81.5281 5.53614
82.4824 5.54064
82.9596 5.54474
83.4368 5.55126
83.9140 5.56229
84.3912 5.58279
84.6298 5.60023
84.8684 5.62701
85.1070 5.67110
85.3455 5.75119
85.4648 5.81831
85.5841 5.92015
85.7034 6.08551
85.8227 6.38046
85.8824 6.62337
85.9420 6.98594
86.0017 7.56155
86.0613 8.55543
86.1210 10.4944
86.1508 12.2390
86.1806 15.0742
86.2104 20.1175
86.2254 24.2333
86.2403 30.2876
86.2552 39.6296
86.2701 54.8702
86.2850 81.1999
86.2999 127.955
86.3150 201.365
86.3300 250.291
86.3451 201.398
86.3601 127.997
86.3734 85.0256
86.3868 59.3274
86.4001 43.7051
86.4134 33.7787
86.4400 22.5934
86.4667 16.8670
86.4933 13.5808
86.5200 11.5314
86.5732 9.22378
86.6265 8.02624
86.6798 7.32731
86.7331 6.88456
86.7864 6.58666
86.8929 6.22324
86.9995 6.01852
87.1060 5.89193
87.2126 5.80822
87.4257 5.70788
87.6389 5.65228
87.8520 5.61825
88.0651 5.59590
88.4913 5.56921
88.9176 5.55442
89.3438 5.54531
89.7701 5.53924
90.6226 5.53180
91.4751 5.52744
92.3276 5.52455
93.1801 5.52244
94.8850 5.51944
96.5900 5.51724
100.000 5.51386
104.246 5.51041
108.493 5.50732
116.985 5.50168
125.478 5.49649
129.724 5.49407
131.847 5.49318
132.909 5.49387
133.439 5.49841
133.572 5.50302
133.705 5.51524
133.771 5.53060
133.837 5.56757
133.871 5.60930
133.904 5.69575
133.920 5.77802
133.937 5.91714
133.954 6.17002
133.970 6.64584
133.985 7.33846
134.000 7.80026
134.015 7.33865
134.030 6.64606
134.041 6.30187
134.052 6.07659
134.073 5.82596
134.094 5.70374
134.116 5.63697
134.159 5.57132
134.201 5.54160
134.287 5.51635
134.373 5.50620
134.544 5.49822
134.715 5.49517
135.400 5.49178
136.770 5.49022
139.510 5.48850
144.990 5.48545
155.950 5.47962
161.430 5.47681
166.910 5.47418
169.650 5.47311
172.390 5.47274
173.760 5.47354
175.130 5.47714
175.815 5.48280
176.158 5.48862
176.500 5.49937
176.843 5.52240
177.014 5.54522
177.185 5.58636
177.271 5.62065
177.356 5.67229
177.442 5.75540
177.528 5.90174
177.570 6.02070
177.613 6.19605
177.656 6.46968
177.699 6.93076
177.742 7.79644
177.763 8.54416
177.784 9.70865
177.806 11.6536
177.827 15.2112
177.838 18.1600
177.849 22.4976
177.859 29.0357
177.870 38.8927
177.885 58.9847
177.900 72.2480
177.915 58.8472
177.930 38.8982
177.941 28.9664
177.952 22.4042
177.963 18.0657
177.973 15.1243
177.995 11.5859
178.016 9.66358
178.038 8.50816
178.060 7.77020
178.103 6.91387
178.146 6.45795
178.189 6.18744
178.232 6.01411
178.275 5.89650
178.361 5.75179
178.447 5.66957
178.534 5.61844
178.620 5.58448
178.792 5.54358
178.965 5.52083
179.310 5.49766
179.654 5.48664
179.999 5.48050
180.689 5.47413
182.068 5.46905
183.448 5.46675
186.206 5.46410
188.965 5.46213
194.483 5.45859
200.000 5.45505
207.909 5.44959
215.817 5.44336
223.725 5.43579
231.634 5.42588
235.588 5.41943
239.542 5.41135
243.496 5.40074
247.451 5.38589
249.428 5.37589
251.405 5.36320
253.382 5.34653
255.359 5.32372
256.348 5.30893
257.336 5.29110
258.325 5.26968
259.313 5.24513
259.807 5.23308
260.302 5.22403
260.796 5.22468
261.290 5.25429
261.537 5.29616
261.785 5.37830
262.032 5.54294
262.279 5.89512
262.402 6.22169
262.526 6.75081
262.650 7.66415
262.773 9.38774
262.835 10.8634
262.897 13.1232
262.959 16.8001
263.020 23.2860
263.082 36.2254
263.113 48.0202
263.144 67.3459
263.175 101.911
263.190 130.304
263.206 171.805
263.221 236.169
263.237 340.083
263.244 416.706
263.252 518.147
263.260 653.236
263.267 831.870
263.269 866.908
263.273 983.764
263.277 1109.91
263.284 1382.99
263.300 1733.03
263.316 1413.66
263.331 906.223
263.333 868.585
263.337 769.859
263.341 683.650
263.349 545.606
263.365 363.353
263.380 256.052
263.396 190.042
263.412 146.587
263.428 116.982
263.460 80.2579
263.491 59.2217
263.523 46.1111
263.586 31.2989
263.650 23.5099
263.713 18.9051
263.776 15.9366
263.840 13.9092
263.966 11.3737
264.093 9.89571
264.220 8.95078
264.346 8.30531
264.600 7.49618
264.853 7.02011
265.107 6.71202
265.360 6.49878
265.867 6.22638
266.374 6.06199
266.880 5.95309
267.387 5.87614
268.401 5.77517
269.414 5.71226
270.428 5.66947
271.441 5.63852
273.469 5.59680
275.496 5.56994
277.523 5.55117
279.550 5.53727
283.604 5.51792
287.659 5.50496
291.713 5.49554
295.767 5.48829
303.876 5.47762
311.984 5.46989
328.201 5.45878
344.419 5.45052
360.636 5.44367
376.853 5.43762
384.962 5.43482
389.016 5.43360
391.043 5.43357
392.057 5.43578
392.563 5.44512
392.817 5.47821
392.880 5.50807
392.943 5.57932
392.975 5.65896
393.007 5.82187
393.038 6.22962
393.054 6.68109
393.070 7.51196
393.085 8.75941
393.100 9.59086
393.115 8.75958
393.130 7.51217
393.145 6.71623
393.160 6.27094
393.189 5.85404
393.219 5.68067
393.249 5.59495
393.308 5.51684
393.367 5.48377
393.604 5.44653
394.078 5.43559
395.026 5.43236
396.923 5.43098
400.715 5.42954
408.300 5.42703
415.885 5.42463
419.678 5.42356
421.574 5.42348
422.522 5.42522
422.996 5.43265
423.233 5.45870
423.352 5.53684
423.411 5.71925
423.440 6.01306
423.455 6.32703
423.470 6.88327
423.485 7.75929
423.500 8.34304
423.515 7.75931
423.530 6.88329
423.549 6.22621
423.567 5.90552
423.605 5.64395
423.679 5.50165
423.829 5.44620
424.128 5.42864
424.725 5.42353
425.920 5.42186
428.309 5.42077
433.089 5.41919
442.648 5.41619
461.765 5.41023
500.000 5.39816
526.834 5.38959
533.542 5.38767
540.251 5.38644
543.605 5.38681
546.959 5.39005
548.636 5.39563
549.475 5.40152
550.314 5.41256
551.152 5.43657
551.571 5.46067
551.991 5.50472
552.200 5.54188
552.410 5.59860
552.620 5.69151
552.829 5.85923
552.934 5.99923
553.039 6.21063
553.144 6.55197
553.249 7.15617
553.301 7.65002
553.353 8.38178
553.406 9.53210
553.458 11.4909
553.511 15.2291
553.537 18.5144
553.563 23.7243
553.589 32.6563
553.615 49.6613
553.628 64.3498
553.642 86.8416
553.655 122.523
553.668 179.587
553.684 284.219
553.700 353.300
553.716 283.530
553.732 179.050
553.745 124.951
553.757 90.3541
553.769 67.7664
553.781 52.8264
553.806 35.0691
553.830 25.5760
553.855 19.9353
553.879 16.3580
553.928 12.2383
553.977 10.0602
554.026 8.77364
554.075 7.95189
554.124 7.39563
554.222 6.71296
554.319 6.32608
554.417 6.08594
554.515 5.92674
554.711 5.73548
554.906 5.62932
555.102 5.56436
555.297 5.52172
555.689 5.47099
556.080 5.44307
556.862 5.41492
557.645 5.40162
558.427 5.39423
559.992 5.38657
563.121 5.38036
566.251 5.37751
572.510 5.37492
574.075 5.37532
575.640 5.37789
576.422 5.38214
577.205 5.39479
577.596 5.41251
577.987 5.46201
578.183 5.52891
578.281 5.59395
578.378 5.70912
578.476 5.94272
578.525 6.16193
578.574 6.53505
578.623 7.24653
578.647 7.87281
578.672 8.86092
578.696 10.5597
578.721 13.7728
578.733 16.5659
578.745 20.8011
578.757 27.4926
578.770 38.1430
578.785 57.7770
578.800 70.8566
578.815 57.7890
578.830 38.1581
578.845 26.2468
578.859 19.2881
578.873 15.1410
578.887 12.5593
578.915 9.66751
578.943 8.21125
578.971 7.37919
578.999 6.86499
579.056 6.28767
579.112 5.98950
579.168 5.81599
579.281 5.63262
579.393 5.54285
579.506 5.49234
579.731 5.44051
580.181 5.40203
580.632 5.38805
581.532 5.37762
582.433 5.37366
584.234 5.37030
586.035 5.36861
593.240 5.36461
607.650 5.35805
622.060 5.35147
629.265 5.34860
632.867 5.34934
633.768 5.35149
634.669 5.35837
635.119 5.36824
635.569 5.39611
635.794 5.43405
635.907 5.47113
636.020 5.53707
636.132 5.67206
636.188 5.79994
636.245 6.01991
636.301 6.44636
636.329 6.82833
636.357 7.44279
636.386 8.52823
636.414 10.6741
636.428 12.6169
636.442 15.7023
636.456 20.9283
636.470 29.8334
636.485 44.5435
636.500 54.3567
636.515 44.5412
636.530 29.8305
636.542 21.8742
636.554 16.9087
636.566 13.7335
636.578 11.6677
636.603 9.25276
636.627 7.98245
636.651 7.23547
636.675 6.76519
636.723 6.22734
636.771 5.94439
636.819 5.77839
636.915 5.60122
637.012 5.51366
637.108 5.46420
637.300 5.41319
637.685 5.37517
638.070 5.36132
638.840 5.35099
639.610 5.34706
642.689 5.34200
648.848 5.33782
661.165 5.33060
685.800 5.31485
698.118 5.30594
710.435 5.29618
722.752 5.28563
728.911 5.28109
730.451 5.28097
731.990 5.28342
732.760 5.28817
733.530 5.30293
733.915 5.32386
734.300 5.38251
734.492 5.46176
734.589 5.53874
734.685 5.67490
734.781 5.95112
734.829 6.20979
734.877 6.64953
734.925 7.48651
734.950 8.22192
734.974 9.37993
734.998 11.3657
735.022 15.1061
735.034 18.3446
735.046 23.2347
735.058 30.9207
735.070 43.0804
735.085 65.8194
735.100 80.8335
735.115 65.6506
735.130 43.0687
735.145 28.6417
735.160 20.5144
735.175 15.8088
735.190 12.9237
735.205 11.0537
735.220 9.78234
735.250 8.22844
735.280 7.35071
735.310 6.81084
735.370 6.21146
735.430 5.90352
735.490 5.72546
735.610 5.53795
735.730 5.44642
735.850 5.39507
736.089 5.34240
736.569 5.30329
737.048 5.28894
738.007 5.27789
738.966 5.27330
742.801 5.26558
750.472 5.25558
758.143 5.24545
765.814 5.23444
781.155 5.20881
796.497 5.17654
811.838 5.13430
819.509 5.10776
827.180 5.07626
834.851 5.03844
838.686 5.01678
842.521 4.99339
846.357 4.96946
848.274 4.95874
850.192 4.95145
852.110 4.95450
853.069 4.96639
854.028 4.99596
854.507 5.02436
854.986 5.07056
855.466 5.14998
855.945 5.29899
856.185 5.42622
856.425 5.62169
856.664 5.94312
856.904 6.52522
857.024 7.01143
857.144 7.74586
857.264 8.93292
857.383 11.0321
857.443 12.7505
857.503 15.2922
857.563 19.2855
857.623 26.0799
857.683 39.0613
857.713 50.4688
857.743 68.4809
857.773 99.4271
857.803 158.022
857.818 208.690
857.833 286.180
857.848 408.906
857.863 603.150
857.881 962.144
857.900 1201.42
857.919 961.918
857.937 602.875
857.958 355.951
857.978 225.935
857.999 153.798
858.019 111.246
858.040 84.1823
858.060 66.1929
858.101 44.5159
858.142 32.4954
858.182 25.2009
858.264 17.1626
858.346 13.0768
858.428 10.7285
858.509 9.25486
858.591 8.27016
858.755 7.07665
858.918 6.40899
859.081 5.99742
859.245 5.72593
859.572 5.40020
859.899 5.21873
860.226 5.10644
860.552 5.03140
861.206 4.93847
861.860 4.88295
862.514 4.84504
863.168 4.81637
864.475 4.77259
865.783 4.73675
868.398 4.67085
871.013 4.60178
873.628 4.52325
878.859 4.31710
881.474 4.17533
884.089 3.99208
886.704 3.74592
889.320 3.39856
890.627 3.16614
891.935 2.87625
893.242 2.50819
894.550 2.03711
895.204 1.75884
895.858 1.46150
896.511 1.18294
897.165 1.05494
897.492 1.16744
897.656 1.31792
897.819 1.56914
897.982 1.96847
898.146 2.58852
898.228 3.01609
898.309 3.54738
898.473 5.03941
898.636 7.40841
898.800 11.2846
898.963 17.9375
899.045 23.0625
899.127 30.1403
899.208 40.1919
899.290 54.9043
899.372 77.3584
899.453 113.450
899.535 175.471
899.617 291.691
899.658 389.498
899.699 534.063
899.739 753.785
899.780 1086.46
899.840 1815.69
899.900 2369.08
899.960 1976.44
900.020 1288.01
900.073 869.226
900.125 610.736
900.178 449.511
900.231 344.710
900.336 223.154
900.441 158.573
900.547 120.155
900.652 95.3986
900.863 66.2871
901.074 50.2600
901.284 40.3849
901.495 33.7983
901.706 29.1451
902.127 23.0851
902.549 19.3675
902.970 16.8822
903.392 15.1166
904.235 12.7915
905.078 11.3411
905.921 10.3555
906.764 9.64459
908.449 8.69080
910.135 8.08235
911.821 7.66135
913.507 7.35314
916.879 6.93247
920.251 6.65908
923.622 6.46725
926.994 6.32530
933.738 6.12957
940.481 6.00237
943.853 5.95583
947.225 5.92088
948.911 5.91077
950.597 5.91448
951.440 5.93215
951.861 5.95230
952.283 5.99030
952.704 6.07165
952.915 6.15156
953.125 6.29468
953.231 6.41331
953.336 6.59176
953.442 6.87866
953.547 7.38388
953.600 7.79612
953.652 8.40616
953.705 9.36432
953.758 10.9916
953.810 14.1040
953.837 16.8505
953.863 21.1998
953.889 28.7161
953.916 43.0680
953.929 55.6027
953.942 74.7778
953.955 105.713
953.968 155.337
953.984 245.012
954.000 304.044
954.016 243.804
954.032 154.581
954.047 98.4836
954.063 66.5845
954.078 47.9780
954.093 36.5702
954.109 29.0912
954.124 23.9948
954.155 17.7529
954.186 14.2221
954.216 12.0548
954.278 9.64254
954.339 8.40433
954.401 7.68888
954.462 7.23958
954.524 6.94013
954.647 6.57859
954.769 6.37918
955.015 6.18315
955.261 6.10070
955.507 6.06789
955.999 6.08362
956.245 6.12890
956.491 6.21089
956.736 6.35594
956.982 6.62803
957.105 6.85882
957.228 7.21014
957.351 7.78127
957.474 8.79891
957.535 9.63581
957.597 10.8818
957.658 12.8523
957.720 16.2280
957.781 22.7563
957.812 28.5546
957.843 37.8639
957.874 54.1839
957.904 86.0795
957.920 114.587
957.935 159.297
957.950 233.652
957.966 357.692
957.983 569.220
958.000 710.456
958.017 569.461
958.034 357.995
958.055 204.374
958.075 127.164
958.096 86.1239
958.116 62.4103
958.137 47.6697
958.157 37.9487
958.198 26.3962
958.239 20.0864
958.280 16.2792
958.362 12.1241
958.444 10.0243
958.526 8.82012
958.608 8.06634
958.690 7.56387
958.854 6.95485
959.018 6.61414
959.182 6.40401
959.346 6.26509
959.674 6.09798
960.002 6.00451
960.330 5.94642
960.657 5.90750
961.313 5.85926
961.969 5.83064
963.280 5.79749
964.592 5.77758
965.903 5.76319
968.526 5.74170
973.772 5.71040
979.017 5.68631
984.263 5.66737
989.509 5.65496
992.132 5.65342
994.754 5.65928
996.066 5.66807
997.377 5.68503
998.689 5.71860
999.344 5.74761
1000.00 5.79195
1000.53 5.84712
1001.06 5.93270
1001.60 6.07494
1002.13 6.33591
1002.39 6.55637
1002.66 6.89331
1002.93 7.44526
1003.19 8.44198
1003.33 9.27268
1003.46 10.5269
1003.59 12.5492
1003.72 16.1205
1003.79 19.0582
1003.86 23.3345
1003.92 30.1369
1003.99 41.4824
1004.06 63.2913
1004.09 82.0171
1004.12 111.319
1004.16 160.592
1004.19 251.648
1004.21 330.725
1004.22 441.271
1004.24 620.858
1004.26 879.293
1004.28 1418.41
1004.30 1758.14
1004.32 1393.94
1004.35 879.980
1004.37 560.158
1004.39 374.310
1004.41 263.979
1004.43 197.729
1004.47 119.988
1004.51 81.6180
1004.55 59.1997
1004.59 45.6234
1004.68 30.1767
1004.76 22.1951
1004.84 17.5491
1004.93 14.6113
1005.01 12.6370
1005.18 10.2316
1005.34 8.87780
1005.51 8.04122
1005.67 7.48828
1006.01 6.82558
1006.34 6.45841
1006.67 6.23374
1007.00 6.08653
1007.66 5.91027
1008.33 5.81271
1008.99 5.75275
1009.66 5.71308
1010.98 5.66470
1012.31 5.63685
1014.97 5.60598
1017.62 5.58859
1020.28 5.57669
1025.59 5.55989
1030.90 5.54723
1036.21 5.53656
1046.83 5.51848
1057.45 5.50303
1068.07 5.48931
1089.30 5.46542
1110.54 5.44475
1131.78 5.42629
1142.40 5.41782
1153.02 5.41033
1158.33 5.40769
1163.64 5.40810
1166.30 5.41253
1167.63 5.41809
1168.95 5.42924
1170.28 5.45459
1170.95 5.48059
1171.61 5.52865
1171.94 5.56956
1172.27 5.63244
1172.61 5.73614
1172.94 5.92425
1173.10 6.08265
1173.27 6.32366
1173.43 6.71634
1173.60 7.42027
1173.68 8.00284
1173.77 8.87649
1173.85 10.2723
1173.93 12.7051
1174.02 17.5184
1174.06 21.9815
1174.10 29.1798
1174.14 42.6385
1174.16 53.9875
1174.18 70.2133
1174.20 97.3084
1174.22 141.117
1174.24 225.631
1174.26 389.927
1174.28 620.977
1174.30 773.777
1174.32 621.213
1174.34 389.163
1174.35 243.287
1174.37 160.190
1174.39 112.224
1174.41 82.8845
1174.43 63.9002
1174.44 51.0091
1174.48 35.2353
1174.52 26.3732
1174.55 20.9250
1174.62 14.8714
1174.70 11.7685
1174.77 9.97164
1174.84 8.83949
1174.91 8.08942
1175.06 7.16326
1175.20 6.64659
1175.34 6.32538
1175.49 6.11474
1175.77 5.86085
1176.06 5.72096
1176.35 5.63541
1176.63 5.57926
1177.21 5.51226
1177.78 5.47532
1178.93 5.43773
1180.08 5.41962
1181.23 5.40929
1183.53 5.39803
1188.12 5.38761
1192.71 5.38165
1201.90 5.37288
1211.09 5.36529
1247.85 5.33652
1266.23 5.32192
1284.60 5.30695
1302.98 5.29259
1307.58 5.29018
1312.17 5.29096
1314.47 5.29580
1316.77 5.31347
1317.92 5.33994
1318.49 5.36690
1319.06 5.41653
1319.64 5.52316
1319.93 5.62891
1320.21 5.82044
1320.36 5.98120
1320.50 6.22297
1320.64 6.61730
1320.79 7.31318
1320.86 7.88807
1320.93 8.74452
1321.00 10.1008
1321.07 12.3913
1321.15 16.8707
1321.18 20.8662
1321.22 27.3027
1321.25 38.5922
1321.29 60.8638
1321.31 80.8299
1321.33 112.563
1321.34 165.404
1321.36 250.406
1321.38 396.340
1321.40 495.626
1321.42 396.353
1321.44 250.425
1321.45 181.495
1321.47 135.538
1321.49 82.2391
1321.52 54.3776
1321.55 39.4653
1321.57 30.0742
1321.60 24.2242
1321.65 17.3349
1321.70 13.5498
1321.76 11.3307
1321.81 9.87319
1321.86 8.89936
1321.97 7.68294
1322.07 6.98927
1322.18 6.55684
1322.28 6.26927
1322.49 5.92142
1322.70 5.72887
1323.12 5.53295
1323.54 5.44005
1323.96 5.38891
1324.80 5.33703
1325.64 5.31234
1326.49 5.29846
1328.17 5.28377
1331.53 5.27104
1334.89 5.26436
1341.62 5.25509
1348.35 5.24715
1361.80 5.23166
1375.25 5.21554
1388.71 5.19834
1402.16 5.17985
1415.62 5.16023
1422.34 5.15191
1424.02 5.15172
1425.71 5.15632
1426.55 5.16523
1427.39 5.19301
1427.81 5.23260
1428.23 5.34370
1428.44 5.49421
1428.54 5.64076
1428.65 5.90054
1428.75 6.42836
1428.81 6.93051
1428.86 7.77059
1428.91 9.41082
1428.94 10.8314
1428.96 13.0814
1428.99 17.1332
1429.02 24.6637
1429.03 31.1980
1429.04 41.2557
1429.06 57.3399
1429.07 85.1536
1429.08 131.913
1429.10 164.955
1429.12 131.943
1429.13 84.9360
1429.14 62.3372
1429.15 46.5765
1429.16 36.0780
1429.18 28.9205
1429.20 20.2626
1429.22 15.6830
1429.24 12.7760
1429.26 10.9821
1429.30 8.82966
1429.35 7.65510
1429.39 6.97428
1429.48 6.23722
1429.56 5.86520
1429.65 5.65598
1429.82 5.43837
1430.00 5.33286
1430.17 5.27435
1430.51 5.21437
1431.20 5.16966
1431.89 5.15293
1433.27 5.13923
1434.65 5.13276
1440.18 5.11869
1451.22 5.09599
1462.27 5.07202
1473.32 5.04573
1495.41 4.98399
1517.50 4.90543
1539.59 4.80138
1561.68 4.65616
1572.73 4.55936
1583.78 4.43835
1589.30 4.36594
1594.82 4.28412
1597.58 4.24018
1600.34 4.19755
1601.73 4.18156
1603.11 4.18407
1603.80 4.21171
1604.14 4.24617
1604.49 4.31473
1604.83 4.46811
1605.00 4.62320
1605.18 4.90304
1605.26 5.13928
1605.35 5.49165
1605.44 6.05699
1605.52 7.04701
1605.57 7.86929
1605.61 9.05223
1605.65 10.8854
1605.69 13.9431
1605.74 19.5943
1605.76 24.5320
1605.78 31.7468
1605.80 44.0961
1605.82 64.8905
1605.85 107.245
1605.86 143.708
1605.87 192.142
1605.88 304.031
1605.90 379.712
1605.92 304.061
1605.93 191.625
1605.95 128.847
1605.96 90.3394
1605.98 66.2619
1605.99 50.6307
1606.02 32.1952
1606.05 22.9895
1606.08 17.4719
1606.10 14.1365
1606.16 10.2825
1606.22 8.27523
1606.28 7.10075
1606.33 6.35529
1606.39 5.86017
1606.50 5.24229
1606.62 4.89550
1606.84 4.53424
1607.07 4.35845
1607.30 4.25924
1607.75 4.15352
1608.21 4.09788
1608.66 4.06238
1609.57 4.01532
1611.39 3.95052
1613.20 3.89430
1616.84 3.77978
1620.47 3.65230
1627.74 3.33596
1635.01 2.89491
1638.65 2.60306
1642.28 2.24324
1645.92 1.79449
1649.55 1.23812
1651.37 0.923644
1653.19 0.608356
1655.01 0.358137
1655.91 0.310149
1656.37 0.324642
1656.82 0.377675
1657.28 0.483925
1657.73 0.663142
1658.19 0.945038
1658.64 1.37027
1659.10 2.00310
1659.55 2.93542
1660.00 4.31651
1660.46 6.38680
1660.91 9.56188
1661.37 14.5549
1661.82 22.7505
1662.27 36.9882
1662.73 63.8358
1662.96 86.4238
1663.18 120.205
1663.41 172.872
1663.64 258.959
1663.86 406.410
1664.09 664.245
1664.35 1130.62
1664.60 1498.18
1664.86 1269.19
1665.11 839.973
1665.33 574.649
1665.55 409.484
1665.78 304.896
1666.00 236.619
1666.44 156.365
1666.89 113.222
1667.33 87.2310
1667.78 70.3513
1668.67 50.2170
1669.56 38.9557
1670.45 31.9304
1671.33 27.1899
1672.22 23.8062
1674.00 19.3416
1675.78 16.5622
1677.56 14.6793
1679.34 13.3279
1682.89 11.5268
1686.45 10.3921
1688.23 9.97590
1689.12 9.79884
1690.01 9.64454
1690.90 9.52369
1691.34 9.48670
1691.79 9.48397
1692.23 9.56248
1692.45 9.67496
1692.68 9.90570
1692.79 10.1114
1692.90 10.4284
1693.01 10.9498
1693.12 11.8836
1693.18 12.6590
1693.23 13.7890
1693.29 15.5992
1693.34 18.6208
1693.40 24.4740
1693.43 29.6208
1693.45 37.4137
1693.48 51.1034
1693.51 76.9808
1693.52 99.1525
1693.54 132.806
1693.55 185.527
1693.56 262.630
1693.58 413.950
1693.60 516.390
1693.62 414.049
1693.64 262.751
1693.65 195.352
1693.66 145.594
1693.68 90.2752
1693.71 60.9880
1693.73 45.3141
1693.75 35.3618
1693.78 29.1777
1693.82 21.8685
1693.87 17.8292
1693.92 15.4201
1694.01 12.8327
1694.10 11.5176
1694.20 10.7707
1694.29 10.2995
1694.38 9.98160
1694.57 9.58673
1694.76 9.35760
1695.13 9.10134
1695.50 8.95653
1695.88 8.85784
1696.62 8.71796
1698.11 8.52048
1699.61 8.36352
1701.10 8.22677
1702.59 8.10414
1705.58 7.89075
1711.55 7.55441
1717.52 7.29998
1729.46 6.93975
1741.40 6.69667
1753.35 6.52143
1765.29 6.38903
1777.23 6.28559
1783.20 6.24305
1786.18 6.22826
1787.68 6.24024
1788.05 6.25991
1788.42 6.31869
1788.61 6.40008
1788.80 6.61906
1788.89 6.90607
1788.98 7.62354
1789.03 8.48998
1789.05 9.22985
1789.08 10.3867
1789.10 12.4429
1789.12 16.1404
1789.14 19.4169
1789.15 23.8981
1789.16 31.4243
1789.17 42.4022
1789.19 64.5986
1789.20 78.5031
1789.22 64.6124
1789.23 42.3020
1789.25 27.8811
1789.26 20.1187
1789.28 15.7198
1789.30 13.0627
1789.33 10.2086
1789.36 8.81042
1789.39 8.02963
1789.42 7.55150
1789.49 7.02204
1789.62 6.59488
1789.74 6.43011
1790.00 6.30400
1790.26 6.25668
1790.77 6.21980
1791.28 6.20456
1793.33 6.18032
1797.42 6.15377
1805.62 6.11013
1813.81 6.07185
1822.00 6.03765
1830.19 6.00692
1838.38 5.97943
1846.58 5.95693
1848.62 5.95412
1850.67 5.95746
1851.70 5.96748
1852.72 6.00122
1853.23 6.05040
1853.49 6.09992
1853.74 6.19026
1854.00 6.38135
1854.13 6.56852
1854.26 6.90238
1854.38 7.58728
1854.45 8.23773
1854.51 9.35964
1854.58 11.5435
1854.61 13.5035
1854.64 16.6818
1854.67 22.3118
1854.69 26.8899
1854.70 33.5985
1854.72 43.8973
1854.74 60.5788
1854.75 89.1103
1854.77 138.719
1854.78 216.197
1854.80 271.781
1854.82 216.249
1854.83 138.784
1854.85 84.6662
1854.87 55.6251
1854.89 39.5211
1854.90 30.3660
1854.92 24.1467
1854.94 19.9969
1854.98 15.1094
1855.01 12.3143
1855.05 10.6577
1855.12 8.79813
1855.19 7.85170
1855.26 7.30606
1855.40 6.73404
1855.54 6.45602
1855.69 6.30020
1855.97 6.14105
1856.54 6.02248
1857.10 5.97894
1858.24 5.94537
1859.37 5.93152
1861.64 5.91779
1863.91 5.90925
1872.98 5.88470
1882.05 5.86411
1891.13 5.84536
1909.27 5.81196
1927.42 5.78288
1945.56 5.75723
1963.71 5.73440
1981.86 5.71417
1990.93 5.70557
1995.46 5.70259
2000.00 5.70442
2001.59 5.71031
2003.18 5.72984
2003.98 5.75828
2004.77 5.83937
2005.17 5.95108
2005.37 6.06136
2005.57 6.25851
2005.77 6.67019
2005.87 7.06989
2005.97 7.76452
2006.02 8.33305
2006.07 9.17044
2006.12 10.4760
2006.16 12.6150
2006.21 16.6708
2006.24 20.1531
2006.26 25.2730
2006.29 33.9931
2006.31 49.6299
2006.34 80.6284
2006.35 106.216
2006.36 143.435
2006.38 225.858
2006.40 281.195
2006.42 225.854
2006.44 143.432
2006.45 96.6040
2006.47 68.1364
2006.49 49.6277
2006.50 38.5381
2006.54 25.5397
2006.57 18.8788
2006.60 15.0556
2006.64 12.6714
2006.70 10.0155
2006.77 8.61052
2006.83 7.79200
2006.96 6.93058
2007.10 6.50452
2007.23 6.26639
2007.49 6.02068
2007.75 5.90349
2008.02 5.83857
2008.54 5.77276
2009.59 5.72429
2010.65 5.70646
2012.75 5.69237
2014.85 5.68617
2023.27 5.67451
2040.10 5.65968
2048.51 5.65374
2056.93 5.65024
2061.13 5.65159
2065.34 5.66175
2067.44 5.67897
2068.50 5.69709
2069.55 5.73099
2070.60 5.80477
2071.13 5.87881
2071.65 6.01415
2071.91 6.12823
2072.18 6.30232
2072.44 6.58711
2072.70 7.10060
2072.84 7.53000
2072.97 8.17272
2073.10 9.21597
2073.23 11.0411
2073.30 12.5377
2073.36 14.7497
2073.43 18.2150
2073.49 23.9680
2073.56 34.9579
2073.59 44.5073
2073.62 58.8996
2073.66 83.6699
2073.69 129.367
2073.71 168.972
2073.72 224.211
2073.74 307.220
2073.75 438.803
2073.78 694.090
2073.80 871.308
2073.82 694.241
2073.85 438.041
2073.87 283.316
2073.89 194.027
2073.91 139.615
2073.93 104.957
2073.97 65.1235
2074.01 45.3121
2074.05 33.6717
2074.09 26.6032
2074.17 18.6030
2074.25 14.3915
2074.33 11.9627
2074.41 10.4034
2074.49 9.36688
2074.65 8.08683
2074.81 7.37097
2074.97 6.92803
2075.14 6.63503
2075.46 6.28289
2075.78 6.08852
2076.42 5.89155
2077.07 5.79848
2077.71 5.74724
2079.00 5.69525
2081.58 5.65640
2084.16 5.64143
2089.32 5.62824
2094.47 5.62123
2115.10 5.60383
2135.73 5.58981
2156.36 5.57676
2197.61 5.55220
2218.24 5.54046
2228.56 5.53495
2233.71 5.53342
2236.29 5.53749
2237.58 5.55836
2237.90 5.58006
2238.23 5.64005
2238.39 5.72031
2238.55 5.93339
2238.63 6.20703
2238.71 6.87359
2238.75 7.67067
2238.79 9.36410
2238.81 11.0448
2238.83 14.0328
2238.85 19.8905
2238.86 24.9282
2238.87 32.5306
2238.89 49.1296
2238.90 59.5439
2238.92 49.1384
2238.93 32.5418
2238.95 21.2148
2238.97 15.1410
2238.98 11.8970
2239.00 10.0184
2239.04 8.07812
2239.07 7.16121
2239.15 6.35826
2239.22 6.02835
2239.36 5.76662
2239.51 5.66718
2239.79 5.59218
2240.08 5.56478
2241.23 5.53687
2243.53 5.52852
2248.14 5.52413
2257.34 5.51851
2275.75 5.50812
2294.16 5.49826
2303.36 5.49557
2307.96 5.50339
2309.12 5.51355
2310.27 5.54354
2310.84 5.58568
2311.42 5.70396
2311.70 5.86559
2311.85 6.02428
2311.99 6.30569
2312.14 6.88890
2312.21 7.44606
2312.28 8.41357
2312.35 10.3170
2312.39 12.0449
2312.42 14.8812
2312.46 19.9971
2312.48 24.2341
2312.50 30.5551
2312.51 40.4934
2312.53 57.1250
2312.55 86.8606
2312.57 138.234
2312.58 217.557
2312.60 270.832
2312.62 217.589
2312.63 138.274
2312.65 98.9820
2312.66 71.4330
2312.67 53.7075
2312.68 42.7103
2312.71 28.9310
2312.73 21.4787
2312.76 17.0482
2312.78 14.2172
2312.83 10.9546
2312.88 9.22426
2312.93 8.20012
2313.03 7.10110
2313.14 6.55167
2313.24 6.24375
2313.44 5.92521
2313.64 5.77172
2313.84 5.68692
2314.24 5.60071
2315.04 5.53733
2315.84 5.51443
2317.44 5.49726
2319.04 5.49057
2325.45 5.48117
2338.27 5.47204
2363.91 5.45571
2389.54 5.43864
2415.18 5.42020
2440.82 5.39992
2466.45 5.37752
2479.27 5.36596
2492.09 5.35638
2498.50 5.35555
2504.91 5.36743
2508.11 5.39142
2509.71 5.41766
2511.31 5.46767
2512.92 5.57774
2513.72 5.68865
2514.52 5.89171
2514.92 6.06318
2515.32 6.32412
2515.72 6.75165
2516.12 7.51906
2516.32 8.15987
2516.52 9.11987
2516.72 10.6600
2516.92 13.3599
2517.02 15.5713
2517.12 18.7911
2517.22 23.7892
2517.32 32.1473
2517.42 47.6562
2517.47 60.8876
2517.52 81.2338
2517.57 114.611
2517.62 174.052
2517.67 290.866
2517.70 391.546
2517.72 542.654
2517.76 866.803
2517.80 1079.94
2517.84 867.128
2517.88 542.374
2517.90 401.814
2517.92 304.878
2517.97 187.966
2518.02 125.041
2518.06 89.7191
2518.11 67.3791
2518.16 53.0151
2518.25 35.7836
2518.34 26.4062
2518.43 20.7619
2518.62 14.6336
2518.81 11.5269
2518.99 9.75657
2519.18 8.64292
2519.36 7.90439
2519.73 7.00694
2520.10 6.50733
2520.48 6.20000
2520.85 5.99747
2521.59 5.75504
2522.33 5.62103
2523.82 5.48466
2525.30 5.41933
2526.79 5.38238
2529.75 5.34280
2535.69 5.30747
2541.63 5.28773
2553.51 5.25743
2565.39 5.22778
2577.27 5.19528
2589.14 5.16038
2595.08 5.14554
2598.05 5.14182
2601.02 5.14526
2603.99 5.16798
2605.48 5.19782
2606.96 5.25855
2607.70 5.31256
2608.45 5.39714
2609.19 5.53872
2609.93 5.79819
2610.30 6.01726
2610.67 6.34955
2611.05 6.88937
2611.42 7.85158
2611.60 8.64538
2611.79 9.82165
2611.97 11.6945
2612.16 14.8980
2612.34 21.1422
2612.44 26.7297
2612.53 35.6357
2612.62 51.4468
2612.72 82.8307
2612.76 111.536
2612.81 156.505
2612.85 231.742
2612.90 360.084
2612.95 573.271
2613.00 715.457
2613.05 573.309
2613.10 360.148
2613.14 254.255
2613.17 184.440
2613.21 138.361
2613.24 107.162
2613.32 69.6794
2613.39 49.4845
2613.46 37.2156
2613.53 29.3585
2613.67 20.3293
2613.82 15.4885
2613.96 12.6372
2614.11 10.7972
2614.25 9.55737
2614.54 8.02531
2614.82 7.15430
2615.11 6.61207
2615.40 6.25258
2615.97 5.81680
2616.54 5.57291
2617.12 5.42194
2617.69 5.32151
2618.84 5.19823
2619.99 5.12641
2622.28 5.04459
2624.57 4.99520
2626.87 4.95782
2631.46 4.89433
2636.05 4.83149
2640.64 4.76181
2649.82 4.58115
2654.41 4.45699
2659.00 4.29585
2663.59 4.07748
2668.17 3.76456
2670.47 3.55123
2672.76 3.27963
2675.06 2.92347
2677.35 2.44065
2678.50 2.13206
2679.65 1.76693
2680.80 1.34113
2681.94 0.880511
2682.52 0.675356
2683.09 0.553401
2683.38 0.561454
2683.66 0.654556
2683.95 0.885735
2684.24 1.34284
2684.38 1.70427
2684.52 2.18762
2684.67 2.84153
2684.81 3.71511
2684.96 4.90466
2685.10 6.51541
2685.24 8.73584
2685.38 11.8454
2685.53 16.3264
2685.67 22.8589
2685.82 32.8358
2685.96 48.4804
2686.10 74.6598
2686.25 120.602
2686.39 207.357
2686.46 279.146
2686.53 378.395
2686.67 656.405
2686.80 883.957
2686.94 759.932
2687.07 510.384
2687.18 358.526
2687.30 260.894
2687.41 197.932
2687.52 155.893
2687.75 105.659
2687.97 78.0541
2688.20 61.2198
2688.43 50.1345
2688.88 36.7779
2689.33 29.1823
2689.78 24.3913
2690.23 21.1194
2690.68 18.7698
2691.59 15.6363
2692.49 13.6621
2693.39 12.3132
2694.29 11.3371
2696.10 10.0238
2697.91 9.18525
2699.71 8.60484
2701.52 8.17990
2705.13 7.60006
2708.74 7.22357
2712.36 6.95944
2715.97 6.76400
2723.19 6.49393
2730.42 6.31599
2737.64 6.18970
2744.87 6.09528
2759.32 5.96306
2773.77 5.87448
2780.99 5.84027
2788.22 5.81116
2795.44 5.78852
2799.05 5.79028
2799.96 5.80153
2800.86 5.83868
2801.31 5.89253
2801.76 6.04464
2801.99 6.25186
2802.10 6.45410
2802.22 6.81335
2802.33 7.54525
2802.39 8.24278
2802.44 9.41436
2802.50 11.7070
2802.53 13.7020
2802.55 16.8735
2802.58 22.3298
2802.61 32.7740
2802.62 41.8467
2802.64 55.8198
2802.65 78.1596
2802.67 114.559
2802.68 179.678
2802.70 223.472
2802.72 179.768
2802.73 114.671
2802.75 67.3558
2802.78 42.7358
2802.80 29.9337
2802.82 22.9213
2802.84 18.3479
2802.86 15.3648
2802.90 11.9189
2802.94 10.0001
2802.98 8.87509
2803.07 7.63249
2803.15 7.00793
2803.23 6.65062
2803.40 6.27999
2803.73 5.99848
2804.06 5.89550
2804.72 5.81845
2805.38 5.78963
2806.71 5.76624
2808.04 5.75556
2813.34 5.73464
2823.94 5.70778
2834.54 5.68561
2845.14 5.66623
2866.35 5.63349
2887.55 5.60651
2908.75 5.58358
2929.96 5.56360
2951.16 5.54595
2961.76 5.53841
2967.07 5.53741
2969.72 5.54744
2971.04 5.59346
2971.37 5.64079
2971.70 5.77117
2971.87 5.94576
2972.04 6.40415
2972.12 6.98740
2972.20 8.41798
2972.24 10.0940
2972.28 13.5955
2972.31 17.1110
2972.33 22.9275
2972.35 34.5278
2972.37 56.8303
2972.38 87.5296
2972.40 108.170
2972.42 87.5595
2972.43 56.8678
2972.45 38.7714
2972.47 27.4928
2972.48 20.8411
2972.50 16.7129
2972.53 12.1689
2972.56 9.89432
2972.63 7.81317
2972.69 6.92681
2972.82 6.20618
2972.95 5.92710
2973.20 5.71410
2973.46 5.63569
2973.97 5.57727
2974.48 5.55600
2976.52 5.53385
2980.61 5.52560
2988.79 5.51853
3005.15 5.50729
3021.51 5.49717
3029.69 5.49357
3033.78 5.49683
3035.82 5.51809
3036.33 5.54063
3036.85 5.60397
3037.10 5.69032
3037.36 5.92423
3037.48 6.23256
3037.61 7.03208
3037.68 8.02029
3037.71 8.90972
3037.74 10.3565
3037.77 12.9312
3037.80 18.1316
3037.82 22.9149
3037.84 30.7273
3037.85 44.2388
3037.87 67.6509
3037.88 105.316
3037.90 129.807
3037.92 105.308
3037.93 67.6419
3037.95 44.2305
3037.96 31.3595
3037.98 23.2890
3037.99 18.6124
3038.03 13.2657
3038.06 10.6587
3038.09 9.12428
3038.12 8.20434
3038.18 7.15315
3038.30 6.29107
3038.42 5.95996
3038.67 5.70590
3038.91 5.61227
3039.40 5.54302
3039.89 5.51803
3041.85 5.49254
3045.77 5.48405
3053.60 5.47799
3061.44 5.47356
3065.35 5.47268
3067.31 5.47706
3068.29 5.49765
3068.78 5.57605
3069.03 5.84834
3069.09 6.09050
3069.15 6.66209
3069.18 7.30510
3069.21 8.55939
3069.24 11.7084
3069.25 14.9921
3069.27 21.0509
3069.29 30.5370
3069.30 36.5788
3069.32 30.5342
3069.33 20.9964
3069.35 14.7070
3069.36 11.2403
3069.40 8.27488
3069.43 7.07233
3069.46 6.51113
3069.53 6.00271
3069.60 5.79372
3069.86 5.55903
3070.40 5.49192
3071.46 5.47346
3073.60 5.46766
3077.87 5.46413
3086.40 5.45926
3094.93 5.45534
3099.20 5.45606
3101.34 5.46665
3102.40 5.51102
3102.67 5.55580
3102.94 5.67748
3103.07 5.83937
3103.20 6.25850
3103.27 6.78474
3103.34 8.01941
3103.37 9.44297
3103.40 12.2904
3103.42 15.0477
3103.44 19.3500
3103.45 27.4692
3103.47 42.3199
3103.48 63.8470
3103.50 79.0426
3103.52 63.8222
3103.53 42.1720
3103.54 31.7666
3103.55 24.5110
3103.57 16.6370
3103.60 12.6676
3103.62 10.4511
3103.66 8.19764
3103.70 7.19260
3103.79 6.31991
3103.87 5.97141
3104.04 5.69568
3104.21 5.59190
3104.55 5.51406
3104.89 5.48587
3106.24 5.45745
3108.95 5.44899
3114.36 5.44441
3125.19 5.43843
3146.84 5.42817
3157.67 5.42444
3168.49 5.42451
3173.91 5.42960
3179.32 5.44834
3182.03 5.47515
3184.73 5.54696
3186.09 5.63849
3186.77 5.72389
3187.44 5.86994
3188.12 6.15798
3188.46 6.42496
3188.79 6.88272
3189.13 7.79202
3189.30 8.63769
3189.47 10.0886
3189.64 12.9377
3189.73 15.5699
3189.81 19.9236
3189.89 28.1895
3189.94 35.2824
3189.98 46.3928
3190.02 65.7696
3190.06 101.513
3190.08 132.031
3190.11 178.310
3190.13 250.929
3190.15 369.136
3190.17 583.814
3190.20 718.628
3190.23 572.483
3190.25 354.903
3190.27 250.739
3190.29 180.325
3190.31 134.195
3190.33 104.535
3190.37 66.9416
3190.40 47.1637
3190.44 35.1122
3190.48 27.6533
3190.55 19.0748
3190.63 14.5192
3190.70 11.8776
3190.85 9.15660
3191.00 7.89674
3191.15 7.28263
3191.45 6.96636
3191.75 7.55507
3191.90 8.38054
3192.05 9.96335
3192.20 13.3374
3192.27 16.5551
3192.35 21.9552
3192.42 32.2863
3192.46 41.0924
3192.49 54.7099
3192.53 77.9632
3192.57 118.863
3192.61 199.956
3192.63 272.693
3192.64 378.554
3192.67 609.405
3192.70 765.816
3192.73 620.612
3192.76 392.606
3192.79 232.608
3192.82 149.893
3192.85 103.907
3192.88 76.4555
3192.91 58.5168
3192.94 46.9034
3193.01 32.7822
3193.07 24.7735
3193.13 19.9375
3193.26 14.5240
3193.38 11.6938
3193.50 10.0454
3193.63 8.98205
3193.75 8.26380
3194.00 7.36659
3194.25 6.84665
3194.75 6.29114
3195.25 6.01155
3195.75 5.84905
3196.74 5.67472
3197.74 5.58656
3198.73 5.53530
3200.73 5.48021
3204.71 5.43573
3208.70 5.41739
3216.67 5.40065
3224.63 5.39166
3240.57 5.37940
3256.51 5.36926
3288.39 5.35019
3304.33 5.34082
3312.30 5.33687
3316.28 5.33832
3318.28 5.35314
3319.27 5.41592
3319.52 5.47961
3319.77 5.65383
3319.90 5.88480
3320.02 6.47895
3320.08 7.22687
3320.14 8.96955
3320.18 10.8810
3320.21 14.7178
3320.22 18.3656
3320.24 23.9099
3320.25 34.0764
3320.27 51.1131
3320.28 78.4077
3320.30 96.9337
3320.32 78.4958
3320.33 51.2230
3320.35 35.9234
3320.36 26.0223
3320.37 20.0006
3320.39 16.1773
3320.42 11.8754
3320.44 9.73542
3320.50 7.65501
3320.55 6.77131
3320.66 6.03522
3320.77 5.74913
3321.00 5.52670
3321.22 5.44443
3322.10 5.36035
3323.88 5.33703
3327.42 5.32893
3334.50 5.32292
3348.68 5.31355
3377.02 5.29526
3405.37 5.27929
3412.45 5.27833
3419.54 5.28501
3423.08 5.29882
3426.62 5.34226
3428.40 5.40418
3429.28 5.46615
3430.17 5.57879
3431.05 5.81732
3431.50 6.05161
3431.94 6.47155
3432.16 6.82015
3432.38 7.34096
3432.60 8.17823
3432.83 9.63471
3433.05 12.5450
3433.16 15.2232
3433.27 19.6337
3433.38 27.8220
3433.43 34.6863
3433.49 45.1247
3433.55 62.3826
3433.60 92.0694
3433.66 148.574
3433.68 196.792
3433.71 262.830
3433.76 417.273
3433.80 520.119
3433.85 416.951
3433.89 262.435
3433.93 165.082
3433.98 109.888
3434.02 77.7670
3434.07 58.3594
3434.11 45.3950
3434.15 36.7397
3434.24 25.9340
3434.33 19.7718
3434.41 16.0207
3434.59 11.8342
3434.76 9.67093
3434.94 8.42440
3435.11 7.63409
3435.29 7.10747
3435.64 6.46566
3435.98 6.10577
3436.33 5.88406
3436.68 5.73791
3437.38 5.56330
3438.08 5.46691
3439.47 5.36955
3440.87 5.32350
3442.26 5.29791
3445.06 5.27129
3450.64 5.24935
3456.22 5.23862
3478.55 5.21314
3500.88 5.19391
3506.46 5.19283
3512.05 5.20189
3514.84 5.22093
3517.63 5.28249
3519.02 5.37204
3519.72 5.46260
3520.42 5.62823
3521.12 5.98066
3521.47 6.32721
3521.81 6.94715
3521.99 7.46036
3522.16 8.22272
3522.34 9.44108
3522.51 11.5335
3522.69 15.6374
3522.77 19.3050
3522.86 25.2478
3522.95 35.7593
3522.99 44.4095
3523.04 56.7734
3523.08 76.1600
3523.12 106.732
3523.17 160.025
3523.21 250.727
3523.26 400.212
3523.30 497.304
3523.35 397.479
3523.39 251.646
3523.42 179.650
3523.45 132.901
3523.49 101.379
3523.52 79.6546
3523.58 52.7424
3523.64 38.1014
3523.70 29.1180
3523.77 23.4097
3523.89 16.6969
3524.02 13.1000
3524.14 10.9559
3524.27 9.57720
3524.39 8.63893
3524.64 7.48049
3524.89 6.81951
3525.14 6.40694
3525.39 6.13210
3525.89 5.79983
3526.39 5.61388
3527.39 5.42338
3528.39 5.33188
3529.39 5.28059
3531.39 5.22709
3535.39 5.18423
3539.38 5.16521
3547.38 5.14412
3555.38 5.12903
3571.37 5.10187
3587.36 5.07372
3603.35 5.04256
3619.35 5.00705
3651.33 4.91610
3683.32 4.77729
3699.31 4.67296
3715.30 4.52350
3723.30 4.42049
3731.29 4.28699
3739.29 4.10620
3747.29 3.84639
3751.28 3.66827
3755.28 3.43973
3759.28 3.13608
3763.28 2.71456
3765.28 2.43743
3767.28 2.09790
3769.28 1.67815
3771.27 1.16463
3773.27 0.597807
3774.27 0.383838
3774.77 0.350380
3775.27 0.422772
3775.77 0.689515
3776.02 0.943802
3776.27 1.32110
3776.52 1.87138
3776.77 2.66894
3777.02 3.82705
3777.27 5.51541
3777.52 8.03556
3777.77 11.8710
3778.02 17.8921
3778.27 27.7406
3778.52 44.7362
3778.77 76.1377
3778.90 101.883
3779.02 138.975
3779.15 193.170
3779.27 271.382
3779.49 476.005
3779.70 649.827
3779.92 565.794
3780.13 383.639
3780.28 285.419
3780.44 217.414
3780.59 170.672
3780.75 137.874
3781.05 96.6493
3781.36 72.9311
3781.67 57.9492
3781.98 47.8989
3782.59 35.4917
3783.21 28.3107
3783.82 23.7261
3784.44 20.5767
3785.05 18.2967
3786.28 15.2402
3787.51 13.3056
3788.74 11.9789
3789.97 11.0164
3792.43 9.71856
3794.90 8.88833
3797.36 8.31405
3799.82 7.89524
3804.74 7.33350
3807.20 7.14464
3809.66 7.00694
3810.89 6.96023
3812.12 6.93451
3813.35 6.94196
3814.58 7.01240
3815.20 7.09351
3815.81 7.23260
3816.43 7.47797
3817.04 7.94203
3817.35 8.33793
3817.66 8.93998
3817.97 9.92167
3818.27 11.6600
3818.43 13.0867
3818.58 15.2021
3818.73 18.5276
3818.89 24.1383
3819.04 34.8722
3819.12 44.2791
3819.20 59.1519
3819.27 84.5362
3819.35 132.524
3819.39 174.319
3819.43 236.197
3819.46 332.831
3819.50 487.142
3819.55 773.977
3819.60 967.776
3819.65 773.765
3819.70 486.891
3819.73 362.726
3819.76 273.821
3819.82 167.773
3819.88 112.301
3819.94 80.5987
3820.00 61.0435
3820.06 48.2196
3820.18 33.1550
3820.30 24.8848
3820.42 19.9490
3820.65 14.5410
3820.89 11.8083
3821.13 10.2497
3821.37 9.27290
3821.61 8.61976
3822.09 7.82434
3822.57 7.37586
3823.05 7.09484
3823.53 6.90600
3824.48 6.67049
3825.44 6.52999
3827.35 6.36623
3829.27 6.26758
3831.18 6.19666
3835.01 6.09274
3838.84 6.01397
3842.67 5.94907
3850.32 5.84467
3857.98 5.76245
3865.63 5.69682
3869.46 5.67159
3873.29 5.65978
3875.20 5.67091
3877.11 5.73093
3878.07 5.82874
3878.55 5.93086
3879.03 6.12049
3879.51 6.52950
3879.75 6.93394
3879.99 7.66099
3880.22 9.16498
3880.34 10.6105
3880.46 13.0970
3880.58 18.0179
3880.64 22.4788
3880.70 29.6276
3880.76 42.6128
3880.79 53.3001
3880.82 69.1439
3880.85 93.8437
3880.88 134.702
3880.91 206.642
3880.94 336.317
3880.97 535.974
3881.00 668.370
3881.03 537.437
3881.06 337.585
3881.09 196.060
3881.13 124.523
3881.16 85.4766
3881.19 62.4893
3881.23 47.6565
3881.26 38.1210
3881.32 26.6529
3881.39 20.2396
3881.46 16.4075
3881.59 12.1804
3881.72 10.0138
3881.85 8.77357
3882.12 7.46456
3882.39 6.82387
3882.65 6.46461
3883.18 6.09354
3883.71 5.91373
3884.24 5.81230
3885.30 5.70538
3887.42 5.61798
3889.55 5.57832
3893.79 5.53447
3898.03 5.50493
3906.52 5.45860
3915.01 5.41933
3931.98 5.35077
3948.96 5.28956
3965.93 5.23209
3982.91 5.17612
3999.88 5.12058
4008.37 5.09696
4012.62 5.10632
4013.68 5.12842
4014.74 5.19899
4015.27 5.30080
4015.80 5.58894
4016.06 5.98106
4016.20 6.36533
4016.33 7.04169
4016.46 8.42666
4016.53 9.71798
4016.59 11.9115
4016.66 16.1685
4016.69 19.8596
4016.73 25.6926
4016.76 35.6393
4016.79 54.4133
4016.81 71.0773
4016.83 94.8623
4016.84 134.542
4016.86 193.380
4016.88 306.619
4016.90 382.314
4016.92 307.100
4016.94 193.982
4016.97 111.752
4016.99 70.3490
4017.02 48.3144
4017.04 35.9687
4017.07 27.8994
4017.09 22.5861
4017.14 16.3719
4017.19 12.8954
4017.24 10.8362
4017.34 8.56943
4017.44 7.40805
4017.54 6.74146
4017.73 6.04716
4017.93 5.70796
4018.13 5.51860
4018.52 5.32377
4019.31 5.17728
4020.10 5.12232
4021.68 5.07811
4023.26 5.05835
4029.57 5.02053
4042.20 4.96683
4054.82 4.91185
4067.45 4.85135
4080.08 4.78274
4092.70 4.70272
4099.02 4.65719
4105.33 4.60799
4111.64 4.56410
4113.22 4.56390
4114.80 4.59302
4115.59 4.64865
4116.38 4.82172
4116.77 5.06733
4116.97 5.31076
4117.17 5.74884
4117.36 6.66282
4117.46 7.54113
4117.56 9.05302
4117.66 12.0638
4117.71 14.7738
4117.76 19.2133
4117.81 27.4216
4117.83 34.2823
4117.86 44.1010
4117.88 60.2005
4117.91 86.0639
4117.93 134.463
4117.95 223.493
4117.98 353.649
4118.00 443.238
4118.02 354.223
4118.05 224.207
4118.06 165.009
4118.07 125.161
4118.10 76.3780
4118.13 51.2906
4118.16 37.1136
4118.19 28.4349
4118.22 22.7738
4118.28 16.1173
4118.34 12.5180
4118.39 10.3598
4118.51 8.01519
4118.63 6.83716
4118.74 6.16280
4118.97 5.45904
4119.21 5.11725
4119.44 4.92494
4119.90 4.72597
4120.83 4.57130
4121.75 4.50779
4123.61 4.44546
4125.46 4.40631
4132.88 4.27562
4136.59 4.20342
4140.30 4.12100
4147.72 3.90922
4151.43 3.76738
4155.14 3.58735
4158.84 3.34944
4162.55 3.01796
4164.41 2.79734
4166.26 2.52239
4168.12 2.17127
4169.97 1.71419
4170.90 1.43537
4171.83 1.12287
4172.75 0.792377
4173.68 0.514025
4174.14 0.462580
4174.61 0.568562
4174.84 0.732401
4175.07 1.02052
4175.30 1.49821
4175.53 2.26755
4175.77 3.51410
4176.00 5.55300
4176.23 8.98046
4176.46 14.9635
4176.58 19.6556
4176.69 26.1868
4176.81 35.4951
4176.93 49.1317
4177.04 69.7458
4177.16 101.972
4177.27 153.875
4177.39 237.182
4177.54 416.161
4177.70 568.399
4177.86 495.171
4178.01 335.955
4178.18 215.189
4178.36 147.035
4178.53 107.414
4178.70 82.9398
4178.87 66.6736
4179.04 55.3728
4179.39 41.0720
4179.73 32.5715
4180.07 27.0755
4180.76 20.4940
4181.45 16.7722
4182.13 14.4124
4182.82 12.7955
4183.51 11.6242
4184.88 10.0485
4186.26 9.04188
4187.63 8.34486
4189.00 7.83430
4191.75 7.13480
4194.50 6.67689
4197.25 6.35163
4199.99 6.10705
4205.49 5.75845
4210.98 5.51555
4221.97 5.17960
4232.96 4.93377
4243.95 4.72284
4254.94 4.52604
4257.69 4.48271
4260.44 4.45522
4261.81 4.46383
4263.19 4.53636
4263.87 4.65900
4264.56 5.02087
4264.91 5.51687
4265.08 5.99892
4265.25 6.84190
4265.42 8.54069
4265.51 10.1142
4265.59 12.7124
4265.68 17.5872
4265.72 21.7546
4265.76 28.1754
4265.81 38.7347
4265.85 57.6016
4265.89 94.8315
4265.91 126.109
4265.93 172.679
4265.97 272.952
4266.00 341.225
4266.03 273.065
4266.07 172.822
4266.09 121.022
4266.11 87.9751
4266.14 66.2970
4266.16 51.6856
4266.21 33.9518
4266.26 24.5851
4266.31 18.9052
4266.36 15.3551
4266.45 11.2165
4266.55 9.02359
4266.65 7.72605
4266.84 6.33797
4267.03 5.64327
4267.23 5.24976
4267.61 4.83910
4268.39 4.52805
4269.16 4.41708
4269.94 4.38166
4270.71 4.43063
4271.10 4.54256
4271.49 4.88620
4271.68 5.36141
4271.78 5.82351
4271.87 6.62561
4271.97 8.24070
4272.02 9.74828
4272.07 12.2093
4272.12 16.8506
4272.14 20.7115
4272.16 26.5836
4272.19 36.0692
4272.21 52.5867
4272.24 83.9727
4272.25 110.181
4272.26 150.456
4272.28 236.290
4272.30 296.769
4272.32 236.631
4272.34 150.505
4272.36 92.0677
4272.38 61.1235
4272.40 43.3932
4272.42 32.5936
4272.44 25.6232
4272.46 20.8973
4272.50 15.1213
4272.54 11.8785
4272.58 9.88501
4272.66 7.66856
4272.74 6.53061
4272.82 5.87005
4272.98 5.17163
4273.30 4.63153
4273.62 4.42683
4274.26 4.26311
4274.90 4.19254
4276.19 4.11905
4277.47 4.07107
4282.59 3.92016
4287.72 3.77092
4292.85 3.60810
4303.10 3.21766
4313.35 2.69498
4318.48 2.35924
4323.60 1.95504
4328.73 1.46602
4333.86 0.887966
4336.42 0.581056
4338.98 0.299803
4340.27 0.192394
4341.55 0.132825
4342.19 0.131302
4342.83 0.156825
4343.47 0.218022
4344.11 0.326201
4344.75 0.497224
4345.39 0.752191
4346.03 1.12050
4346.67 1.64350
4347.32 2.38040
4347.96 3.41769
4348.60 4.88472
4349.24 6.97622
4349.88 10.0128
4350.52 14.5078
4351.16 21.3438
4351.80 32.0836
4352.44 49.7509
4353.08 80.3067
4353.72 136.095
4354.36 240.796
4355.03 427.626
4355.70 589.853
4356.37 518.561
4357.04 354.672
4357.48 270.774
4357.93 210.869
4358.82 137.893
4359.71 98.5441
4360.59 75.2596
4361.48 60.3517
4362.37 50.1958
4364.15 37.5341
4365.93 30.1219
4367.71 25.3413
4369.48 22.0376
4371.26 19.6357
4374.82 16.3988
4378.37 14.3367
4381.93 12.9158
4385.48 11.8808
4392.59 10.4781
4399.70 9.57395
4406.81 8.94309
4413.92 8.47777
4428.15 7.83579
4442.37 7.41183
4456.59 7.10877
4470.81 6.87947
4499.25 6.54991
4527.69 6.31650
4541.92 6.22075
4556.14 6.13580
4563.25 6.09906
4570.36 6.07388
4573.91 6.07630
4575.69 6.08917
4577.47 6.12133
4579.25 6.20205
4580.14 6.28744
4581.02 6.44639
4581.47 6.58155
4581.91 6.78745
4582.36 7.12389
4582.80 7.72379
4583.02 8.22023
4583.25 8.95746
4583.47 10.1249
4583.69 12.1322
4583.91 16.0178
4584.02 19.4833
4584.13 25.0639
4584.25 34.8469
4584.36 54.1335
4584.41 71.6109
4584.47 98.8950
4584.52 145.255
4584.58 223.523
4584.64 353.690
4584.70 441.572
4584.76 354.007
4584.82 223.925
4584.88 143.510
4584.94 97.3687
4584.99 70.0015
4585.05 52.9222
4585.16 34.0046
4585.28 24.4712
4585.39 19.0532
4585.51 15.6959
4585.73 11.9369
4585.96 9.98946
4586.19 8.86187
4586.42 8.14826
4586.65 7.66816
4587.10 7.08099
4587.56 6.75007
4588.02 6.54440
4588.47 6.40748
4589.39 6.24099
4590.30 6.14637
4592.12 6.04527
4593.95 5.99189
4595.77 5.95769
4599.42 5.91245
4606.73 5.85118
4614.03 5.79912
4628.63 5.69303
4643.23 5.56577
4657.84 5.38831
4665.14 5.26113
4672.44 5.08337
4676.09 4.96263
4679.74 4.80749
4683.39 4.59910
4687.04 4.30218
4688.87 4.09989
4690.69 3.84199
4692.52 3.50171
4694.34 3.03474
4695.26 2.73121
4696.17 2.36393
4697.08 1.91853
4698.00 1.39300
4698.91 0.862871
4699.36 0.719451
4699.82 0.911933
4700.05 1.31409
4700.28 2.14093
4700.39 2.81904
4700.51 3.76844
4700.62 5.10366
4700.73 6.99922
4700.85 9.72886
4700.96 13.7368
4701.08 19.7718
4701.19 29.1532
4701.30 44.3173
4701.42 69.9752
4701.53 115.457
4701.65 197.937
4701.77 354.358
4701.90 491.118
4702.03 433.467
4702.16 298.261
4702.29 194.522
4702.43 135.342
4702.57 100.193
4702.71 78.3041
4702.85 63.6224
4702.99 53.4204
4703.26 40.3482
4703.54 32.4932
4703.82 27.3766
4704.37 21.1904
4704.92 17.6563
4705.47 15.3980
4706.03 13.8414
4706.58 12.7082
4707.69 11.1758
4708.79 10.1920
4709.90 9.50876
4711.00 9.00742
4713.22 8.32167
4715.43 7.87486
4717.64 7.56057
4719.85 7.32740
4724.28 7.00497
4726.49 6.88997
4728.70 6.79715
4730.91 6.72585
4733.13 6.68847
4734.23 6.70351
4735.34 6.80506
4735.89 6.96978
4736.44 7.44693
4736.72 8.09596
4736.86 8.72220
4737.00 9.82216
4737.14 12.0467
4737.20 14.0958
4737.27 17.5322
4737.34 23.9375
4737.38 29.5266
4737.41 37.9174
4737.45 52.2114
4737.48 77.2052
4737.50 98.8938
4737.52 128.741
4737.53 172.687
4737.55 237.234
4737.58 378.367
4737.60 467.486
4737.63 372.182
4737.65 236.734
4737.68 144.322
4737.71 94.2944
4737.73 66.2050
4737.76 49.8491
4737.79 38.9284
4737.81 31.6022
4737.87 22.8679
4737.92 17.9067
4737.97 14.9318
4738.08 11.6068
4738.19 9.91197
4738.29 8.93394
4738.51 7.90737
4738.72 7.40715
4738.94 7.12563
4739.36 6.83457
4740.22 6.61049
4741.07 6.52015
4742.79 6.43516
4744.50 6.38678
4747.92 6.31973
4751.34 6.26789
4758.19 6.18531
4765.03 6.12023
4771.88 6.06844
4778.72 6.03362
4782.15 6.03175
4785.57 6.07027
4787.28 6.14436
4788.14 6.22410
4788.99 6.37419
4789.85 6.70032
4790.27 7.02520
4790.70 7.61054
4790.92 8.09844
4791.13 8.83308
4791.34 10.0121
4791.56 12.0779
4791.77 16.1946
4791.88 19.9812
4791.99 26.2831
4792.09 37.8858
4792.15 47.8122
4792.20 62.6577
4792.25 87.1701
4792.31 129.174
4792.36 208.714
4792.39 276.314
4792.41 369.689
4792.46 587.452
4792.50 734.270
4792.54 588.369
4792.59 370.425
4792.62 268.646
4792.65 199.688
4792.70 120.048
4792.76 79.7225
4792.82 57.1507
4792.88 43.4184
4792.94 34.4992
4793.05 24.0544
4793.17 18.3915
4793.29 15.0400
4793.52 11.4043
4793.75 9.57454
4793.98 8.53377
4794.21 7.88290
4794.45 7.44865
4794.91 6.92180
4795.38 6.62648
4796.31 6.32282
4797.24 6.17570
4798.16 6.09217
4800.02 6.00273
4803.74 5.92546
4807.46 5.88644
4814.90 5.83705
4822.33 5.79955
4837.20 5.73568
4852.07 5.67773
4881.82 5.56677
4896.69 5.51220
4904.12 5.49226
4907.84 5.51216
4908.77 5.54270
4909.70 5.63294
4910.16 5.75790
4910.63 6.10103
4910.86 6.56046
4910.98 7.00132
4911.09 7.77392
4911.21 9.31814
4911.27 10.7456
4911.33 13.1373
4911.38 17.5916
4911.41 21.4083
4911.44 27.3056
4911.47 37.0482
4911.50 54.5870
4911.51 69.4906
4911.53 89.6458
4911.54 121.667
4911.56 166.958
4911.58 265.141
4911.60 327.532
4911.62 264.695
4911.64 166.018
4911.66 121.127
4911.67 89.1522
4911.69 67.8692
4911.70 53.3727
4911.73 35.8611
4911.76 26.5241
4911.79 20.6965
4911.82 16.9635
4911.88 12.7043
4911.94 10.3943
4912.00 9.04698
4912.12 7.58376
4912.24 6.85738
4912.36 6.44557
4912.59 6.02088
4913.07 5.70592
4913.55 5.59352
4914.50 5.51531
4915.45 5.49709
4916.40 5.51271
4917.35 5.59987
4917.83 5.73603
4918.30 6.13203
4918.54 6.67568
4918.66 7.20622
4918.78 8.14468
4918.90 10.0363
4918.96 11.8122
4919.02 14.7454
4919.08 20.3141
4919.11 25.1077
4919.14 32.2279
4919.17 44.3104
4919.20 65.0339
4919.23 106.993
4919.24 143.231
4919.25 191.878
4919.28 304.601
4919.30 380.457
4919.32 306.293
4919.35 193.993
4919.37 129.028
4919.39 89.7294
4919.41 65.6294
4919.43 50.8394
4919.47 33.0173
4919.50 24.0240
4919.54 18.6808
4919.58 15.4124
4919.66 11.6476
4919.74 9.67794
4919.82 8.52039
4919.98 7.28836
4920.14 6.67181
4920.29 6.32256
4920.61 5.95654
4921.24 5.67634
4921.87 5.56971
4923.13 5.48467
4924.39 5.44874
4929.43 5.39268
4939.51 5.33453
4949.59 5.28128
4959.67 5.22533
4979.84 5.09757
5000.00 4.93706
5014.38 4.79143
5028.77 4.60585
5043.15 4.35838
5057.54 4.00817
5064.73 3.77107
5071.92 3.47012
5079.11 3.07588
5086.30 2.53988
5089.90 2.19551
5093.50 1.78383
5097.09 1.29424
5100.69 0.737542
5102.49 0.461435
5104.28 0.238741
5105.18 0.177837
5106.08 0.182125
5106.98 0.294406
5107.88 0.586805
5108.33 0.837046
5108.78 1.18531
5109.23 1.66552
5109.68 2.32022
5110.13 3.21543
5110.58 4.43734
5111.03 6.12378
5111.48 8.46502
5111.93 11.7767
5112.37 16.5268
5112.82 23.5301
5113.27 34.1023
5113.72 50.6777
5114.17 77.5284
5114.62 122.654
5115.07 199.448
5115.64 358.205
5116.20 499.513
5116.77 443.354
5117.33 305.918
5117.92 203.958
5118.50 143.691
5119.09 107.407
5119.68 84.3419
5120.26 68.7964
5120.85 57.8356
5122.02 43.7215
5123.20 35.2159
5124.37 29.6454
5126.72 22.9328
5129.07 19.1804
5130.24 17.9427
5131.41 17.0606
5132.59 16.6264
5133.17 16.7013
5133.76 17.1795
5134.35 18.5636
5134.64 20.0175
5134.93 22.6008
5135.23 27.6608
5135.37 32.1354
5135.52 39.1588
5135.67 51.1676
5135.81 73.4374
5135.89 92.5377
5135.96 120.795
5136.03 164.291
5136.11 231.447
5136.20 363.283
5136.30 450.217
5136.40 362.316
5136.50 231.978
5136.56 168.477
5136.63 126.523
5136.70 98.3224
5136.76 78.9372
5136.90 55.2584
5137.03 42.1355
5137.17 34.1463
5137.30 29.0129
5137.57 22.9878
5137.84 19.7016
5138.11 17.7121
5138.64 15.4740
5139.18 14.2696
5139.72 13.5140
5140.79 12.5893
5141.86 12.0074
5142.94 11.5810
5145.09 10.9540
5147.23 10.4853
5149.38 10.1080
5153.68 9.52223
5157.97 9.08102
5162.27 8.73385
5170.86 8.21964
5179.45 7.85556
5188.04 7.58340
5205.22 7.20209
5222.40 6.94607
5239.58 6.76117
5248.17 6.68695
5256.76 6.62366
5261.05 6.59805
5265.35 6.58391
5267.49 6.59135
5269.64 6.63980
5270.71 6.72034
5271.79 6.96068
5272.33 7.29616
5272.59 7.62862
5272.86 8.22342
5273.13 9.45816
5273.27 10.6348
5273.40 12.6755
5273.53 16.6784
5273.60 20.2985
5273.67 26.2148
5273.73 36.8135
5273.77 45.6867
5273.80 58.4449
5273.84 78.9452
5273.87 111.828
5273.90 171.528
5273.94 276.806
5273.97 442.018
5274.00 548.015
5274.03 437.386
5274.07 277.683
5274.10 177.116
5274.13 120.672
5274.16 86.9147
5274.19 65.7073
5274.25 42.0575
5274.31 30.0599
5274.37 23.2112
5274.43 18.9541
5274.55 14.1730
5274.67 11.6964
5274.79 10.2518
5275.03 8.72039
5275.27 7.96759
5275.51 7.54223
5275.99 7.10291
5276.95 6.77208
5277.91 6.64829
5279.83 6.55018
5281.75 6.50797
5285.59 6.46404
5289.43 6.43577
5297.11 6.39215
5304.79 6.35517
5320.15 6.29071
5335.52 6.23443
5366.24 6.13811
5381.61 6.09577
5389.29 6.07593
5393.13 6.06742
5395.05 6.06820
5396.01 6.08841
5396.49 6.17284
5396.73 6.46976
5396.85 7.35932
5396.91 9.41825
5396.94 12.7038
5396.95 16.1788
5396.97 22.2720
5396.99 32.3479
5397.00 38.5237
5397.02 31.7280
5397.03 22.3340
5397.05 14.3692
5397.08 10.8219
5397.12 8.17039
5397.20 6.79878
5397.38 6.27862
5397.72 6.11661
5398.42 6.06951
5399.80 6.05380
5402.57 6.04365
5408.10 6.02928
5419.16 6.00278
5441.30 5.95238
5463.43 5.90407
5474.50 5.88158
5480.03 5.87650
5482.80 5.90007
5483.49 5.92968
5484.18 6.01645
5484.52 6.13733
5484.87 6.47225
5485.04 6.91902
5485.22 8.09615
5485.30 9.58899
5485.35 10.9377
5485.39 13.1583
5485.43 17.1804
5485.45 20.6203
5485.48 25.5390
5485.50 33.7054
5485.52 46.8662
5485.54 71.9487
5485.56 117.223
5485.58 186.028
5485.60 228.980
5485.62 182.675
5485.64 117.610
5485.65 84.4158
5485.67 62.4907
5485.68 47.9972
5485.70 38.1712
5485.72 26.3496
5485.75 20.0779
5485.78 16.1570
5485.81 13.6469
5485.86 10.7852
5485.97 8.32128
5486.08 7.33759
5486.30 6.55878
5486.53 6.26651
5486.97 6.04557
5487.41 5.96427
5489.18 5.87926
5492.72 5.84977
5499.80 5.82843
5506.89 5.81199
5510.43 5.80506
5512.20 5.80572
5513.08 5.82242
5513.53 5.89204
5513.75 6.13397
5513.86 6.84986
5513.91 8.43801
5513.94 10.9208
5513.97 17.5179
5513.99 24.7254
5514.00 29.2565
5514.02 24.7686
5514.03 17.5344
5514.06 10.6982
5514.09 8.31445
5514.15 6.77724
5514.27 6.11318
5514.50 5.88681
5514.97 5.81904
5515.91 5.79855
5517.78 5.78941
5521.53 5.77979
5529.04 5.76359
5536.54 5.75436
5540.29 5.78142
5541.23 5.81716
5542.17 5.92308
5542.64 6.07086
5543.11 6.47964
5543.34 7.02440
5543.57 8.44237
5543.69 10.2037
5543.75 11.8108
5543.81 14.3871
5543.87 19.0718
5543.93 28.4166
5543.96 37.3867
5543.98 51.6885
5544.01 76.5219
5544.04 120.908
5544.07 190.241
5544.10 236.647
5544.13 190.678
5544.16 121.456
5544.18 88.2047
5544.20 66.7815
5544.22 51.4950
5544.24 41.4582
5544.28 28.7439
5544.31 21.6659
5544.35 17.3754
5544.39 14.5957
5544.47 11.3778
5544.55 9.61946
5544.62 8.58083
5544.78 7.44489
5545.09 6.54688
5545.40 6.20743
5546.02 5.94966
5546.64 5.85409
5547.88 5.78105
5549.12 5.75252
5554.09 5.71443
5564.02 5.68253
5583.88 5.62839
5603.74 5.57085
5623.61 5.50664
5643.47 5.43296
5663.33 5.34610
5673.26 5.29612
5683.19 5.24073
5693.12 5.18011
5698.09 5.15486
5700.57 5.17599
5701.19 5.21258
5701.81 5.32422
5702.12 5.48128
5702.43 5.91147
5702.59 6.47517
5702.74 7.91643
5702.82 9.67581
5702.90 13.6455
5702.94 17.8968
5702.98 26.0839
5703.00 33.4603
5703.02 44.2955
5703.03 61.4833
5703.05 88.9728
5703.08 140.621
5703.10 173.298
5703.12 138.695
5703.15 89.4282
5703.16 66.7046
5703.18 50.9622
5703.21 32.9082
5703.24 23.4295
5703.26 17.9919
5703.32 12.4132
5703.38 9.78880
5703.50 7.48243
5703.61 6.54505
5703.85 5.79542
5704.08 5.50864
5704.55 5.28900
5705.01 5.20569
5706.88 5.10980
5710.60 5.05681
5718.06 4.98369
5725.51 4.90736
5729.24 4.86677
5731.11 4.84921
5732.04 4.85472
5732.50 4.91167
5732.74 5.12537
5732.85 5.76345
5732.91 7.22036
5732.94 9.50499
5732.97 16.1090
5732.99 23.0382
5733.00 27.3853
5733.02 23.0579
5733.03 16.0971
5733.05 11.2072
5733.07 8.75564
5733.10 6.64050
5733.18 5.47677
5733.33 5.01815
5733.62 4.86937
5734.21 4.82082
5735.40 4.79471
5737.77 4.76072
5742.50 4.69345
5747.24 4.62077
5749.60 4.58469
5750.79 4.57806
5751.38 4.62099
5751.67 4.80690
5751.82 5.41052
5751.90 6.95684
5751.93 9.76992
5751.95 13.0244
5751.97 19.3923
5751.99 28.6255
5752.00 34.2828
5752.02 28.0407
5752.03 19.4283
5752.05 12.8128
5752.07 9.54616
5752.11 6.84930
5752.18 5.37944
5752.33 4.79091
5752.64 4.59892
5753.24 4.53482
5754.45 4.49772
5756.86 4.44639
5761.69 4.34145
5771.34 4.08895
5780.99 3.75265
5790.65 3.28268
5795.47 2.97088
5800.30 2.58482
5805.13 2.09895
5809.95 1.48334
5812.37 1.12204
5814.78 0.736007
5817.20 0.366128
5818.40 0.222107
5819.61 0.148475
5820.82 0.213214
5821.42 0.335028
5822.02 0.549198
5822.63 0.895446
5823.23 1.43028
5823.83 2.24138
5824.44 3.46433
5825.04 5.32027
5825.64 8.16481
5826.25 12.6264
5826.85 19.8431
5827.45 32.0256
5828.06 53.5801
5828.66 93.9078
5828.96 126.600
5829.26 171.771
5829.88 311.906
5830.50 438.865
5831.12 392.709
5831.74 273.081
5832.38 183.735
5833.02 130.514
5833.66 98.1930
5834.30 77.5377
5834.94 63.5599
5835.58 53.6818
5836.86 40.8819
5838.13 33.1310
5839.41 28.0218
5841.97 21.8058
5844.53 18.2242
5847.09 15.9218
5849.65 14.3276
5852.20 13.1634
5857.32 11.5825
5862.43 10.5638
5864.99 10.1806
5867.55 9.85756
5870.11 9.59218
5871.39 9.52244
5872.03 9.67346
5872.19 9.86439
5872.35 10.3915
5872.43 11.0670
5872.51 12.7193
5872.55 14.6070
5872.59 18.5946
5872.61 22.4453
5872.63 29.0760
5872.65 41.4468
5872.67 65.4072
5872.68 99.2141
5872.70 121.396
5872.72 99.2741
5872.73 65.3168
5872.75 45.1515
5872.77 33.1313
5872.78 25.9961
5872.80 21.7676
5872.83 16.7162
5872.86 14.2406
5872.92 11.9032
5872.99 10.8970
5873.11 10.0679
5873.24 9.73876
5873.49 9.47355
5873.74 9.36219
5874.75 9.18903
5876.76 9.01216
5880.79 8.73985
5884.82 8.51498
5888.85 8.32392
5892.88 8.15943
5896.91 8.01663
5900.94 7.89451
5902.95 7.85352
5903.96 7.89094
5904.46 8.12062
5904.59 8.35115
5904.72 8.95277
5904.78 9.69558
5904.84 11.4413
5904.87 13.3898
5904.90 17.1551
5904.94 25.9504
5904.95 35.4161
5904.97 51.6954
5904.98 77.3406
5905.00 95.5704
5905.02 77.4124
5905.03 51.6514
5905.05 35.4969
5905.07 26.0197
5905.08 20.4664
5905.10 17.0328
5905.13 13.2643
5905.16 11.3816
5905.23 9.66009
5905.29 8.92630
5905.42 8.32763
5905.54 8.09481
5906.06 7.83947
5907.08 7.74792
5909.12 7.68137
5913.20 7.58624
5917.29 7.50366
5921.38 7.42930
5937.72 7.19083
5954.06 7.01685
5970.40 6.88396
5986.74 6.77891
6003.08 6.69365
6019.42 6.62324
6027.60 6.59382
6031.68 6.58593
6033.72 6.60533
6034.74 6.70380
6035.00 6.80490
6035.26 7.07964
6035.38 7.44159
6035.51 8.36494
6035.57 9.50242
6035.64 12.1597
6035.67 15.0452
6035.70 20.7608
6035.72 25.9053
6035.73 34.1130
6035.75 47.8412
6035.77 69.3248
6035.78 108.130
6035.80 132.096
6035.82 105.842
6035.84 69.3331
6035.85 44.6867
6035.87 31.1073
6035.89 23.3789
6035.91 18.6981
6035.94 13.6592
6035.98 11.2366
6036.05 8.97622
6036.12 8.03745
6036.26 7.27205
6036.41 6.97856
6036.69 6.75350
6036.98 6.67015
6038.12 6.58378
6040.40 6.55489
6044.96 6.53496
6054.09 6.50635
6072.33 6.45748
6090.58 6.41544
6108.83 6.37877
6127.08 6.34665
6145.33 6.31901
6163.58 6.29983
6168.14 6.30033
6172.71 6.31225
6174.99 6.33331
6177.27 6.39634
6178.41 6.48420
6179.55 6.72822
6180.12 7.05835
6180.41 7.37976
6180.69 7.95148
6180.98 9.12229
6181.12 10.2390
6181.26 12.1535
6181.40 15.9192
6181.47 19.2906
6181.55 24.7744
6181.62 34.7276
6181.65 42.9344
6181.69 54.7112
6181.72 73.5135
6181.76 103.538
6181.80 157.500
6181.83 251.814
6181.87 398.815
6181.90 496.535
6181.94 398.130
6181.97 250.960
6182.01 152.804
6182.04 99.6314
6182.08 69.7613
6182.12 52.2208
6182.15 40.6518
6182.19 33.0612
6182.26 23.6832
6182.34 18.4509
6182.41 15.2500
6182.56 11.7110
6182.70 9.90671
6182.85 8.86618
6183.14 7.77630
6183.43 7.24661
6183.72 6.95206
6184.31 6.65221
6185.48 6.43263
6186.65 6.35434
6188.98 6.29696
6191.32 6.27555
6200.67 6.24822
6219.37 6.22773
6228.72 6.22301
6238.07 6.22909
6242.75 6.24671
6245.08 6.26697
6247.42 6.30632
6249.76 6.39396
6250.93 6.48281
6252.10 6.64574
6252.68 6.78348
6253.26 6.99326
6253.85 7.33646
6254.43 7.95180
6254.73 8.46350
6255.02 9.22897
6255.31 10.4520
6255.60 12.5828
6255.89 16.7936
6256.04 20.6331
6256.19 26.9646
6256.33 38.4634
6256.41 48.0547
6256.48 62.4675
6256.55 85.3606
6256.62 124.254
6256.70 195.436
6256.77 331.787
6256.84 527.504
6256.90 658.251
6256.97 528.116
6257.03 332.562
6257.09 212.949
6257.15 143.532
6257.21 102.376
6257.27 76.7034
6257.40 48.2824
6257.52 34.0542
6257.64 25.8877
6257.76 20.8318
6258.00 15.1922
6258.25 12.2673
6258.49 10.5721
6258.73 9.49908
6258.98 8.77723
6259.46 7.89517
6259.95 7.39904
6260.44 7.09128
6260.92 6.88792
6261.90 6.64301
6262.87 6.50687
6264.82 6.36776
6266.76 6.30099
6268.71 6.26338
6272.60 6.22364
6280.39 6.19034
6288.17 6.17432
6303.74 6.15511
6319.31 6.14128
6334.89 6.12988
6350.46 6.12141
6358.24 6.12021
6366.03 6.12740
6369.92 6.14268
6373.81 6.19185
6375.76 6.26325
6376.73 6.33542
6377.71 6.46781
6378.68 6.75007
6379.17 7.02912
6379.65 7.52983
6379.90 7.94702
6380.14 8.57149
6380.38 9.57088
6380.62 11.3161
6380.87 14.7984
6380.99 17.9965
6381.11 23.2538
6381.23 32.9618
6381.29 41.1462
6381.35 53.3240
6381.42 73.1896
6381.48 107.593
6381.54 172.343
6381.60 299.649
6381.65 477.008
6381.70 593.958
6381.75 477.562
6381.80 300.349
6381.83 223.407
6381.87 170.080
6381.93 105.180
6381.99 71.1923
6382.05 51.7507
6382.12 39.7493
6382.18 31.8741
6382.31 22.6132
6382.43 17.5271
6382.56 14.4692
6382.81 11.1485
6383.06 9.46893
6383.31 8.51054
6383.56 7.91034
6383.81 7.50971
6384.32 7.02394
6384.82 6.75271
6385.82 6.47496
6386.83 6.34249
6387.83 6.26899
6389.84 6.19385
6393.87 6.13712
6397.89 6.11514
6405.93 6.09640
6409.95 6.09261
6411.96 6.09690
6412.96 6.12193
6413.47 6.22073
6413.72 6.56694
6413.84 7.61885
6413.91 10.1024
6413.94 14.0591
6413.95 18.4551
6413.97 26.0562
6413.98 37.8575
6414.00 46.0905
6414.02 37.9358
6414.03 26.1531
6414.05 19.3021
6414.06 15.2507
6414.08 11.0577
6414.14 8.11983
6414.24 6.76138
6414.46 6.28451
6414.88 6.14136
6415.72 6.10092
6417.42 6.08904
6420.80 6.08493
6424.18 6.08694
6425.88 6.09969
6426.72 6.14706
6427.15 6.31666
6427.36 6.88254
6427.46 8.49403
6427.52 11.9733
6427.54 16.9240
6427.56 21.6906
6427.57 29.4919
6427.58 43.4007
6427.60 52.7939
6427.62 43.3142
6427.63 29.3841
6427.65 18.7486
6427.67 13.6671
6427.71 9.48207
6427.79 7.28742
6427.96 6.44268
6428.28 6.17957
6428.93 6.10734
6430.22 6.09009
6432.82 6.09081
6438.00 6.12427
6440.59 6.18091
6441.89 6.24123
6443.19 6.35564
6444.48 6.60746
6445.13 6.86145
6445.78 7.32524
6446.10 7.71424
6446.43 8.30342
6446.75 9.25478
6447.07 10.9326
6447.40 14.2998
6447.56 17.4139
6447.72 22.6198
6447.88 32.2557
6447.97 40.4447
6448.05 52.9761
6448.13 73.3769
6448.21 109.266
6448.29 178.392
6448.33 237.624
6448.37 320.441
6448.44 510.654
6448.50 638.763
6448.57 513.742
6448.63 324.309
6448.68 232.873
6448.72 171.480
6448.77 130.303
6448.81 102.580
6448.90 68.1941
6448.99 49.1110
6449.08 37.5610
6449.17 30.0829
6449.34 21.3465
6449.52 16.6462
6449.70 13.8342
6449.88 12.0197
6450.06 10.7810
6450.41 9.24485
6450.77 8.36319
6451.12 7.80976
6451.48 7.43908
6452.19 6.98714
6452.90 6.73214
6454.33 6.46735
6455.75 6.33819
6457.18 6.26486
6460.03 6.18756
6462.88 6.14873
6465.72 6.12584
6471.42 6.10013
6482.82 6.07626
6494.21 6.06356
6517.01 6.04743
6539.80 6.03557
6585.38 6.01641
6608.17 6.00806
6619.57 6.00427
6625.27 6.00335
6628.12 6.00704
6629.54 6.02588
6630.25 6.10095
6630.61 6.37365
6630.79 7.25021
6630.88 9.53534
6630.92 13.9119
6630.94 19.2798
6630.97 31.0131
6630.98 46.2057
6631.00 56.1371
6631.02 46.2939
6631.03 31.1240
6631.06 20.0891
6631.08 14.5259
6631.12 9.99811
6631.20 7.45120
6631.37 6.44939
6631.70 6.12735
6632.36 6.03477
6633.68 6.00908
6636.32 6.00136
6641.60 5.99772
6652.16 5.99378
6673.28 5.98711
6715.52 5.97492
6800.00 5.95345
6800.00 7.39781
7000.00 7.36925
8000.00 7.29055
9000.00 7.25133
10000.0 7.22772
15000.0 7.16732
20000.0 7.19265
30000.0 7.37353
40000.0 7.46537
50000.0 7.50105
60000.0 7.50538
70000.0 7.50123
80000.0 7.48851
90000.0 7.46980
100000 7.44485
150000 7.29280
200000 7.19536
250000 7.14704
300000 7.10376
350000 7.06688
377241 7.04802
377241 7.04802
400000 7.03279
450000 7.00073
500000 6.96881
550000 6.93591
600000 6.89918
650000 6.85753
700000 6.81219
750000 6.76558
800000 6.71598
821087 6.69399
821087 6.69399
850000 6.66167
900000 6.60108
929099 6.56240
929100 6.56240
950000 6.53344
955399 6.52600
955399 6.52600
1.00000E+06 6.46846
1.10000E+06 6.37930
1.18141E+06 6.30532
1.18142E+06 6.30532
1.20000E+06 6.28391
1.22334E+06 6.25576
1.22334E+06 6.25576
1.22556E+06 6.25309
1.22556E+06 6.25309
1.30000E+06 6.16505
1.32101E+06 6.14091
1.32101E+06 6.14091
1.40000E+06 6.05404
1.41106E+06 6.04244
1.41106E+06 6.04244
1.48356E+06 5.96894
1.48356E+06 5.96894
1.50000E+06 5.95285
1.58838E+06 5.86951
1.58838E+06 5.86951
1.60000E+06 5.85891
1.65606E+06 5.80895
1.65606E+06 5.80895
1.70000E+06 5.77096
1.73485E+06 5.73980
1.73485E+06 5.73980
1.80000E+06 5.67546
1.90000E+06 5.56746
1.90702E+06 5.55965
1.90702E+06 5.55965
1.91758E+06 5.54790
1.91758E+06 5.54789
1.95221E+06 5.50920
1.95222E+06 5.50920
2.00000E+06 5.45590
2.05638E+06 5.39363
2.05638E+06 5.39363
2.10000E+06 5.34602
2.11140E+06 5.33367
2.11140E+06 5.33367
2.14481E+06 5.29775
2.14481E+06 5.29775
2.15459E+06 5.28730
2.15460E+06 5.28729
2.16015E+06 5.28138
2.16015E+06 5.28138
2.16136E+06 5.28010
2.16136E+06 5.28009
2.20000E+06 5.23929
2.21313E+06 5.22557
2.21313E+06 5.22557
2.29689E+06 5.13978
2.29689E+06 5.13978
2.30000E+06 5.13665
2.40000E+06 5.03870
2.50000E+06 4.94579
2.60000E+06 4.85311
2.70000E+06 4.75981
2.80000E+06 4.67104
2.90000E+06 4.59055
3.00000E+06 4.52105
3.10000E+06 4.46491
3.20000E+06 4.42025
3.50000E+06 4.32543
4.00000E+06 4.21650
4.48469E+06 4.15427
4.48470E+06 4.15427
4.50000E+06 4.15311
4.66507E+06 4.14362
4.66508E+06 4.14362
5.00000E+06 4.13489
5.50000E+06 4.13723
6.00000E+06 4.16583
6.50000E+06 4.18201
7.00000E+06 4.21788
7.50000E+06 4.26709
8.00000E+06 4.32779
8.46543E+06 4.36389
8.46543E+06 4.36389
8.50000E+06 4.36662
8.67352E+06 4.38087
8.67352E+06 4.38087
8.84286E+06 4.39478
8.84286E+06 4.39478
8.89225E+06 4.39869
8.89225E+06 4.39869
8.89584E+06 4.39897
8.89585E+06 4.39897
9.00000E+06 4.40681
9.03662E+06 4.40939
9.03663E+06 4.40939
9.50000E+06 4.43514
1.00000E+07 4.45549
1.05000E+07 4.48218
1.07104E+07 4.48996
1.10000E+07 4.49653
1.15000E+07 4.49766
1.20000E+07 4.48673
1.25000E+07 4.46972
1.30000E+07 4.44563
1.30278E+07 4.44399
1.30278E+07 4.44399
1.35000E+07 4.40931
1.40000E+07 4.36618
1.45000E+07 4.33553
1.50000E+07 4.29965
1.51021E+07 4.29185
1.51022E+07 4.29184
1.55000E+07 4.26050
1.60000E+07 4.21805
1.65000E+07 4.16631
1.65513E+07 4.16083
1.70000E+07 4.11283
1.75000E+07 4.06098
1.80000E+07 4.01019
1.85000E+07 3.96022
1.87964E+07 3.93150
1.90000E+07 3.91217
1.95000E+07 3.86618
2.00000E+07 3.82181
2.10000E+07 3.73484
2.20000E+07 3.65162
2.30000E+07 3.57016
2.40000E+07 3.48843
2.44071E+07 3.45099
2.50000E+07 3.39663
2.60000E+07 3.31336
2.70000E+07 3.25863
2.80000E+07 3.22118
2.90000E+07 3.19788
3.00000E+07 3.18759