Pd-108(n,tot) ENDF/B-VII.1
Energy(eV) XS(b)
1.00000E-05 428.232
1.25000E-05 383.280
1.50000E-05 350.097
2.00000E-05 303.518
2.75000E-05 259.199
3.50000E-05 230.032
4.25000E-05 208.976
5.00000E-05 192.856
6.25000E-05 172.752
7.50000E-05 157.912
0.000100000 137.082
0.000125000 122.867
0.000150000 112.374
0.000200000 97.6444
0.000275000 83.6296
0.000350000 74.4062
0.000425000 67.7478
0.000500000 62.6504
0.000625000 56.2933
0.000750000 51.6007
0.00100000 45.0138
0.00125000 40.5188
0.00150000 37.2008
0.00200000 32.5434
0.00275000 28.1121
0.00350000 25.1958
0.00425000 23.0906
0.00500000 21.4791
0.00625000 19.4693
0.00750000 17.9859
0.0100000 15.9038
0.0125000 14.4831
0.0150000 13.4345
0.0200000 11.9628
0.0253000 10.9081
0.0314750 10.0336
0.0376500 9.38432
0.0500000 8.46836
0.0625000 7.83410
0.0750000 7.36609
0.100000 6.70949
0.125000 6.26168
0.150000 5.93129
0.200000 5.46782
0.275000 5.02713
0.350000 4.73723
0.500000 4.36776
0.750000 4.02035
1.00000 3.81362
1.50000 3.57544
2.00000 3.47318
2.22853 3.49184
2.45705 3.64496
2.57131 3.88257
2.68558 4.50555
2.74271 5.24260
2.79984 6.84093
2.82840 8.42035
2.85697 11.2032
2.88554 16.5682
2.89982 21.0998
2.91410 27.5969
2.93705 42.3939
2.96000 52.3858
2.98295 42.6915
3.00590 27.9633
3.02148 20.9616
3.03706 16.2198
3.06822 10.8016
3.09937 8.08554
3.13053 6.57287
3.19285 5.05701
3.25516 4.35475
3.37979 3.73966
3.50443 3.47907
3.75369 3.25304
4.00295 3.14816
5.00000 2.96209
7.50000 2.72541
10.0000 2.54566
15.0000 2.25917
17.5000 2.18262
20.0000 2.23342
21.6243 2.41961
22.4364 2.59758
23.2485 2.86495
23.6546 3.04416
23.8576 3.14797
24.0606 3.26258
24.1622 3.32430
24.2637 3.38916
24.3652 3.45735
24.4667 3.52903
24.5682 3.60441
24.6697 3.68368
24.7712 3.76706
24.8728 3.85478
24.9743 3.94710
25.0758 4.04428
25.2788 4.25434
25.4819 4.48748
25.6849 4.74657
26.0909 5.35643
26.4970 6.11728
26.9031 7.07451
27.3091 8.29085
27.7152 9.85503
28.1213 11.8952
28.5273 14.6019
28.9334 18.2667
29.3394 23.3536
29.7455 30.6342
30.1516 41.4647
30.5576 58.3977
30.9637 86.6923
31.3698 138.580
31.5728 182.123
31.7758 247.942
31.9789 353.708
32.1819 538.454
32.2834 686.854
32.3849 902.458
32.4864 1231.80
32.5879 1768.59
32.6895 2723.95
32.7402 3502.91
32.7910 4645.67
32.8417 6401.55
32.8925 9245.14
32.9433 14101.9
32.9940 22593.0
33.0470 36328.6
33.1000 45633.2
33.1530 36754.4
33.2060 23151.0
33.2388 17135.4
33.2716 12905.9
33.3372 7846.98
33.4028 5190.12
33.4684 3665.51
33.5340 2721.08
33.5996 2099.33
33.7308 1360.37
33.8620 955.724
33.9932 710.579
34.2556 440.855
34.5180 303.145
34.7804 223.186
35.0429 172.490
35.3053 138.235
35.8301 96.0333
36.3549 71.8349
36.8797 56.5693
37.4045 46.2595
38.4541 33.5106
39.5038 26.1272
40.5534 21.4081
41.6030 18.1736
43.7023 14.0803
45.8015 11.6244
47.9008 9.99255
50.0000 8.82483
55.0811 6.97874
60.1621 5.77741
65.2432 4.82660
70.3243 3.94680
72.8648 3.50231
75.4053 3.05275
77.9459 2.62652
80.4864 2.34384
81.7567 2.37357
82.3918 2.48201
83.0269 2.69266
83.3445 2.85108
83.5033 2.94705
83.6621 3.05585
83.8208 3.17895
83.9796 3.31797
84.1384 3.47478
84.2972 3.65150
84.4560 3.85055
84.6148 4.07465
84.7735 4.32697
84.9323 4.61115
85.2499 5.29249
85.5674 6.16076
85.8850 7.27343
86.2026 8.70994
86.5202 10.5825
86.8377 13.0532
87.1553 16.3621
87.4728 20.8756
87.7904 27.1738
88.1080 36.2130
88.4255 49.6568
88.7431 70.5891
89.0607 105.225
89.3782 167.549
89.5370 218.729
89.6958 294.338
89.8546 411.954
90.0134 607.762
90.1722 965.440
90.2516 1263.91
90.3309 1711.11
90.4103 2416.48
90.4897 3599.18
90.5691 5716.17
90.6485 9646.36
90.7243 15663.2
90.8000 19861.7
90.8758 16117.8
90.9515 10221.3
91.0222 6576.76
91.0929 4434.57
91.1636 3150.64
91.2343 2342.11
91.3757 1436.34
91.5170 973.154
91.6584 706.264
91.7998 538.721
92.0826 347.777
92.3653 246.743
92.6481 186.547
92.9309 147.603
93.2136 120.841
93.7792 87.2076
94.3447 67.4605
94.9102 54.7530
95.4758 46.0209
96.6068 34.9899
97.7379 28.4348
98.8689 24.1541
100.000 21.1664
101.580 18.2613
103.161 16.2436
106.322 13.6456
109.482 12.0899
110.273 11.8294
111.063 11.6816
111.458 11.7305
111.655 11.8426
111.853 12.0922
112.051 12.6671
112.149 13.2369
112.248 14.2326
112.347 16.1774
112.396 17.9125
112.446 20.6900
112.495 25.5305
112.544 34.9417
112.569 43.2437
112.594 56.2219
112.618 77.3682
112.643 112.078
112.672 172.369
112.700 212.412
112.729 172.394
112.757 112.097
112.775 84.8383
112.793 65.9318
112.830 43.7522
112.866 32.3049
112.902 25.8170
112.939 21.8265
112.975 19.2259
113.048 16.1567
113.120 14.4851
113.193 13.4765
113.338 12.3628
113.484 11.7852
113.629 11.4392
113.919 11.0445
114.210 10.8176
114.500 10.6610
115.082 10.4378
116.244 10.1226
117.406 9.87240
122.055 9.12121
126.704 8.58606
131.353 8.17878
140.650 7.59412
145.299 7.37619
147.624 7.28328
148.205 7.26396
148.786 7.25153
149.076 7.25396
149.222 7.26153
149.367 7.27904
149.512 7.31981
149.585 7.36006
149.658 7.42957
149.730 7.56236
149.767 7.67765
149.803 7.85750
149.839 8.15768
149.875 8.70486
149.894 9.15783
149.912 9.81726
149.930 10.8107
149.948 12.2897
149.974 15.3484
150.000 17.3874
150.026 15.3481
150.052 12.2878
150.076 10.4158
150.101 9.32920
150.125 8.68469
150.150 8.28239
150.198 7.83637
150.247 7.61095
150.296 7.48218
150.345 7.40177
150.442 7.31033
150.540 7.26140
150.637 7.23151
150.833 7.19661
151.223 7.16137
151.613 7.13973
153.174 7.07827
156.296 6.97618
162.539 6.79955
175.026 6.51763
200.000 6.12050
225.787 5.82978
251.574 5.59549
277.361 5.38417
283.808 5.33260
290.255 5.28234
293.478 5.25946
295.090 5.24993
296.701 5.24370
298.313 5.24589
299.119 5.25489
299.925 5.27703
300.328 5.29810
300.731 5.33212
301.134 5.39016
301.536 5.49813
301.738 5.58966
301.939 5.72926
302.141 5.95689
302.342 6.36363
302.443 6.69919
302.544 7.19960
302.644 7.99358
302.745 9.36315
302.846 12.0325
302.896 14.4295
302.947 18.3083
302.997 25.1930
303.022 30.7941
303.047 38.9662
303.073 51.5578
303.098 71.9662
303.123 106.906
303.148 167.920
303.174 265.702
303.200 330.950
303.226 265.727
303.252 167.952
303.279 104.434
303.305 69.2669
303.332 49.1745
303.358 36.9716
303.385 29.1154
303.411 23.8005
303.464 17.3211
303.517 13.6940
303.570 11.4695
303.676 9.00473
303.782 7.74228
303.888 7.01254
303.994 6.55245
304.100 6.24433
304.312 5.86935
304.524 5.65832
304.735 5.52757
304.947 5.44072
305.371 5.33543
305.795 5.27562
306.219 5.23768
306.643 5.21154
307.490 5.17744
308.338 5.15529
310.033 5.12538
311.728 5.10305
313.424 5.08363
316.814 5.04789
323.595 4.97837
330.376 4.90603
343.938 4.74375
357.500 4.54400
371.062 4.27984
384.624 3.89578
391.405 3.62250
398.186 3.25478
401.576 3.01813
404.967 2.73226
408.357 2.38655
410.052 2.20846
410.476 2.18214
410.900 2.20438
411.112 2.27946
411.218 2.36389
411.324 2.52028
411.430 2.84018
411.483 3.13456
411.536 3.61786
411.589 4.48747
411.642 6.25998
411.668 7.90226
411.695 10.6030
411.721 15.3180
411.748 23.7587
411.774 36.8665
411.800 45.6126
411.826 36.8615
411.852 23.7468
411.883 14.4183
411.913 9.63590
411.943 7.05584
411.974 5.54908
412.004 4.60469
412.034 3.97750
412.095 3.22516
412.155 2.80847
412.216 2.55284
412.337 2.26501
412.458 2.11043
412.580 2.01394
412.822 1.89564
413.307 1.75963
413.791 1.66117
415.730 1.32400
417.669 1.02147
419.607 0.873430
420.092 0.902327
420.334 0.934650
420.577 0.982057
420.819 1.04762
421.061 1.13499
421.304 1.24873
421.546 1.39443
421.788 1.57913
422.031 1.81138
422.273 2.10234
422.515 2.46571
423.000 3.48717
423.485 5.09466
423.969 7.67878
424.454 11.9779
424.939 19.5099
425.181 25.4294
425.423 33.7501
425.666 45.8182
425.908 63.9986
426.150 92.8140
426.393 141.561
426.635 231.907
426.756 307.926
426.877 422.206
426.999 603.067
427.120 906.097
427.241 1447.30
427.362 2445.76
427.481 4033.54
427.600 5193.32
427.719 4274.33
427.838 2747.29
427.942 1834.36
428.047 1275.80
428.151 929.530
428.255 705.681
428.464 447.827
428.673 312.142
428.881 232.212
429.090 181.171
429.507 121.798
429.924 89.5995
430.342 70.0163
430.759 57.1146
431.176 48.1033
432.011 36.5343
432.845 29.5615
433.680 24.9695
434.514 21.7486
436.183 17.5743
437.852 15.0163
439.522 13.3022
441.191 12.0795
444.529 10.4582
447.867 9.43529
451.205 8.73166
454.543 8.21749
461.219 7.51360
467.895 7.05026
474.572 6.71891
476.241 6.65085
477.910 6.58983
478.744 6.56452
479.579 6.55064
479.996 6.55809
480.205 6.57253
480.413 6.60407
480.622 6.67658
480.726 6.74877
480.831 6.87613
480.935 7.12815
480.987 7.35676
481.039 7.72913
481.091 8.39492
481.118 8.94009
481.144 9.74032
481.170 10.9826
481.196 13.0167
481.222 16.5486
481.248 22.8279
481.274 32.6607
481.300 39.2219
481.326 32.6604
481.352 22.8263
481.371 18.0470
481.389 14.8753
481.407 12.7568
481.425 11.3083
481.462 9.54993
481.498 8.58226
481.534 7.99879
481.571 7.62385
481.644 7.18742
481.717 6.95291
481.789 6.81272
481.935 6.65933
482.081 6.58054
482.226 6.53369
482.518 6.48065
482.809 6.45031
483.101 6.42936
483.683 6.39917
484.849 6.35471
486.014 6.31702
490.676 6.18619
500.000 5.96883
511.237 5.75260
522.473 5.56479
528.092 5.47728
533.710 5.39363
536.519 5.35488
537.924 5.33770
539.328 5.32415
540.733 5.31978
541.435 5.32617
542.138 5.34675
542.489 5.36780
542.840 5.40279
543.191 5.46355
543.542 5.57767
543.718 5.67470
543.893 5.82278
544.069 6.06370
544.244 6.49228
544.332 6.84385
544.420 7.36581
544.508 8.18789
544.596 9.58845
544.683 12.2697
544.727 14.6312
544.771 18.3841
544.815 24.8375
544.859 37.1803
544.881 47.9221
544.903 64.3724
544.925 90.6016
544.947 132.808
544.973 209.382
545.000 260.442
545.027 209.398
545.053 132.828
545.076 90.1689
545.098 63.8307
545.120 47.4024
545.142 36.7590
545.187 24.5340
545.231 18.1713
545.275 14.4671
545.320 12.1390
545.408 9.49995
545.497 8.11856
545.586 7.30910
545.675 6.79367
545.763 6.44605
545.941 6.01973
546.118 5.77785
546.296 5.62704
546.473 5.52631
546.828 5.40328
547.183 5.33263
547.538 5.28727
547.893 5.25559
548.603 5.21335
549.313 5.18503
550.733 5.14515
552.153 5.11412
553.573 5.08645
556.413 5.03459
562.093 4.93214
567.773 4.82421
579.133 4.57585
590.492 4.25256
596.172 4.04338
601.852 3.78378
607.532 3.44869
613.212 2.99526
616.052 2.70238
618.892 2.34831
621.731 1.91815
624.571 1.40826
625.991 1.13922
627.411 0.899413
628.121 0.815668
628.831 0.784112
629.186 0.799585
629.541 0.845320
629.896 0.931482
630.251 1.07189
630.606 1.28577
630.784 1.42826
630.961 1.59999
631.316 2.05293
631.671 2.70057
632.026 3.62639
632.381 4.95848
632.736 6.89977
633.091 9.78364
633.446 14.1892
633.801 21.1736
634.156 32.8239
634.511 53.6760
634.689 70.5431
634.866 94.9697
635.044 131.805
635.221 190.258
635.399 289.263
635.576 471.546
635.665 622.484
635.754 842.914
635.842 1171.80
635.931 1662.18
636.066 2758.60
636.200 3574.75
636.335 2964.42
636.469 1919.93
636.573 1348.18
636.678 975.556
636.782 732.254
636.887 568.712
637.095 372.536
637.304 265.144
637.513 200.272
637.721 158.070
638.139 108.101
638.556 80.5304
638.974 63.5571
639.391 52.2737
639.808 44.3363
640.643 34.0762
641.478 27.8700
641.895 25.6624
642.313 23.9412
642.521 23.3248
642.730 23.1022
642.835 23.4061
642.887 23.8273
642.939 24.6221
642.991 26.1735
643.043 29.4793
643.069 32.5895
643.095 37.7221
643.122 46.6637
643.148 62.5556
643.174 87.6050
643.200 104.188
643.226 87.3571
643.253 62.2580
643.272 49.6298
643.291 41.3192
643.310 35.8361
643.329 32.1336
643.367 27.6391
643.405 25.1498
643.443 23.6247
643.481 22.6123
643.557 21.3614
643.634 20.6077
643.710 20.0876
643.862 19.3676
644.167 18.4131
644.472 17.6933
645.082 16.5374
645.692 15.5979
646.911 14.1236
648.131 13.0111
650.570 11.4419
653.008 10.3897
657.886 9.06919
662.764 8.27283
667.642 7.73762
672.520 7.35069
682.276 6.82164
692.032 6.46832
701.788 6.20774
721.299 5.82835
740.811 5.53928
760.323 5.28529
770.079 5.16183
779.835 5.03717
784.713 4.97411
789.590 4.91188
792.029 4.88334
793.249 4.87143
794.468 4.86363
795.688 4.86637
796.298 4.87764
796.907 4.90527
797.212 4.93149
797.517 4.97374
797.822 5.04555
798.127 5.17831
798.279 5.29024
798.432 5.45993
798.584 5.73419
798.737 6.21860
798.813 6.61359
798.889 7.19552
798.965 8.10405
799.041 9.63523
799.118 12.5096
799.156 14.9915
799.194 18.8552
799.232 25.3044
799.270 37.0895
799.289 46.8797
799.308 61.1918
799.327 82.8583
799.346 115.316
799.373 181.675
799.400 225.929
799.427 181.691
799.454 115.336
799.476 78.4576
799.498 55.7366
799.521 41.5198
799.543 32.2862
799.587 21.6369
799.632 16.0872
799.676 12.8539
799.721 10.8243
799.809 8.51828
799.898 7.31007
799.987 6.60164
800.076 6.15033
800.165 5.84583
800.342 5.47220
800.520 5.26006
800.698 5.12770
800.876 5.03922
801.231 4.93096
801.586 4.86863
801.942 4.82846
802.297 4.80029
803.008 4.76244
803.719 4.73677
805.141 4.70006
806.562 4.67103
807.984 4.64486
810.827 4.59537
816.514 4.49694
822.201 4.39356
833.574 4.16237
839.261 4.03238
840.683 3.99978
842.104 3.97120
842.815 3.96329
843.526 3.97403
843.881 4.00442
844.059 4.03847
844.237 4.10254
844.415 4.23783
844.503 4.36743
844.592 4.59033
844.681 5.02072
844.726 5.40164
844.770 6.00990
844.814 7.06548
844.859 9.09986
844.881 10.8824
844.903 13.6510
844.925 18.1261
844.948 25.4458
844.974 38.4030
845.000 47.0503
845.026 38.4081
845.052 25.4511
845.082 16.3634
845.112 11.6456
845.142 9.07800
845.171 7.57029
845.201 6.62240
845.231 5.99205
845.290 5.23640
845.349 4.81984
845.409 4.56663
845.528 4.28738
845.646 4.14431
845.765 4.06068
846.003 3.97013
846.478 3.89334
846.953 3.85665
847.903 3.81218
848.854 3.77807
850.754 3.71581
852.655 3.65383
860.257 3.37987
867.859 3.04196
875.462 2.60614
879.263 2.33484
883.064 2.01460
886.865 1.63259
890.666 1.17998
892.567 0.933064
894.468 0.692207
896.368 0.510323
896.843 0.488260
897.319 0.482842
897.794 0.500021
898.269 0.547966
898.744 0.638051
899.219 0.786249
899.694 1.01561
900.169 1.35971
900.645 1.86918
901.120 2.62164
901.595 3.74146
902.070 5.43375
902.545 8.05683
903.020 12.2697
903.495 19.3894
903.971 32.3073
904.208 42.8775
904.446 58.3330
904.683 81.9144
904.921 119.880
905.158 185.527
905.396 309.939
905.515 415.951
905.634 575.229
905.752 821.023
905.871 1201.19
906.036 1989.96
906.200 2574.51
906.365 2130.67
906.530 1376.53
906.725 811.230
906.919 517.143
907.114 356.273
907.309 260.972
907.503 200.350
907.698 159.542
908.087 109.656
908.476 81.3573
908.866 63.6691
909.644 43.4097
910.422 32.5081
911.201 25.8660
911.979 21.4606
912.758 18.3529
914.315 14.2915
915.872 11.7675
917.429 10.0434
918.986 8.78105
922.099 7.01721
925.213 5.78413
931.441 3.95788
934.555 3.15900
937.669 2.36947
940.783 1.57955
943.897 0.860235
945.454 0.617401
945.843 0.584072
946.232 0.566962
946.621 0.569792
947.010 0.597199
947.400 0.654989
947.789 0.750409
948.178 0.892715
948.567 1.09357
948.957 1.36817
949.346 1.73595
949.735 2.22265
950.124 2.86234
950.903 4.80077
951.681 8.16656
952.460 14.2042
952.849 18.9812
953.238 25.6872
953.628 35.3454
954.017 49.6998
954.406 71.9228
954.795 108.176
955.184 171.530
955.574 292.624
955.768 396.193
955.963 552.057
956.157 792.777
956.352 1165.80
956.626 1960.24
956.900 2570.70
957.174 2154.34
957.448 1408.59
957.754 863.164
958.059 566.042
958.365 397.864
958.670 295.670
958.976 229.348
959.282 183.856
959.893 126.737
960.504 92.6037
961.115 68.8952
961.421 58.6805
961.574 53.6626
961.726 48.6729
961.879 44.0742
961.956 42.4440
962.032 42.2584
962.108 46.0121
962.147 51.4234
962.185 61.9570
962.223 82.6418
962.242 99.9535
962.261 125.115
962.280 162.388
962.299 218.696
962.319 305.070
962.338 436.557
962.353 590.750
962.369 782.701
962.400 1110.78
962.416 1118.05
962.431 1017.80
962.463 730.453
962.499 488.160
962.536 351.103
962.573 271.197
962.609 221.331
962.646 187.934
962.683 164.463
962.756 133.954
962.829 115.213
962.903 102.618
963.049 86.6887
963.196 76.8947
963.343 70.1404
963.636 61.1392
963.929 55.1551
964.222 50.7256
964.809 44.3450
965.982 36.3020
967.155 31.1907
969.501 24.8796
971.847 21.0935
974.193 18.5646
976.539 16.7563
981.231 14.3428
985.924 12.8040
990.616 11.7351
1000.00 10.3407
1010.61 9.37252
1021.21 8.72530
1031.82 8.25629
1042.42 7.89632
1053.03 7.60771
1063.63 7.36853
1068.93 7.26371
1074.24 7.16991
1076.89 7.13070
1078.21 7.11587
1079.54 7.10843
1080.86 7.11905
1081.53 7.14102
1082.19 7.19023
1082.52 7.23558
1082.85 7.30739
1083.18 7.42859
1083.52 7.65053
1083.68 7.83738
1083.85 8.12046
1084.01 8.57774
1084.18 9.37880
1084.26 10.0337
1084.34 10.9994
1084.43 12.5068
1084.51 15.0066
1084.59 19.7327
1084.63 23.8646
1084.68 30.1273
1084.72 40.8070
1084.76 59.7316
1084.78 75.6549
1084.80 97.6582
1084.82 131.928
1084.84 180.130
1084.87 282.689
1084.90 350.519
1084.93 279.070
1084.96 177.319
1085.00 103.180
1085.03 66.6086
1085.07 46.8282
1085.10 35.2525
1085.14 27.8246
1085.17 23.0549
1085.24 17.3376
1085.31 14.1540
1085.38 12.2549
1085.52 10.1665
1085.67 9.09990
1085.81 8.49059
1085.95 8.10510
1086.09 7.84888
1086.37 7.53496
1086.65 7.35832
1086.93 7.24797
1087.21 7.17377
1087.77 7.08150
1088.34 7.02675
1089.46 6.96282
1090.59 6.92352
1091.71 6.89420
1093.96 6.84775
1098.46 6.77149
1102.96 6.70241
1111.95 6.57153
1116.45 6.50853
1118.70 6.48097
1119.82 6.48171
1120.11 6.49414
1120.39 6.53382
1120.53 6.58786
1120.67 6.72380
1120.74 6.88667
1120.81 7.23954
1120.84 7.59373
1120.88 8.23087
1120.91 9.50123
1120.93 10.6492
1120.95 12.2450
1120.97 15.7125
1121.00 18.0188
1121.03 15.7125
1121.05 12.2444
1121.07 10.4963
1121.09 9.39834
1121.13 8.13265
1121.16 7.51435
1121.20 7.17607
1121.27 6.84293
1121.35 6.69153
1121.50 6.56181
1121.64 6.50881
1121.94 6.46464
1122.23 6.44543
1123.41 6.41328
1125.78 6.37538
1130.50 6.30577
1135.22 6.23546
1137.59 6.20004
1138.77 6.18412
1139.36 6.18339
1139.65 6.20642
1139.80 6.27920
1139.88 6.42772
1139.91 6.62633
1139.95 7.05741
1140.00 7.95100
1140.05 7.05594
1140.09 6.61597
1140.13 6.42390
1140.20 6.27412
1140.34 6.19627
1140.64 6.16354
1141.22 6.14562
1142.39 6.12454
1144.72 6.08583
1149.39 6.00610
1158.73 5.82826
1168.07 5.61104
1177.40 5.32380
1182.07 5.13582
1186.74 4.90013
1191.41 4.59149
1196.08 4.16427
1198.41 3.88079
1200.75 3.52799
1203.08 3.07827
1205.42 2.49456
1206.58 2.14053
1207.75 1.74742
1208.92 1.34204
1210.08 1.03546
1210.38 1.01012
1210.67 1.02655
1210.96 1.10421
1211.25 1.27128
1211.54 1.57277
1211.69 1.79385
1211.84 2.07685
1211.98 2.43696
1212.13 2.89375
1212.27 3.47269
1212.42 4.20165
1212.71 6.32898
1213.00 9.86265
1213.29 15.9716
1213.44 20.6882
1213.59 27.1413
1213.73 36.3109
1213.88 49.6534
1214.02 69.7925
1214.17 101.616
1214.32 154.888
1214.46 250.712
1214.53 327.947
1214.61 437.976
1214.68 596.975
1214.75 822.161
1214.88 1391.05
1215.00 1836.37
1215.12 1549.68
1215.25 1020.55
1215.39 617.112
1215.54 402.527
1215.68 283.208
1215.83 211.963
1215.97 165.759
1216.12 134.512
1216.41 95.6302
1216.69 73.2045
1216.98 58.9778
1217.56 42.3944
1218.14 33.2834
1218.72 27.6385
1219.30 23.8443
1219.87 21.1402
1221.03 17.5709
1222.19 15.3443
1223.34 13.8312
1224.50 12.7399
1226.81 11.2753
1229.12 10.3406
1231.44 9.69220
1233.75 9.21609
1238.37 8.56163
1243.00 8.13072
1247.62 7.82325
1252.25 7.59109
1261.50 7.25912
1270.75 7.02806
1289.25 6.71347
1307.74 6.49406
1326.24 6.31878
1335.49 6.24011
1344.74 6.16578
1349.37 6.13125
1353.99 6.10304
1356.31 6.09759
1357.46 6.10167
1358.62 6.11705
1359.77 6.16089
1360.35 6.20928
1360.93 6.30118
1361.22 6.37998
1361.51 6.50113
1361.80 6.70010
1362.09 7.05898
1362.23 7.35837
1362.37 7.80540
1362.52 8.52689
1362.66 9.78017
1362.81 12.2921
1362.88 14.5853
1362.95 18.3925
1363.03 25.5152
1363.06 31.4749
1363.10 40.5495
1363.13 55.2321
1363.17 80.8554
1363.21 129.672
1363.22 170.494
1363.24 228.589
1363.27 365.516
1363.30 453.147
1363.33 360.669
1363.36 228.626
1363.38 167.857
1363.40 127.842
1363.43 79.9403
1363.47 54.7342
1363.50 40.2561
1363.54 31.0925
1363.58 25.2587
1363.65 18.3313
1363.72 14.5100
1363.79 12.2434
1363.94 9.76527
1364.08 8.50710
1364.23 7.79111
1364.37 7.33977
1364.52 7.04068
1364.81 6.67601
1365.10 6.47236
1365.38 6.34631
1365.67 6.26253
1366.25 6.16049
1366.83 6.10216
1367.99 6.03837
1369.14 6.00309
1370.30 5.97911
1372.61 5.94462
1377.24 5.89189
1381.87 5.84323
1386.50 5.79334
1391.12 5.74000
1400.38 5.61509
1409.63 5.44391
1414.26 5.32399
1418.88 5.15962
1421.20 5.04971
1423.51 4.91017
1425.83 4.72501
1428.14 4.46509
1429.30 4.29034
1430.45 4.07003
1431.61 3.78422
1432.77 3.40217
1433.34 3.16122
1433.92 2.88083
1434.50 2.56242
1435.08 2.24181
1435.37 2.12199
1435.66 2.09790
1435.95 2.30905
1436.09 2.60053
1436.24 3.11943
1436.38 4.03299
1436.45 4.71695
1436.53 5.62693
1436.60 6.86771
1436.67 8.53274
1436.74 10.8283
1436.81 14.0546
1436.89 18.7783
1436.96 25.7147
1437.03 36.4238
1437.10 53.7979
1437.18 84.4104
1437.21 108.151
1437.25 141.446
1437.28 189.402
1437.32 260.352
1437.36 367.575
1437.39 529.655
1437.45 894.392
1437.50 1180.28
1437.56 993.475
1437.61 656.420
1437.65 461.164
1437.70 334.998
1437.74 253.206
1437.78 199.449
1437.87 133.401
1437.96 97.5356
1438.05 75.4753
1438.13 61.1838
1438.31 44.0240
1438.48 34.3350
1438.66 28.3091
1438.83 24.2194
1439.01 21.3191
1439.36 17.4876
1439.70 15.1069
1440.05 13.4989
1440.40 12.3464
1441.10 10.8137
1441.80 9.84631
1442.50 9.18253
1443.19 8.69968
1444.59 8.04489
1445.99 7.62135
1447.38 7.32440
1448.78 7.10411
1451.57 6.79773
1454.36 6.59490
1455.76 6.51954
1457.16 6.46430
1457.85 6.45279
1458.55 6.47901
1458.90 6.54033
1459.08 6.60709
1459.25 6.73016
1459.42 6.98891
1459.51 7.23385
1459.60 7.65331
1459.69 8.46995
1459.73 9.19453
1459.77 10.3201
1459.82 12.3028
1459.86 16.0050
1459.88 19.2864
1459.90 24.3567
1459.93 32.4862
1459.95 44.8804
1459.97 68.3978
1460.00 83.2751
1460.03 67.4838
1460.05 44.8947
1460.08 32.0362
1460.10 24.0803
1460.12 19.1103
1460.14 15.8868
1460.19 12.1802
1460.23 10.2454
1460.27 9.12098
1460.32 8.41342
1460.40 7.61549
1460.49 7.19079
1460.58 6.94075
1460.76 6.67312
1460.93 6.53741
1461.11 6.45865
1461.46 6.37186
1462.16 6.29321
1462.86 6.25140
1464.26 6.19612
1465.67 6.15352
1468.47 6.08283
1471.28 6.02271
1476.89 5.92118
1482.50 5.83525
1493.73 5.68844
1499.34 5.62200
1502.14 5.59085
1503.55 5.58003
1504.25 5.59143
1504.60 5.65307
1504.77 5.83832
1504.86 6.24585
1504.91 6.84859
1504.93 7.44130
1504.95 8.35293
1504.97 10.0222
1505.00 11.1317
1505.03 10.0223
1505.05 8.35266
1505.07 7.40669
1505.10 6.82651
1505.14 6.24328
1505.23 5.83591
1505.40 5.64553
1505.75 5.57496
1506.44 5.54720
1507.83 5.52602
1510.60 5.49317
1516.15 5.43007
1521.70 5.36882
1523.09 5.35565
1524.47 5.34802
1525.17 5.35183
1525.86 5.37702
1526.21 5.41805
1526.55 5.53577
1526.73 5.69271
1526.82 5.84156
1526.90 6.09301
1526.99 6.58040
1527.03 7.00520
1527.07 7.67843
1527.12 8.86731
1527.16 11.0957
1527.18 13.0785
1527.20 15.9803
1527.23 20.8215
1527.25 28.2340
1527.27 42.4043
1527.30 51.4409
1527.33 41.8510
1527.35 28.2430
1527.37 22.3024
1527.39 18.1140
1527.42 13.0834
1527.45 10.4303
1527.48 8.94198
1527.51 7.98364
1527.54 7.37035
1527.61 6.62561
1527.67 6.21285
1527.73 5.96795
1527.86 5.69912
1528.11 5.48281
1528.36 5.39898
1528.87 5.33175
1529.37 5.30329
1530.39 5.27450
1531.40 5.25618
1535.44 5.19956
1539.48 5.14585
1543.52 5.09078
1559.69 4.84423
1575.85 4.53220
1592.02 4.10748
1600.10 3.82673
1608.18 3.47589
1616.27 3.02386
1624.35 2.42180
1628.39 2.04314
1632.43 1.60111
1636.47 1.09676
1640.52 0.577110
1642.54 0.370291
1643.55 0.307948
1644.56 0.295610
1645.06 0.316678
1645.57 0.362148
1646.07 0.438364
1646.58 0.553402
1647.08 0.717665
1647.59 0.944675
1648.09 1.25218
1648.60 1.66374
1649.10 2.21227
1649.61 2.93885
1650.62 5.19258
1651.12 6.92521
1651.63 9.28048
1652.13 12.5281
1652.64 17.0886
1653.15 23.6578
1653.65 33.3607
1654.16 48.2521
1654.66 72.1982
1655.17 113.073
1655.67 188.343
1655.92 250.405
1656.18 340.014
1656.43 472.698
1656.68 667.295
1657.09 1140.46
1657.50 1518.86
1657.91 1289.72
1658.32 853.816
1658.77 536.109
1659.21 359.214
1659.66 257.417
1660.11 194.817
1660.56 153.856
1661.00 125.624
1661.90 90.2010
1662.79 69.5102
1663.68 56.2655
1665.47 40.6912
1667.26 32.0472
1669.05 26.6564
1670.83 23.0100
1672.62 20.3992
1676.20 16.9299
1679.77 14.7426
1683.35 13.2384
1686.92 12.1358
1694.07 10.5959
1701.22 9.47644
1704.80 8.93824
1706.59 8.63647
1708.37 8.27888
1710.16 7.80460
1711.06 7.48332
1711.95 7.06007
1712.40 6.78901
1712.84 6.46060
1713.29 6.05546
1713.74 5.55260
1713.96 5.26274
1714.18 4.96183
1714.41 4.68979
1714.63 4.58582
1714.74 4.71543
1714.85 5.12966
1714.97 6.12688
1715.02 7.03317
1715.08 8.37654
1715.13 10.4711
1715.19 13.7673
1715.22 16.1133
1715.25 19.1374
1715.27 23.0861
1715.30 28.1054
1715.33 35.0876
1715.36 44.6928
1715.38 58.2226
1715.41 77.8070
1715.44 107.036
1715.47 152.085
1715.50 223.447
1715.52 331.978
1715.56 574.798
1715.60 769.015
1715.62 749.531
1715.64 661.501
1715.68 448.458
1715.70 334.960
1715.73 256.029
1715.76 201.554
1715.78 164.422
1715.84 115.595
1715.89 87.8672
1715.95 70.0659
1716.00 58.3202
1716.10 43.8217
1716.21 35.3791
1716.32 30.0465
1716.42 26.3599
1716.53 23.7243
1716.74 20.1874
1716.96 17.9561
1717.17 16.4303
1717.38 15.3252
1717.81 13.8360
1718.23 12.8804
1718.66 12.2145
1719.09 11.7228
1719.94 11.0408
1720.79 10.5866
1721.64 10.2577
1722.50 10.0057
1724.20 9.63729
1725.90 9.37399
1729.31 9.00544
1732.72 8.74543
1736.13 8.54342
1739.54 8.37820
1741.24 8.30917
1742.10 8.29107
1742.52 8.33182
1742.73 8.49714
1742.84 8.90562
1742.89 9.57431
1742.92 10.3182
1742.95 11.6602
1742.97 13.7210
1743.00 15.0800
1743.03 13.7199
1743.05 11.6572
1743.09 10.0138
1743.12 9.27462
1743.19 8.69294
1743.33 8.38458
1743.61 8.25861
1744.18 8.20186
1745.30 8.15123
1747.55 8.07194
1752.04 7.93372
1761.03 7.70489
1779.00 7.36274
1796.97 7.10885
1801.47 7.05431
1805.96 7.00286
1810.45 6.95646
1812.70 6.94535
1813.26 6.95249
1813.82 6.98258
1814.11 7.02780
1814.39 7.15295
1814.53 7.31581
1814.67 7.71863
1814.74 8.18857
1814.81 9.21071
1814.84 10.2316
1814.88 12.0594
1814.91 15.6810
1814.93 18.9367
1814.95 23.5754
1814.97 33.7004
1815.00 40.2485
1815.03 33.7018
1815.05 23.5768
1815.08 17.8979
1815.10 14.3614
1815.12 12.2032
1815.14 10.8770
1815.19 9.32324
1815.23 8.51888
1815.32 7.75712
1815.41 7.42956
1815.60 7.15645
1815.78 7.04887
1816.14 6.96354
1816.50 6.92958
1817.22 6.89976
1817.94 6.88435
1820.83 6.84744
1826.61 6.78936
1838.17 6.68280
1861.29 6.48543
1884.41 6.29220
1907.53 6.08252
1930.65 5.82472
1942.20 5.65946
1953.76 5.45056
1965.32 5.16824
1976.88 4.75097
1982.66 4.45169
1988.44 4.04781
1994.22 3.47130
1997.11 3.08117
2000.00 2.59171
2002.09 2.15975
2004.17 1.65757
2005.22 1.39044
2006.26 1.14434
2006.78 1.06234
2007.30 1.09168
2007.56 1.24551
2007.69 1.42369
2007.82 1.75486
2007.96 2.44582
2008.02 3.08604
2008.09 4.15486
2008.15 6.12030
2008.18 7.80785
2008.22 10.2900
2008.25 14.4127
2008.28 21.3255
2008.31 34.7518
2008.35 61.1859
2008.37 97.8921
2008.40 121.768
2008.43 97.8823
2008.45 61.1692
2008.48 39.6527
2008.50 26.6835
2008.53 18.9269
2008.55 14.2164
2008.60 8.79103
2008.65 6.02157
2008.70 4.40985
2008.75 3.43007
2008.85 2.32676
2008.95 1.75159
2009.05 1.42342
2009.24 1.08819
2009.44 0.949622
2009.64 0.906387
2010.03 0.991020
2010.42 1.26921
2010.62 1.49068
2010.82 1.77984
2011.21 2.62278
2011.61 3.97091
2012.00 6.13892
2012.39 9.68143
2012.79 15.6677
2013.18 26.2812
2013.38 34.7253
2013.57 46.6672
2013.77 64.0482
2013.97 90.2328
2014.17 131.326
2014.36 198.886
2014.56 315.199
2014.76 518.231
2014.98 893.687
2015.20 1198.49
2015.42 1026.40
2015.65 686.300
2015.86 457.555
2016.07 320.677
2016.29 236.707
2016.50 183.117
2016.71 146.809
2016.93 121.345
2017.35 88.5804
2017.78 69.0238
2018.21 56.3237
2019.06 41.1842
2019.92 32.6867
2020.77 27.3465
2021.62 23.7205
2022.48 21.1160
2024.19 17.6522
2025.89 15.4710
2027.60 13.9801
2029.31 12.9007
2032.72 11.4455
2036.14 10.5127
2039.56 9.86454
2042.97 9.38809
2049.80 8.73330
2056.63 8.30328
2063.47 7.99776
2070.30 7.76836
2083.96 7.44389
2097.62 7.22219
2104.45 7.13484
2111.28 7.05902
2118.12 6.99523
2119.82 6.98355
2121.53 6.97978
2122.39 6.98822
2123.24 7.02529
2123.67 7.08196
2124.09 7.24252
2124.31 7.45741
2124.41 7.66295
2124.52 8.01501
2124.63 8.70914
2124.68 9.32831
2124.73 10.3326
2124.79 12.1580
2124.81 13.6591
2124.84 15.7821
2124.87 19.1819
2124.89 24.5078
2124.92 34.0466
2124.95 50.3615
2124.97 76.3844
2125.00 93.8233
2125.03 76.3745
2125.05 50.3489
2125.07 37.5618
2125.09 29.1115
2125.11 23.2509
2125.13 19.4939
2125.17 14.8543
2125.21 12.3382
2125.25 10.8400
2125.29 9.88181
2125.37 8.77662
2125.44 8.18993
2125.52 7.84239
2125.68 7.46885
2125.83 7.28287
2125.99 7.17682
2126.30 7.06628
2126.92 6.98040
2127.55 6.94618
2128.79 6.91487
2130.04 6.89746
2135.03 6.85226
2145.00 6.78157
2154.97 6.72027
2159.96 6.69414
2162.45 6.69000
2163.70 6.71997
2164.01 6.75455
2164.32 6.84952
2164.48 6.97335
2164.64 7.28564
2164.71 7.65704
2164.79 8.48687
2164.83 9.34168
2164.87 10.9283
2164.89 12.3043
2164.91 14.2528
2164.93 17.2065
2164.95 21.8069
2164.97 30.9879
2165.00 36.9181
2165.03 30.9850
2165.05 21.7743
2165.08 15.1947
2165.12 11.8294
2165.15 10.0601
2165.18 9.04585
2165.24 8.00724
2165.31 7.52001
2165.44 7.09535
2165.56 6.92129
2165.82 6.78286
2166.08 6.72974
2166.59 6.68795
2167.10 6.67106
2169.14 6.64630
2173.23 6.62191
2181.41 6.58137
2197.77 6.50818
2230.49 6.37929
2246.86 6.32017
2263.22 6.26337
2271.40 6.23614
2279.58 6.21148
2283.67 6.20261
2287.76 6.20368
2289.80 6.21783
2290.82 6.23551
2291.85 6.27067
2292.87 6.34965
2293.38 6.42954
2293.89 6.57553
2294.15 6.69844
2294.40 6.88528
2294.66 7.18905
2294.91 7.72869
2295.04 8.17463
2295.17 8.84054
2295.30 9.89836
2295.42 11.7079
2295.55 15.2593
2295.62 18.4555
2295.68 23.6543
2295.74 32.9063
2295.78 40.4657
2295.81 51.5953
2295.84 68.7882
2295.87 96.8764
2295.90 145.478
2295.94 230.114
2295.97 365.567
2296.00 453.979
2296.03 365.456
2296.06 229.976
2296.08 172.171
2296.10 130.474
2296.14 81.7924
2296.18 55.5820
2296.22 40.9648
2296.26 31.7007
2296.30 25.7755
2296.38 18.7260
2296.46 14.8336
2296.54 12.5195
2296.69 9.97663
2296.85 8.69630
2297.01 7.96327
2297.16 7.50501
2297.32 7.19961
2297.64 6.82968
2297.95 6.62384
2298.58 6.41341
2299.21 6.31274
2299.84 6.25649
2301.09 6.19774
2302.35 6.16788
2303.60 6.14953
2306.12 6.12661
2311.14 6.09827
2316.17 6.07604
2326.22 6.03494
2336.27 5.99370
2356.38 5.90512
2376.48 5.80277
2396.59 5.67785
2406.64 5.60267
2416.69 5.51557
2426.74 5.41332
2431.77 5.35582
2436.79 5.29497
2441.82 5.23560
2444.33 5.21194
2446.85 5.20206
2449.36 5.23155
2450.62 5.28499
2451.87 5.40369
2452.50 5.51314
2453.13 5.68735
2453.76 5.98163
2454.39 6.52469
2454.70 6.98405
2455.01 7.67992
2455.33 8.80725
2455.64 10.8057
2455.80 12.4389
2455.96 14.8565
2456.11 18.6496
2456.27 25.0875
2456.43 37.3040
2456.51 48.0567
2456.58 64.7786
2456.66 93.5482
2456.74 146.794
2456.78 193.320
2456.82 261.876
2456.86 368.191
2456.90 533.791
2456.95 851.448
2457.00 1063.39
2457.05 851.738
2457.10 534.170
2457.15 345.790
2457.19 234.170
2457.24 166.874
2457.29 124.374
2457.38 76.7661
2457.47 52.5254
2457.56 38.6611
2457.65 30.0339
2457.84 20.3374
2458.02 15.3126
2458.21 12.3811
2458.39 10.5236
2458.57 9.27826
2458.94 7.74620
2459.31 6.88069
2459.68 6.33973
2460.04 5.97918
2460.78 5.53648
2461.51 5.28089
2462.25 5.11482
2462.98 4.99683
2464.46 4.83385
2465.93 4.71734
2468.87 4.53288
2471.81 4.36189
2474.75 4.18000
2480.63 3.73123
2483.57 3.43759
2486.51 3.07305
2489.45 2.60935
2492.39 2.00866
2493.86 1.64518
2495.33 1.24221
2496.80 0.826582
2498.27 0.508492
2499.01 0.489803
2499.38 0.559415
2499.74 0.714330
2500.11 0.996026
2500.48 1.46521
2500.85 2.22319
2501.21 3.42661
2501.58 5.35650
2501.95 8.49090
2502.32 13.7778
2502.68 23.0888
2502.87 30.4474
2503.05 40.7856
2503.24 55.7034
2503.42 77.7752
2503.60 112.033
2503.79 167.190
2503.97 259.532
2504.15 415.301
2504.38 720.314
2504.60 973.095
2504.82 838.579
2505.05 563.110
2505.24 392.585
2505.43 284.545
2505.62 215.044
2505.81 169.149
2506.20 114.433
2506.58 84.5662
2506.96 66.3411
2507.34 54.3847
2508.11 39.9414
2508.87 31.7506
2509.64 26.5715
2510.40 23.0409
2511.17 20.4983
2512.70 17.1086
2514.23 14.9702
2515.76 13.5075
2517.29 12.4483
2520.35 11.0253
2521.88 10.5290
2523.41 10.1298
2524.94 9.81500
2525.70 9.69309
2526.47 9.60743
2527.23 9.59340
2527.62 9.64630
2528.00 9.79229
2528.38 10.1628
2528.57 10.5465
2528.76 11.2404
2528.95 12.6652
2529.05 13.9971
2529.15 16.2113
2529.24 20.3821
2529.29 23.9613
2529.34 29.3493
2529.38 38.3820
2529.43 54.5793
2529.48 86.7234
2529.50 114.670
2529.53 155.489
2529.56 243.454
2529.60 301.858
2529.64 243.479
2529.67 155.312
2529.70 104.131
2529.74 74.0363
2529.77 55.0312
2529.80 43.2892
2529.86 29.7416
2529.92 22.7778
2529.99 18.7695
2530.05 16.2632
2530.18 13.4459
2530.30 11.9596
2530.43 11.0912
2530.55 10.5303
2530.68 10.1507
2530.93 9.67363
2531.18 9.39217
2531.68 9.07612
2532.18 8.89746
2532.69 8.77642
2533.69 8.60766
2535.70 8.37829
2537.71 8.20411
2539.72 8.05805
2541.73 7.93113
2545.74 7.71840
2553.78 7.40098
2561.82 7.17175
2577.89 6.85440
2593.96 6.63482
2610.03 6.46289
2626.10 6.31368
2642.17 6.17116
2650.21 6.09914
2654.23 6.06735
2656.24 6.07313
2656.74 6.09376
2657.24 6.15902
2657.49 6.24978
2657.74 6.49231
2657.87 6.80068
2657.99 7.54265
2658.06 8.39130
2658.12 10.1778
2658.15 11.9319
2658.18 14.8456
2658.21 20.1959
2658.25 30.6357
2658.27 45.6170
2658.30 55.2770
2658.33 45.6361
2658.35 30.6593
2658.37 23.4343
2658.39 18.4889
2658.41 15.2454
2658.43 13.1525
2658.47 10.5009
2658.51 9.09706
2658.59 7.70125
2658.67 7.07765
2658.83 6.54287
2658.98 6.32764
2659.30 6.15773
2659.61 6.09198
2660.24 6.03873
2660.87 6.01528
2663.38 5.97193
2668.41 5.91181
2673.44 5.85058
2678.47 5.78385
2688.52 5.62472
2698.58 5.40875
2703.61 5.26451
2708.63 5.08096
2713.66 4.83655
2718.69 4.49120
2721.20 4.25749
2723.72 3.96091
2726.23 3.57240
2728.74 3.04416
2730.00 2.70488
2731.26 2.29969
2732.52 1.81934
2733.77 1.27903
2734.40 1.01796
2735.03 0.822561
2735.34 0.783949
2735.66 0.821302
2735.82 0.882813
2735.97 0.984144
2736.29 1.35736
2736.44 1.66831
2736.60 2.09491
2736.76 2.67859
2736.92 3.47521
2737.07 4.56474
2737.23 6.06414
2737.39 8.14872
2737.54 11.0888
2737.70 15.3149
2737.86 21.5402
2738.01 30.9991
2738.17 45.9442
2738.33 70.7398
2738.49 114.397
2738.64 196.444
2738.72 263.937
2738.80 356.984
2738.95 622.812
2739.10 843.670
2739.25 729.776
2739.40 492.939
2739.57 315.557
2739.73 215.237
2739.89 156.829
2740.06 120.562
2740.22 96.6306
2740.39 80.0117
2740.71 58.9584
2741.04 46.5137
2741.37 38.4643
2742.02 28.8856
2742.68 23.4826
2743.34 20.0707
2743.99 17.7415
2744.65 16.0619
2745.96 13.8082
2747.27 12.3775
2748.58 11.3912
2749.89 10.6727
2752.52 9.69657
2755.14 9.06521
2757.76 8.62330
2760.39 8.29637
2765.63 7.84383
2770.88 7.54387
2776.12 7.32904
2781.37 7.16653
2791.86 6.93429
2797.11 6.84754
2802.35 6.77411
2807.60 6.71182
2812.84 6.66195
2815.47 6.64599
2818.09 6.65031
2819.40 6.67878
2820.06 6.71317
2820.71 6.78047
2821.37 6.92975
2821.70 7.07948
2822.02 7.34958
2822.19 7.57499
2822.35 7.91449
2822.52 8.45954
2822.68 9.41525
2822.84 11.3231
2822.93 13.0821
2823.01 16.0185
2823.09 21.4523
2823.13 26.0749
2823.17 33.1619
2823.21 44.7375
2823.25 65.2159
2823.30 105.022
2823.32 137.944
2823.34 187.013
2823.37 295.698
2823.40 367.199
2823.43 295.683
2823.46 186.716
2823.49 134.067
2823.51 99.7459
2823.53 75.7892
2823.55 60.1490
2823.60 40.6825
2823.64 29.9953
2823.69 23.5791
2823.73 19.4515
2823.82 14.7014
2823.91 12.1304
2824.00 10.6176
2824.09 9.63475
2824.18 8.97416
2824.36 8.15097
2824.54 7.68530
2824.90 7.20139
2825.26 6.96685
2825.62 6.83560
2826.33 6.69955
2827.05 6.63232
2827.77 6.59288
2829.20 6.54787
2832.07 6.50184
2834.93 6.47255
2840.67 6.42742
2846.40 6.38926
2852.13 6.35543
2857.87 6.32754
2860.74 6.31951
2863.60 6.32716
2865.04 6.35226
2865.75 6.38136
2866.47 6.43769
2867.19 6.56225
2867.54 6.68711
2867.90 6.91369
2868.26 7.39023
2868.44 7.85114
2868.62 8.66295
2868.71 9.32712
2868.80 10.2944
2868.89 11.8198
2868.98 14.3562
2869.07 19.1599
2869.11 23.3089
2869.16 29.5881
2869.20 40.2355
2869.25 59.6282
2869.27 76.0571
2869.29 99.0582
2869.31 133.211
2869.34 185.275
2869.37 293.699
2869.40 364.597
2869.43 293.923
2869.46 185.558
2869.49 135.385
2869.51 101.880
2869.53 78.0304
2869.55 62.2707
2869.59 42.3377
2869.64 31.2301
2869.68 24.4945
2869.72 20.1305
2869.81 15.0754
2869.89 12.3191
2869.98 10.6754
2870.15 8.90606
2870.32 8.01508
2870.49 7.50956
2870.67 7.19206
2870.84 6.98177
2871.18 6.72649
2871.52 6.58339
2872.21 6.43609
2872.89 6.36431
2873.58 6.32318
2874.95 6.27812
2877.69 6.23645
2880.43 6.21278
2885.92 6.17857
2891.40 6.14970
2896.89 6.12316
2902.37 6.09976
2905.11 6.09166
2907.86 6.09381
2909.23 6.10912
2910.60 6.16523
2911.28 6.24896
2911.63 6.33369
2911.97 6.48765
2912.31 6.81245
2912.48 7.12939
2912.65 7.68593
2912.74 8.14185
2912.83 8.81562
2912.91 9.87032
2913.00 11.6269
2913.08 14.9651
2913.13 17.8572
2913.17 22.2416
2913.21 29.7129
2913.25 43.4039
2913.28 55.0884
2913.30 71.5071
2913.32 96.0455
2913.34 133.781
2913.37 211.255
2913.40 261.900
2913.43 211.548
2913.46 134.150
2913.49 87.0724
2913.52 60.1677
2913.55 43.6644
2913.57 33.7489
2913.63 22.5529
2913.69 16.9991
2913.74 13.7780
2913.80 11.7872
2913.91 9.57707
2914.03 8.42541
2914.14 7.76112
2914.37 7.05642
2914.59 6.70858
2914.82 6.51224
2915.27 6.30969
2915.73 6.21145
2916.18 6.15602
2917.09 6.09742
2918.90 6.04865
2920.72 6.02530
2924.34 5.99669
2927.97 5.97469
2942.48 5.89557
2956.99 5.81305
2971.50 5.72029
2986.02 5.61029
3000.53 5.47057
3007.78 5.38206
3015.04 5.27325
3022.29 5.13242
3025.92 5.04449
3027.73 4.99923
3028.64 4.99493
3029.09 5.06281
3029.32 5.30914
3029.43 5.91785
3029.49 6.96903
3029.52 8.13293
3029.55 10.3702
3029.57 13.6526
3029.60 15.8096
3029.63 13.6588
3029.65 10.3767
3029.68 8.37044
3029.70 7.19894
3029.75 6.08258
3029.85 5.37873
3030.05 5.06386
3030.45 4.94537
3031.24 4.88599
3032.82 4.81554
3035.99 4.66470
3039.16 4.46848
3042.33 4.19496
3043.92 4.01141
3045.51 3.77989
3047.09 3.47805
3048.68 3.06910
3049.47 2.80658
3050.26 2.49282
3051.05 2.11978
3051.85 1.69710
3052.24 1.48886
3052.64 1.32644
3053.04 1.30390
3053.23 1.41206
3053.43 1.67527
3053.63 2.20980
3053.83 3.22300
3053.93 4.02868
3054.03 5.14238
3054.13 6.69716
3054.22 8.89892
3054.32 12.0771
3054.42 16.7798
3054.52 23.9619
3054.62 35.3795
3054.72 54.4700
3054.82 88.4302
3054.87 115.700
3054.92 153.156
3054.97 207.302
3055.02 282.079
3055.11 489.421
3055.20 662.308
3055.29 571.590
3055.39 385.697
3055.46 277.585
3055.53 205.994
3055.60 158.647
3055.68 126.778
3055.82 87.5172
3055.97 65.4763
3056.11 51.7727
3056.26 42.7361
3056.55 31.7255
3056.84 25.4079
3057.13 21.4080
3057.42 18.6709
3057.71 16.6947
3058.29 14.0496
3058.87 12.3774
3059.45 11.2316
3060.03 10.4013
3061.19 9.27775
3062.35 8.55576
3063.52 8.05166
3064.68 7.67957
3067.00 7.16361
3069.32 6.81922
3071.65 6.56934
3073.97 6.37675
3078.61 6.09042
3083.26 5.87683
3092.55 5.54330
3101.84 5.24670
3111.13 4.93098
3115.78 4.75288
3120.42 4.55841
3122.75 4.46117
3125.07 4.38981
3126.23 4.39924
3126.81 4.44105
3127.39 4.54439
3127.97 4.80094
3128.26 5.06782
3128.55 5.55573
3128.70 5.96478
3128.85 6.57346
3128.99 7.53873
3129.14 9.19624
3129.28 12.3885
3129.35 15.2408
3129.43 19.7361
3129.50 27.6404
3129.57 42.7252
3129.61 56.3847
3129.64 77.1581
3129.68 110.791
3129.72 166.915
3129.76 265.349
3129.80 329.986
3129.84 265.430
3129.88 167.015
3129.92 118.311
3129.95 85.8090
3129.98 64.5136
3130.01 50.5653
3130.07 33.4709
3130.13 24.1593
3130.19 18.5957
3130.25 15.0274
3130.37 10.8980
3130.50 8.68340
3130.62 7.37933
3130.74 6.54019
3130.86 5.96770
3131.11 5.25381
3131.35 4.84195
3131.84 4.39683
3132.33 4.16195
3132.82 4.01315
3133.79 3.81982
3135.75 3.55912
3137.70 3.32902
3141.61 2.82387
3145.52 2.18616
3147.48 1.79886
3149.43 1.36268
3151.39 0.895890
3153.34 0.486499
3154.32 0.390631
3154.81 0.407532
3155.30 0.496135
3155.78 0.692093
3156.27 1.04881
3156.52 1.31377
3156.76 1.65369
3157.25 2.64416
3157.74 4.26228
3158.23 6.93031
3158.72 11.4472
3159.20 19.4105
3159.45 25.6933
3159.69 34.4390
3159.94 46.9527
3160.18 65.3701
3160.43 93.5094
3160.67 137.670
3160.91 209.429
3161.16 327.083
3161.48 573.682
3161.80 783.183
3162.12 681.620
3162.44 462.348
3162.64 358.592
3162.84 282.937
3163.23 187.911
3163.62 135.015
3164.01 103.110
3164.41 82.4064
3164.80 68.2487
3165.58 50.5024
3166.37 40.0852
3167.15 33.3795
3168.72 25.3919
3170.29 20.8858
3171.86 18.0295
3173.43 16.0714
3175.00 14.6515
3178.13 12.7379
3181.27 11.5124
3184.41 10.6628
3185.98 10.3329
3186.76 10.2006
3187.16 10.1911
3187.35 10.3381
3187.45 10.7331
3187.50 11.3672
3187.55 13.2234
3187.57 15.1401
3187.60 16.4040
3187.63 15.1327
3187.65 13.2074
3187.68 11.7898
3187.72 11.0815
3187.78 10.4912
3187.91 10.1541
3188.16 9.98697
3188.67 9.86554
3189.69 9.70004
3191.73 9.42215
3195.80 8.97550
3203.95 8.34915
3212.10 7.92486
3216.17 7.76041
3218.21 7.69681
3219.23 7.70667
3219.48 7.74286
3219.74 7.85250
3219.87 7.99896
3219.99 8.35977
3220.06 8.77876
3220.12 9.65264
3220.15 10.5118
3220.18 12.0030
3220.22 14.8160
3220.25 20.2753
3220.27 27.8130
3220.30 32.9432
3220.33 27.8334
3220.35 20.2757
3220.37 16.3473
3220.40 13.7428
3220.44 11.0245
3220.48 9.71944
3220.52 9.04130
3220.60 8.37760
3220.69 8.08135
3220.85 7.83003
3221.02 7.72745
3221.68 7.60160
3223.00 7.53034
3225.65 7.44202
3230.95 7.29241
3236.24 7.15807
3241.54 7.03308
3246.84 6.91379
3252.14 6.79989
3254.78 6.74984
3257.43 6.72374
3258.76 6.74611
3259.42 6.78551
3260.08 6.87179
3260.74 7.07499
3261.07 7.28385
3261.40 7.66596
3261.57 7.98662
3261.74 8.46715
3261.90 9.24293
3262.07 10.5909
3262.23 13.2815
3262.32 15.7474
3262.40 19.7706
3262.48 27.1891
3262.52 33.5061
3262.56 42.8283
3262.61 58.1398
3262.65 83.8329
3262.69 131.323
3262.73 226.146
3262.76 356.347
3262.80 445.832
3262.84 356.600
3262.87 226.154
3262.90 158.557
3262.93 114.358
3262.95 85.7525
3262.98 66.6847
3263.03 44.1465
3263.09 32.2361
3263.14 25.0328
3263.19 20.4540
3263.30 15.2371
3263.41 12.4491
3263.52 10.8160
3263.62 9.76915
3263.73 9.05801
3263.95 8.17763
3264.16 7.67728
3264.59 7.15144
3265.02 6.89093
3265.45 6.73978
3266.31 6.57077
3267.16 6.47338
3268.02 6.40399
3269.74 6.29556
3271.46 6.19746
3273.17 6.09555
3276.60 5.84968
3278.32 5.68960
3280.04 5.48857
3281.75 5.22451
3283.47 4.85890
3284.33 4.61656
3285.19 4.31624
3286.05 3.93601
3286.90 3.44781
3287.33 3.15525
3287.76 2.83570
3288.19 2.51446
3288.62 2.28691
3289.05 2.50599
3289.26 3.14527
3289.37 3.76464
3289.48 4.72927
3289.59 6.25585
3289.69 8.66510
3289.80 12.6031
3289.85 15.5239
3289.91 19.3080
3289.96 24.4759
3290.02 31.5455
3290.07 41.4180
3290.12 55.2186
3290.18 75.7653
3290.23 105.976
3290.28 153.061
3290.34 223.770
3290.42 392.791
3290.50 537.990
3290.54 529.185
3290.58 469.975
3290.67 321.046
3290.73 235.589
3290.79 178.568
3290.85 139.966
3290.91 113.186
3291.04 79.6916
3291.16 60.7381
3291.29 48.7839
3291.41 40.8314
3291.66 31.0070
3291.91 25.3304
3292.16 21.6951
3292.41 19.1936
3292.66 17.3854
3293.15 14.9445
3293.65 13.3944
3294.15 12.3247
3294.65 11.5471
3295.64 10.4911
3296.64 9.81077
3297.63 9.33579
3298.63 8.98520
3300.62 8.50112
3302.61 8.18162
3304.60 7.95345
3306.59 7.78148
3310.57 7.53683
3314.55 7.36846
3322.51 7.14506
3330.47 6.99713
3338.44 6.88735
3354.36 6.72629
3370.28 6.60533
3386.21 6.50475
3418.05 6.33149
3449.90 6.16640
3481.75 5.98206
3497.67 5.87158
3513.59 5.73901
3521.56 5.66071
3529.52 5.57190
3537.48 5.47447
3539.47 5.45346
3541.46 5.44642
3542.46 5.46331
3543.45 5.53901
3543.95 5.65634
3544.20 5.77548
3544.45 5.99078
3544.69 6.44027
3544.82 6.87344
3544.94 7.62018
3545.07 9.10090
3545.13 10.4329
3545.19 12.6099
3545.25 16.5103
3545.29 19.7186
3545.32 24.4732
3545.35 31.8832
3545.38 44.1396
3545.41 65.7261
3545.44 105.025
3545.47 164.898
3545.50 204.864
3545.53 165.016
3545.56 105.172
3545.59 64.0431
3545.63 42.2731
3545.66 30.2542
3545.69 23.2975
3545.72 18.7279
3545.76 15.7558
3545.82 12.0947
3545.89 10.0371
3545.95 8.80433
3546.08 7.44123
3546.21 6.74092
3546.34 6.33939
3546.60 5.91423
3546.87 5.70520
3547.13 5.58600
3547.65 5.45942
3548.69 5.35358
3549.74 5.30251
3551.82 5.23813
3553.91 5.18584
3558.09 5.08296
3562.26 4.97021
3570.62 4.69152
3578.97 4.29921
3583.14 4.03450
3587.32 3.69977
3591.49 3.26386
3595.67 2.67750
3597.76 2.30562
3599.85 1.86799
3601.93 1.36192
3604.02 0.821974
3605.06 0.586094
3606.11 0.451436
3606.63 0.465825
3607.15 0.579066
3607.67 0.850439
3607.94 1.07406
3608.20 1.37887
3608.46 1.78878
3608.72 2.33590
3608.98 3.06394
3609.24 4.03337
3609.50 5.32919
3609.76 7.07320
3610.02 9.44377
3610.28 12.7085
3610.55 17.2803
3610.81 23.8162
3611.07 33.4000
3611.33 47.8905
3611.59 70.6096
3611.85 107.714
3612.11 170.738
3612.37 278.920
3612.69 493.533
3613.00 678.165
3613.32 594.166
3613.63 405.598
3613.85 306.181
3614.06 236.378
3614.28 187.564
3614.49 152.828
3614.93 108.427
3615.36 82.4986
3615.79 65.9799
3616.22 54.8105
3617.09 40.9311
3617.95 32.8506
3618.82 27.6554
3619.68 24.0732
3620.55 21.4722
3622.28 17.9757
3624.01 15.7522
3625.74 14.2229
3627.47 13.1106
3630.93 11.6065
3634.39 10.6396
3637.85 9.96706
3641.31 9.47250
3648.23 8.79378
3655.15 8.34927
3662.07 8.03477
3668.99 7.79982
3682.83 7.47020
3696.67 7.24779
3710.51 7.08585
3717.43 7.02107
3720.89 6.99677
3722.62 7.00548
3723.48 7.08525
3723.70 7.16718
3723.91 7.38276
3724.02 7.65091
3724.13 8.28716
3724.18 8.99041
3724.24 10.4156
3724.27 11.7315
3724.29 13.8908
3724.32 17.6539
3724.35 24.6571
3724.37 35.1261
3724.40 42.3570
3724.43 35.1419
3724.45 24.6764
3724.48 18.8544
3724.50 15.1826
3724.54 11.4503
3724.58 9.70654
3724.63 8.81385
3724.71 7.95307
3724.80 7.57755
3724.97 7.26017
3725.15 7.13496
3725.49 7.03621
3725.84 6.99785
3727.23 6.95094
3730.00 6.92113
3732.77 6.90290
3734.16 6.90717
3734.85 6.95538
3735.20 7.13220
3735.37 7.63881
3735.46 8.73321
3735.50 10.3000
3735.53 11.8553
3735.55 14.3111
3735.57 18.8144
3735.60 21.7428
3735.63 18.8245
3735.65 14.3094
3735.68 11.7781
3735.70 10.2022
3735.74 8.64952
3735.83 7.59254
3736.02 7.11100
3736.38 6.94084
3737.10 6.88598
3738.55 6.86253
3741.45 6.84007
3747.24 6.80359
3758.83 6.73936
3770.42 6.68286
3782.01 6.63253
3793.60 6.58792
3805.19 6.55132
3810.98 6.54044
3816.78 6.54856
3819.68 6.57823
3821.13 6.61293
3822.57 6.68037
3824.02 6.82961
3824.75 6.97940
3825.47 7.25129
3825.83 7.47901
3826.20 7.82205
3826.56 8.37451
3826.92 9.34735
3827.10 10.1378
3827.28 11.3016
3827.46 13.1150
3827.64 16.1631
3827.83 21.8616
3827.92 26.7941
3828.01 34.3537
3828.10 47.0364
3828.19 69.7305
3828.23 88.7828
3828.28 115.971
3828.32 156.349
3828.37 216.228
3828.43 342.264
3828.50 426.408
3828.57 342.510
3828.63 216.543
3828.68 156.655
3828.72 116.986
3828.81 71.3594
3828.90 48.1545
3828.99 35.3798
3829.08 27.5439
3829.16 22.5252
3829.34 16.6234
3829.52 13.4530
3829.69 11.5604
3829.87 10.3423
3830.05 9.51300
3830.40 8.48868
3830.76 7.90409
3831.11 7.53915
3831.46 7.29598
3832.17 7.00176
3832.88 6.83676
3834.30 6.66653
3835.71 6.58354
3837.13 6.53573
3839.96 6.48305
3845.62 6.43350
3851.29 6.40474
3862.62 6.36321
3868.28 6.34969
3871.11 6.36206
3871.82 6.38176
3872.53 6.44061
3872.88 6.52192
3873.24 6.74271
3873.41 7.02958
3873.59 7.75682
3873.68 8.63621
3873.77 10.6043
3873.81 12.7183
3873.86 16.6485
3873.88 20.0195
3873.90 25.1477
3873.92 33.2209
3873.94 46.6210
3873.97 70.4066
3874.00 86.8859
3874.03 70.4391
3874.06 46.5883
3874.09 29.8782
3874.12 21.2358
3874.15 16.3086
3874.18 13.4876
3874.24 10.4517
3874.30 9.00759
3874.42 7.69837
3874.54 7.15801
3874.78 6.72254
3875.03 6.55546
3875.51 6.42802
3876.00 6.38038
3876.97 6.34324
3877.94 6.32793
3881.83 6.30354
3889.60 6.27580
3905.14 6.22462
3920.68 6.17006
3936.22 6.10708
3951.77 6.02611
3959.54 5.97199
3967.31 5.89981
3975.08 5.79204
3978.96 5.71195
3982.85 5.59775
3984.79 5.51918
3986.74 5.41737
3988.68 5.27942
3990.62 5.08099
3991.59 4.94454
3992.56 4.76927
3993.54 4.53538
3994.51 4.20929
3994.99 3.99334
3995.48 3.72686
3995.96 3.39358
3996.45 2.97767
3996.94 2.48966
3997.18 2.27018
3997.42 2.19692
3997.54 2.31424
3997.66 2.66357
3997.79 3.48510
3997.91 5.28866
3997.97 6.92658
3998.03 9.44645
3998.09 13.4342
3998.15 19.8546
3998.18 24.7634
3998.21 31.0936
3998.24 39.6295
3998.27 51.3452
3998.30 68.3740
3998.33 91.9539
3998.36 125.907
3998.39 174.620
3998.45 309.698
3998.50 424.538
3998.53 418.253
3998.56 372.362
3998.61 256.026
3998.65 185.451
3998.70 139.527
3998.74 108.309
3998.78 87.4672
3998.87 61.5896
3998.96 47.1317
3999.04 38.0242
3999.13 32.0027
3999.30 24.5597
3999.48 20.2605
3999.65 17.5053
3999.82 15.6074
3999.99 14.2290
4000.34 12.3695
4000.69 11.1881
4001.03 10.3732
4001.38 9.77897
4002.07 8.97184
4002.76 8.45201
4003.46 8.08939
4004.15 7.82217
4005.53 7.45454
4006.92 7.21367
4008.30 7.04313
4009.69 6.91592
4012.46 6.73786
4015.22 6.61833
4017.99 6.53173
4020.76 6.46548
4026.30 6.36920
4031.84 6.30081
4042.92 6.20522
4053.99 6.13678
4065.07 6.08282
4070.61 6.06114
4076.15 6.04823
4078.91 6.05265
4081.68 6.08754
4083.07 6.14657
4083.76 6.20824
4084.45 6.32279
4085.15 6.56886
4085.49 6.81167
4085.84 7.24753
4086.01 7.60825
4086.18 8.14884
4086.36 9.01142
4086.53 10.5113
4086.70 13.4670
4086.79 16.1739
4086.88 20.5733
4086.96 28.6282
4087.01 35.2489
4087.05 45.1364
4087.09 61.1747
4087.14 87.6832
4087.18 135.543
4087.22 226.453
4087.26 359.967
4087.30 446.916
4087.34 360.156
4087.38 226.413
4087.42 140.369
4087.46 92.9247
4087.50 65.7581
4087.54 49.2307
4087.58 38.3614
4087.62 31.2123
4087.70 22.4764
4087.78 17.5271
4087.86 14.5320
4088.02 11.1877
4088.18 9.47804
4088.34 8.48939
4088.51 7.86693
4088.67 7.44986
4088.99 6.94293
4089.31 6.65801
4089.95 6.36547
4090.60 6.22468
4091.24 6.14578
4092.53 6.06332
4095.10 5.99653
4097.68 5.96599
4102.82 5.93057
4107.97 5.90457
4128.56 5.81484
4149.16 5.72377
4159.45 5.67548
4164.60 5.65171
4167.17 5.64521
4168.46 5.66379
4169.10 5.75280
4169.27 5.83910
4169.43 6.05833
4169.51 6.32309
4169.59 6.91171
4169.67 8.65551
4169.71 11.0534
4169.73 13.2737
4169.75 16.7356
4169.77 23.5285
4169.80 27.8616
4169.83 23.5477
4169.85 16.7597
4169.88 12.6450
4169.90 10.2071
4169.96 7.95197
4170.01 6.99259
4170.06 6.52475
4170.16 6.09281
4170.26 5.91044
4170.67 5.70143
4171.50 5.63685
4173.14 5.61178
4176.42 5.58989
4182.99 5.55243
4196.13 5.47392
4222.40 5.28798
4248.68 5.04346
4274.95 4.69969
4288.09 4.46702
4301.23 4.17081
4314.36 3.77994
4327.50 3.24067
4334.07 2.88741
4340.64 2.45537
4347.21 1.92145
4353.78 1.26624
4357.06 0.898382
4360.35 0.529504
4361.99 0.363053
4363.63 0.229563
4365.27 0.159319
4366.09 0.163265
4366.91 0.205825
4367.74 0.300872
4368.56 0.467098
4369.38 0.730978
4370.20 1.12993
4371.02 1.71795
4371.84 2.57453
4372.66 3.81950
4373.48 5.63838
4374.30 8.32764
4375.12 12.3786
4375.95 18.6413
4376.77 28.6605
4377.59 45.4063
4378.41 74.9311
4379.23 130.088
4380.05 236.652
4380.88 422.159
4381.70 585.284
4382.53 517.797
4383.35 356.456
4384.22 236.178
4385.08 165.512
4385.95 123.178
4386.81 96.3562
4387.67 78.3428
4388.54 65.6703
4390.27 49.3866
4392.00 39.5968
4393.73 33.1870
4397.19 25.4415
4400.64 21.0148
4404.10 18.2048
4405.83 17.1825
4406.70 16.7565
4407.56 16.4013
4408.43 16.1629
4408.86 16.1327
4409.29 16.2355
4409.72 16.6537
4409.94 17.1407
4410.16 18.0626
4410.37 19.9958
4410.48 21.8220
4410.59 24.9142
4410.70 30.7165
4410.75 35.7075
4410.80 43.4344
4410.86 56.2185
4410.91 79.2518
4410.94 98.0488
4410.97 125.288
4410.99 165.595
4411.02 225.122
4411.06 351.430
4411.10 435.710
4411.14 351.581
4411.18 225.293
4411.21 167.562
4411.23 129.129
4411.28 83.5454
4411.33 59.4536
4411.38 46.0462
4411.43 37.6361
4411.48 32.2414
4411.58 25.8402
4411.68 22.3136
4411.78 20.2024
4411.99 17.8606
4412.19 16.6507
4412.39 15.9312
4412.79 15.1223
4413.19 14.6693
4413.59 14.3653
4414.40 13.9476
4416.01 13.3853
4417.61 12.9536
4419.22 12.5844
4420.83 12.2569
4424.05 11.6920
4430.48 10.8076
4436.91 10.1319
4443.34 9.58202
4449.77 9.10309
4456.21 8.64837
4459.42 8.42872
4460.23 8.38929
4461.03 8.39314
4461.43 8.45443
4461.83 8.67756
4462.04 8.99505
4462.24 9.82894
4462.34 10.8523
4462.44 13.1678
4462.49 15.6650
4462.54 20.3491
4462.56 24.3918
4462.59 30.5757
4462.61 40.3717
4462.64 56.0132
4462.67 84.7838
4462.70 103.996
4462.73 84.8548
4462.76 56.0979
4462.80 36.7910
4462.83 26.5959
4462.86 20.7893
4462.89 17.2675
4462.96 13.4279
4463.02 11.5748
4463.15 9.88272
4463.28 9.16821
4463.54 8.57164
4463.79 8.32723
4464.31 8.10820
4464.82 7.99285
4465.85 7.83278
4466.88 7.69052
4468.94 7.37934
4471.00 6.97545
4472.03 6.71241
4473.06 6.38471
4474.09 5.96059
4475.12 5.38578
4475.64 5.01422
4476.15 4.56440
4476.67 4.01548
4477.18 3.35410
4477.70 2.63786
4477.95 2.37140
4478.21 2.41199
4478.34 2.72064
4478.47 3.43979
4478.60 4.93441
4478.73 7.94549
4478.79 10.5460
4478.86 14.3046
4478.92 19.9215
4478.98 28.5386
4479.05 42.4574
4479.11 65.0565
4479.18 103.507
4479.24 169.748
4479.32 307.526
4479.40 433.680
4479.44 432.599
4479.48 389.252
4479.56 272.509
4479.63 198.423
4479.70 149.362
4479.76 116.975
4479.83 94.9240
4479.96 67.9585
4480.10 52.7279
4480.23 43.2246
4480.37 36.8419
4480.63 28.9524
4480.90 24.3489
4481.17 21.3700
4481.44 19.2995
4481.71 17.7834
4482.24 15.7207
4482.78 14.3879
4483.31 13.4577
4483.85 12.7729
4484.92 11.8279
4485.99 11.2063
4487.06 10.7636
4488.13 10.4310
4490.28 9.95953
4492.42 9.63672
4496.71 9.21146
4500.99 8.93298
4505.28 8.72908
4513.85 8.43729
4522.42 8.22805
4531.00 8.06464
4535.28 7.99483
4539.57 7.93212
4543.85 7.88281
4546.00 7.89596
4546.53 7.93108
4547.07 8.04001
4547.34 8.19067
4547.61 8.59265
4547.74 9.10042
4547.87 10.3308
4547.94 11.7245
4548.01 14.6381
4548.04 17.4726
4548.07 22.1469
4548.11 30.6204
4548.14 46.6431
4548.17 69.9847
4548.20 85.5824
4548.23 70.0716
4548.26 46.7513
4548.28 34.1369
4548.31 26.4621
4548.33 21.5101
4548.35 18.2142
4548.40 14.2622
4548.45 12.2020
4548.54 10.1901
4548.63 9.29467
4548.82 8.54241
4549.00 8.24222
4549.38 8.00629
4549.75 7.91516
4550.49 7.84137
4551.24 7.80888
4554.21 7.75049
4560.16 7.67891
4566.11 7.61712
4572.06 7.56009
4583.96 7.45600
4595.85 7.36137
4619.65 7.18662
4631.55 7.09992
4637.50 7.05590
4640.47 7.03734
4641.96 7.04369
4642.70 7.10446
4643.08 7.32718
4643.17 7.52387
4643.26 7.97968
4643.36 9.42659
4643.40 11.5761
4643.42 13.7163
4643.45 17.2774
4643.47 23.5326
4643.50 27.5061
4643.53 23.2664
4643.55 17.2348
4643.58 13.8140
4643.60 11.7776
4643.64 9.62823
4643.72 8.10268
4643.81 7.59582
4643.89 7.37097
4644.23 7.10697
4644.90 7.02300
4646.25 6.99035
4648.94 6.96157
4654.32 6.91066
4659.70 6.85580
4665.08 6.79435
4670.47 6.72447
4675.85 6.64783
4678.54 6.61452
4681.23 6.61339
4682.58 6.66427
4683.25 6.73134
4683.92 6.86739
4684.60 7.17551
4684.93 7.48708
4685.27 8.04909
4685.44 8.51821
4685.61 9.21712
4685.77 10.3288
4685.94 12.2496
4686.11 15.9927
4686.19 19.3530
4686.28 24.8017
4686.36 34.4501
4686.40 42.2924
4686.45 53.7788
4686.49 71.4007
4686.53 99.9195
4686.57 148.645
4686.61 233.966
4686.66 372.288
4686.70 461.761
4686.74 369.038
4686.79 234.093
4686.83 144.300
4686.88 94.9896
4686.92 66.9958
4686.97 50.0708
4687.01 39.2094
4687.06 31.8786
4687.15 23.0341
4687.24 18.0234
4687.33 14.9838
4687.50 11.5873
4687.68 9.84649
4687.86 8.83669
4688.22 7.76817
4688.58 7.23981
4688.94 6.93641
4689.65 6.60939
4690.37 6.43458
4691.09 6.32029
4692.52 6.16002
4695.38 5.89550
4698.25 5.57774
4699.68 5.36841
4701.11 5.10329
4702.54 4.75352
4703.98 4.26971
4704.69 3.95140
4705.41 3.56157
4706.12 3.07811
4706.84 2.48131
4707.56 1.80055
4707.91 1.51079
4708.27 1.44906
4708.45 1.64626
4708.63 2.17946
4708.81 3.36444
4708.90 4.39719
4708.99 5.88890
4709.08 8.11416
4709.17 11.4123
4709.26 16.5295
4709.35 24.5307
4709.44 37.8347
4709.53 60.4755
4709.62 101.841
4709.70 177.518
4709.80 320.094
4709.90 448.746
4710.00 400.737
4710.10 278.324
4710.19 195.975
4710.27 144.169
4710.36 111.008
4710.45 88.9467
4710.63 62.4665
4710.80 47.9270
4710.98 38.9300
4711.16 32.9797
4711.51 25.6825
4711.86 21.4466
4712.21 18.7282
4712.57 16.8408
4712.92 15.4672
4713.62 13.6027
4714.33 12.4040
4715.03 11.5712
4715.74 10.9603
4717.15 10.1251
4718.56 9.58161
4719.97 9.19982
4721.38 8.91681
4724.20 8.52478
4727.02 8.26540
4729.84 8.08041
4732.66 7.94132
4738.30 7.74478
4743.94 7.61123
4755.22 7.43788
4766.50 7.32713
4777.78 7.24842
4789.06 7.19106
4794.70 7.17836
4796.11 7.18516
4797.52 7.21460
4798.23 7.25952
4798.93 7.38764
4799.28 7.56131
4799.64 8.02486
4799.81 8.62453
4799.90 9.18074
4799.99 10.1197
4800.08 11.8884
4800.12 13.4219
4800.16 15.8201
4800.21 19.8508
4800.25 27.2962
4800.27 33.5318
4800.30 42.7975
4800.32 56.9479
4800.34 78.9741
4800.37 121.712
4800.40 150.499
4800.43 121.556
4800.46 78.6599
4800.49 53.7175
4800.51 38.3806
4800.54 29.1559
4800.57 23.5180
4800.62 17.0195
4800.67 13.6953
4800.73 11.7890
4800.78 10.6010
4800.88 9.26434
4800.99 8.57144
4801.10 8.16742
4801.31 7.73975
4801.73 7.41158
4802.16 7.29028
4803.01 7.19913
4803.85 7.16485
4807.25 7.12364
4814.04 7.10129
4817.43 7.10184
4820.83 7.12705
4822.52 7.17293
4824.22 7.31339
4825.07 7.51187
4825.49 7.70905
4825.92 8.06499
4826.34 8.80886
4826.55 9.52469
4826.77 10.7783
4826.98 13.2747
4827.08 15.5693
4827.19 19.3853
4827.30 26.4043
4827.35 32.3358
4827.40 41.3671
4827.45 55.9747
4827.51 81.4474
4827.56 129.898
4827.59 171.242
4827.61 227.752
4827.66 362.092
4827.70 449.172
4827.74 359.382
4827.79 228.433
4827.82 158.028
4827.86 113.246
4827.89 84.5984
4827.92 66.1311
4827.99 43.9661
4828.06 32.1152
4828.12 25.0385
4828.19 20.6176
4828.33 15.5393
4828.46 12.8378
4828.59 11.2553
4828.73 10.2429
4828.86 9.55651
4829.13 8.70993
4829.40 8.22943
4829.94 7.73242
4830.48 7.49223
4831.01 7.35801
4832.09 7.21971
4834.24 7.11395
4836.38 7.07209
4840.68 7.03440
4844.98 7.01417
4853.58 6.98711
4862.18 6.96604
4879.37 6.93069
4896.56 6.90036
4913.76 6.87342
4930.95 6.84921
4948.15 6.82820
4956.74 6.82335
4961.04 6.84121
4962.12 6.86365
4963.19 6.92899
4963.73 7.01958
4964.26 7.26867
4964.53 7.60002
4964.67 7.91591
4964.80 8.46445
4964.94 9.55482
4965.00 10.5403
4965.07 12.1590
4965.14 15.0819
4965.17 17.5499
4965.20 21.1288
4965.24 26.9491
4965.27 36.4462
4965.31 54.1338
4965.34 87.4962
4965.37 135.220
4965.40 168.175
4965.43 135.314
4965.46 87.4818
4965.50 54.2407
4965.53 36.5372
4965.56 26.8101
4965.60 21.1955
4965.63 17.5208
4965.66 15.0738
4965.73 12.1691
4965.80 10.5382
4965.87 9.56102
4966.00 8.47592
4966.14 7.92472
4966.27 7.60725
4966.54 7.27463
4967.08 7.02228
4967.62 6.92942
4968.70 6.85996
4969.78 6.83420
4974.10 6.80501
4982.73 6.78924
5000.00 6.76984
5017.22 6.75335
5025.84 6.74663
5030.14 6.74702
5032.29 6.76101
5033.37 6.81933
5033.91 7.02876
5034.04 7.22230
5034.18 7.69289
5034.25 8.24439
5034.31 9.41185
5034.35 10.5790
5034.38 12.5649
5034.41 16.4999
5034.45 24.3769
5034.47 34.9109
5034.50 41.9971
5034.53 34.8956
5034.55 24.3578
5034.58 18.2952
5034.60 14.6444
5034.65 10.9468
5034.69 9.29953
5034.74 8.44756
5034.83 7.64197
5034.92 7.29630
5035.11 7.00950
5035.29 6.89775
5036.03 6.77936
5037.51 6.74623
5040.46 6.73566
5046.37 6.72922
5058.18 6.72233
5064.09 6.72245
5070.00 6.73210
5072.95 6.75000
5075.90 6.80531
5077.38 6.88408
5078.12 6.96297
5078.86 7.10667
5079.59 7.41113
5079.96 7.70934
5080.33 8.24195
5080.70 9.33684
5080.89 10.3826
5081.07 12.1807
5081.26 15.7144
5081.35 18.8829
5081.44 24.0357
5081.53 33.3397
5081.58 40.8889
5081.62 52.0131
5081.67 69.2185
5081.72 97.3776
5081.76 146.244
5081.81 233.527
5081.85 369.736
5081.90 460.624
5081.95 369.919
5081.99 233.760
5082.02 173.080
5082.05 130.869
5082.11 81.0492
5082.17 55.2623
5082.22 40.8178
5082.28 31.7571
5082.34 25.8392
5082.45 18.9161
5082.57 15.1283
5082.69 12.8739
5082.92 10.4166
5083.15 9.17507
5083.38 8.46535
5083.84 7.72791
5084.30 7.37084
5084.76 7.17192
5085.68 6.96880
5087.53 6.81851
5089.37 6.76371
5093.06 6.72208
5096.75 6.70552
5104.13 6.69019
5111.51 6.68161
5126.27 6.67158
5133.65 6.67850
5135.50 6.69047
5137.34 6.72749
5138.27 6.78039
5139.19 6.92998
5139.65 7.13458
5139.88 7.33494
5140.11 7.68990
5140.34 8.41810
5140.46 9.10299
5140.57 10.2748
5140.69 12.5541
5140.75 14.5827
5140.80 17.7696
5140.86 23.3989
5140.92 34.1159
5140.95 43.7025
5140.98 58.7177
5141.01 83.2353
5141.03 122.001
5141.07 192.455
5141.10 237.705
5141.13 190.532
5141.17 122.356
5141.20 83.5704
5141.22 60.3426
5141.25 45.6491
5141.28 36.0197
5141.33 24.8251
5141.38 18.9179
5141.44 15.4604
5141.49 13.2744
5141.60 10.7797
5141.71 9.45906
5141.82 8.69026
5142.03 7.86795
5142.25 7.45928
5142.47 7.22880
5142.90 6.99022
5143.76 6.81112
5144.63 6.74549
5146.36 6.69631
5148.09 6.67778
5155.01 6.65577
5168.85 6.64267
5182.70 6.63594
5189.62 6.64207
5191.35 6.65171
5193.08 6.68087
5193.94 6.72196
5194.81 6.83727
5195.24 6.99390
5195.67 7.41677
5195.89 7.97106
5196.00 8.49193
5196.11 9.38293
5196.21 11.0950
5196.27 12.6105
5196.32 15.0321
5196.38 19.2298
5196.43 27.3607
5196.46 34.5131
5196.48 45.6691
5196.51 63.8068
5196.54 94.1154
5196.57 147.195
5196.60 181.536
5196.63 147.247
5196.66 94.0417
5196.68 71.2536
5196.70 54.6756
5196.74 35.2240
5196.78 25.2275
5196.82 19.5821
5196.86 16.1281
5196.90 13.8764
5196.98 11.2542
5197.06 9.81493
5197.14 8.96229
5197.30 8.02845
5197.46 7.55741
5197.62 7.29024
5197.94 7.01206
5198.57 6.80247
5199.21 6.72601
5200.48 6.66940
5201.76 6.64875
5206.85 6.62673
5217.04 6.61946
5222.13 6.62153
5227.22 6.63516
5229.77 6.65799
5232.32 6.72731
5233.59 6.82614
5234.23 6.92541
5234.86 7.10622
5235.50 7.48949
5235.82 7.86430
5236.14 8.53174
5236.45 9.90178
5236.61 11.1939
5236.77 13.4087
5236.93 17.6745
5237.01 21.4873
5237.09 27.5131
5237.17 38.1195
5237.25 58.4572
5237.29 76.6085
5237.33 105.071
5237.37 151.628
5237.41 226.341
5237.45 358.573
5237.50 447.044
5237.55 359.317
5237.59 227.274
5237.63 152.507
5237.67 107.670
5237.71 79.5913
5237.75 61.3343
5237.82 40.2786
5237.90 29.2527
5237.97 22.8309
5238.05 18.7841
5238.20 14.1799
5238.35 11.7659
5238.51 10.3468
5238.81 8.83200
5239.11 8.08292
5239.42 7.65831
5240.03 7.21911
5240.63 7.00773
5241.24 6.88970
5242.46 6.76887
5244.89 6.67848
5247.32 6.64469
5252.19 6.61791
5257.05 6.60645
5276.51 6.58738
5315.42 6.56682
5334.88 6.55869
5354.33 6.55335
5364.06 6.55445
5373.79 6.56713
5378.66 6.59020
5381.09 6.61519
5383.52 6.66294
5385.95 6.76866
5387.17 6.87589
5388.38 7.07307
5388.99 7.23970
5389.60 7.49410
5390.21 7.90964
5390.82 8.65539
5391.12 9.27225
5391.42 10.1959
5391.73 11.6669
5392.03 14.2163
5392.34 19.2080
5392.49 23.7121
5392.64 31.0525
5392.79 44.1446
5392.87 54.8610
5392.94 70.6628
5393.02 95.1200
5393.10 135.177
5393.17 204.747
5393.25 329.129
5393.32 523.499
5393.40 653.726
5393.48 525.004
5393.55 331.020
5393.60 238.429
5393.66 176.016
5393.71 134.007
5393.76 105.108
5393.86 69.8005
5393.97 50.2473
5394.07 38.4353
5394.18 30.8006
5394.38 21.9008
5394.59 17.1262
5394.80 14.2771
5395.01 12.4434
5395.22 11.1943
5395.63 9.65050
5396.05 8.76833
5396.46 8.21696
5396.88 7.84993
5397.71 7.40426
5398.54 7.15465
5399.37 7.00021
5400.21 6.89804
5401.87 6.77475
5403.53 6.70575
5406.86 6.63437
5410.19 6.59939
5413.51 6.57920
5420.16 6.55709
5433.47 6.53713
5446.78 6.52658
5473.39 6.51280
5500.00 6.50219
5500.00 7.34339
6000.00 7.23135
7000.00 7.11390
8000.00 7.06260
9000.00 7.04615
10000.0 7.04228
15000.0 7.05949
20000.0 7.13943
30000.0 7.39923
40000.0 7.54837
50000.0 7.62735
60000.0 7.66474
70000.0 7.69195
80000.0 7.70474
90000.0 7.70322
100000 7.68555
150000 7.56892
200000 7.48699
250000 7.43328
300000 7.38773
350000 7.34016
400000 7.29207
437994 7.25710
437995 7.25710
450000 7.24549
500000 7.19620
550000 7.14743
600000 7.09246
650000 7.03411
700000 6.97247
750000 6.91027
800000 6.84561
850000 6.77638
900000 6.70105
939905 6.63585
939905 6.63585
950000 6.61904
1.00000E+06 6.54079
1.05802E+06 6.47122
1.05802E+06 6.47122
1.06262E+06 6.46642
1.06262E+06 6.46642
1.10000E+06 6.42850
1.20000E+06 6.31032
1.30000E+06 6.17087
1.32650E+06 6.13585
1.32650E+06 6.13585
1.34768E+06 6.10845
1.34768E+06 6.10844
1.40000E+06 6.04307
1.45465E+06 5.97828
1.45465E+06 5.97828
1.50000E+06 5.92679
1.55436E+06 5.86753
1.55436E+06 5.86753
1.60000E+06 5.81968
1.64029E+06 5.77883
1.64029E+06 5.77883
1.70000E+06 5.72044
1.78772E+06 5.62876
1.78772E+06 5.62876
1.80000E+06 5.61496
1.90000E+06 5.49788
1.97428E+06 5.40885
1.97429E+06 5.40885
2.00000E+06 5.37822
2.00845E+06 5.36821
2.00845E+06 5.36821
2.03384E+06 5.33829
2.03384E+06 5.33829
2.06578E+06 5.30098
2.06578E+06 5.30097
2.10000E+06 5.26145
2.11829E+06 5.24053
2.11829E+06 5.24053
2.16101E+06 5.19225
2.16102E+06 5.19225
2.20000E+06 5.14895
2.23873E+06 5.10668
2.23873E+06 5.10668
2.30000E+06 5.04142
2.30251E+06 5.03878
2.30252E+06 5.03878
2.30381E+06 5.03743
2.30381E+06 5.03743
2.33967E+06 5.00024
2.33967E+06 5.00024
2.38408E+06 4.95517
2.38408E+06 4.95517
2.40000E+06 4.93928
2.41386E+06 4.92557
2.41386E+06 4.92557
2.42657E+06 4.91308
2.42657E+06 4.91308
2.44060E+06 4.89940
2.44060E+06 4.89940
2.50000E+06 4.84275
2.60000E+06 4.74774
2.70000E+06 4.65312
2.80000E+06 4.56316
2.90000E+06 4.48094
3.00000E+06 4.40865
3.10000E+06 4.35021
3.20000E+06 4.30481
3.50000E+06 4.21122
3.69487E+06 4.16460
3.69487E+06 4.16460
3.73625E+06 4.15577
3.73625E+06 4.15577
3.73625E+06 4.15577
3.89095E+06 4.12641
3.89095E+06 4.12641
4.00000E+06 4.10940
4.50000E+06 4.06285
5.00000E+06 4.06390
5.50000E+06 4.08609
6.00000E+06 4.13076
6.50000E+06 4.15929
7.00000E+06 4.20236
7.50000E+06 4.25571
7.79766E+06 4.29500
7.79766E+06 4.29500
7.99359E+06 4.31690
7.99359E+06 4.31690
8.00000E+06 4.31743
8.08028E+06 4.32388
8.08028E+06 4.32388
8.20735E+06 4.33360
8.20736E+06 4.33360
8.26458E+06 4.33786
8.26459E+06 4.33786
8.50000E+06 4.35529
9.00000E+06 4.39246
9.30657E+06 4.41006
9.30657E+06 4.41006
9.50000E+06 4.41887
1.00000E+07 4.43732
1.00430E+07 4.43920
1.00431E+07 4.43920
1.05000E+07 4.46207
1.10000E+07 4.47549
1.15000E+07 4.47571
1.20000E+07 4.46386
1.25000E+07 4.44537
1.28782E+07 4.42684
1.28782E+07 4.42684
1.30000E+07 4.41986
1.35000E+07 4.38161
1.40000E+07 4.33458
1.45000E+07 4.30086
1.50000E+07 4.26190
1.55000E+07 4.21766
1.59061E+07 4.18063
1.59061E+07 4.18063
1.60000E+07 4.17108
1.64461E+07 4.12181
1.65000E+07 4.11563
1.70000E+07 4.05776
1.75000E+07 4.00138
1.80000E+07 3.94700
1.85000E+07 3.89433
1.86915E+07 3.87470
1.90000E+07 3.84384
1.95000E+07 3.79594
2.00000E+07 3.75033
2.10000E+07 3.66527
2.20000E+07 3.58800
2.30000E+07 3.51352
2.40000E+07 3.44183
2.50000E+07 3.35825
2.55578E+07 3.31400
2.60000E+07 3.28013
2.70000E+07 3.22650
2.80000E+07 3.18814
2.90000E+07 3.16493
3.00000E+07 3.15275