Cd-114(n,tot) ENDF/B-VII.1
Energy(eV) XS(b)
1.00000E-05 21.0433
1.25000E-05 19.4220
1.50000E-05 18.2251
2.00000E-05 16.5451
2.75000E-05 14.9466
3.50000E-05 13.8946
4.25000E-05 13.1352
5.00000E-05 12.5538
6.25000E-05 11.8287
7.50000E-05 11.2934
0.000100000 10.5421
0.000125000 10.0294
0.000150000 9.65092
0.000200000 9.11967
0.000275000 8.61418
0.000350000 8.28150
0.000425000 8.04134
0.000500000 7.85748
0.000625000 7.62819
0.000750000 7.45893
0.00100000 7.22134
0.00125000 7.05920
0.00150000 6.93952
0.00200000 6.77152
0.00275000 6.61167
0.00350000 6.50646
0.00425000 6.43051
0.00500000 6.37237
0.00625000 6.29985
0.00750000 6.24632
0.0100000 6.17118
0.0125000 6.11990
0.0150000 6.08204
0.0200000 6.02889
0.0253000 5.99078
0.0314750 5.95917
0.0376500 5.93568
0.0500000 5.90252
0.0625000 5.87953
0.0750000 5.86253
0.100000 5.83864
0.125000 5.82230
0.150000 5.81020
0.200000 5.79313
0.275000 5.77675
0.350000 5.76582
0.500000 5.75160
0.750000 5.73764
1.00000 5.72877
1.50000 5.71712
2.00000 5.70906
2.75000 5.69988
3.50000 5.69240
5.00000 5.67983
7.50000 5.66183
10.0000 5.64529
15.0000 5.61365
20.0000 5.58240
27.5000 5.53472
35.0000 5.48495
42.5000 5.43209
50.0000 5.37571
51.5972 5.36387
53.1944 5.35386
53.9930 5.35166
54.3923 5.35280
54.7916 5.35767
55.1909 5.37187
55.3906 5.38756
55.5902 5.41721
55.6900 5.44244
55.7899 5.48089
55.8897 5.54327
55.9895 5.65367
56.0893 5.87635
56.1392 6.08347
56.1892 6.43225
56.2391 7.08608
56.2640 7.64961
56.2890 8.52472
56.3139 9.98162
56.3389 12.6305
56.3514 14.8146
56.3639 18.0103
56.3763 22.7959
56.3888 29.9522
56.4067 44.7558
56.4246 54.6285
56.4425 44.7503
56.4604 29.9534
56.4817 19.2331
56.5029 13.8331
56.5242 10.9580
56.5454 9.29485
56.5667 8.26018
56.5880 7.57742
56.6305 6.76547
56.6730 6.32164
56.7155 6.05362
56.8006 5.76050
56.8856 5.61224
56.9706 5.52691
57.0557 5.47323
57.1407 5.43718
57.3108 5.39299
57.4809 5.36764
57.8210 5.34029
58.1612 5.32569
58.5013 5.31624
59.1816 5.30356
60.5422 5.28610
61.9029 5.27130
67.3453 5.21325
78.2302 5.07403
89.1151 4.87221
94.5576 4.72472
100.000 4.51624
102.509 4.38601
105.019 4.22173
107.528 4.00724
110.038 3.71545
111.292 3.52731
112.547 3.30148
113.802 3.03179
115.056 2.72606
115.684 2.57872
116.311 2.47274
116.938 2.49517
117.566 2.89451
117.879 3.44254
117.958 3.64645
118.036 3.88666
118.115 4.17027
118.193 4.50564
118.272 4.90368
118.350 5.37624
118.389 5.64552
118.428 5.93989
118.507 6.61505
118.585 7.42777
118.664 8.41173
118.742 9.61096
118.820 11.0838
118.899 12.9115
118.977 15.1968
119.056 18.0919
119.134 21.8104
119.213 26.6645
119.291 33.1238
119.369 41.9186
119.448 54.2322
119.526 72.1047
119.605 99.1317
119.683 142.427
119.761 217.279
119.801 276.576
119.840 361.411
119.879 488.111
119.918 687.894
119.957 1025.75
119.997 1651.53
120.016 2174.90
120.036 2949.70
120.055 4125.23
120.075 5909.67
120.103 9562.57
120.130 12108.3
120.158 9868.06
120.185 6290.70
120.205 4496.34
120.224 3290.92
120.244 2482.94
120.263 1928.78
120.302 1253.00
120.341 879.219
120.380 651.946
120.419 504.336
120.497 330.941
120.575 236.462
120.653 179.308
120.731 141.900
120.809 116.057
120.965 83.3811
121.120 64.1326
121.276 51.7413
121.432 43.2371
121.744 32.5298
122.056 26.2058
122.368 22.1042
122.679 19.2626
123.303 15.6281
123.926 13.4338
124.550 11.9800
125.174 10.9527
126.421 9.60532
127.668 8.76593
128.915 8.19480
130.162 7.78159
132.656 7.22362
135.150 6.86344
137.645 6.61052
140.139 6.42209
145.127 6.15713
150.116 5.97622
155.104 5.84164
160.093 5.73517
170.069 5.57101
180.046 5.44280
200.000 5.23371
206.716 5.16995
213.432 5.10846
216.790 5.07963
218.469 5.06662
220.148 5.05599
221.827 5.05139
222.666 5.05478
223.506 5.06761
223.925 5.08124
224.345 5.10426
224.765 5.14478
225.185 5.22186
225.395 5.28810
225.604 5.39012
225.814 5.55812
226.024 5.86215
226.129 6.11596
226.234 6.49871
226.339 7.11518
226.444 8.20161
226.496 9.08639
226.549 10.3916
226.601 12.4309
226.654 15.8638
226.706 22.3314
226.732 27.9165
226.759 36.6246
226.785 51.2661
226.811 78.0497
226.824 100.318
226.837 133.167
226.850 182.859
226.864 258.081
226.882 410.130
226.900 510.657
226.918 409.274
226.937 258.120
226.957 153.387
226.977 98.1387
226.997 67.7198
227.017 49.7891
227.037 38.3889
227.058 30.8135
227.098 21.6707
227.138 16.6170
227.178 13.5437
227.259 10.1630
227.340 8.44459
227.420 7.45678
227.501 6.83674
227.582 6.42222
227.743 5.91940
227.904 5.63771
228.065 5.46373
228.227 5.34870
228.549 5.21010
228.872 5.13229
229.194 5.08366
229.517 5.05078
230.162 5.00924
230.807 4.98364
231.452 4.96562
232.097 4.95166
233.387 4.92993
234.677 4.91222
237.256 4.88148
242.416 4.82518
247.576 4.76944
268.216 4.52607
288.856 4.22371
309.495 3.81687
319.815 3.54957
330.135 3.21661
340.455 2.78872
350.775 2.22033
355.935 1.86397
361.095 1.44978
366.255 0.982466
371.414 0.518524
373.994 0.355648
374.639 0.333739
375.284 0.323444
375.929 0.327701
376.574 0.350183
377.219 0.395528
377.542 0.428551
377.864 0.469608
378.509 0.579921
379.154 0.736121
379.799 0.950754
380.444 1.24028
381.089 1.62655
381.734 2.13886
382.379 2.81741
383.024 3.71764
384.314 6.53109
384.959 8.72390
385.604 11.7495
386.249 16.0049
386.894 22.1376
387.539 31.2591
388.184 45.3835
388.829 68.4504
389.474 108.943
389.797 141.273
390.119 187.674
390.442 257.018
390.764 366.042
391.087 548.867
391.409 881.699
391.570 1154.68
391.732 1550.53
391.893 2136.16
392.054 3001.34
392.302 4948.00
392.550 6370.42
392.798 5244.32
393.046 3370.61
393.255 2285.04
393.464 1607.01
393.673 1179.93
393.882 900.533
394.299 575.094
394.717 401.935
395.135 299.329
395.553 233.507
396.388 156.684
397.224 114.921
398.060 89.4884
398.895 72.7239
399.731 61.0123
401.402 45.9827
403.073 36.9305
404.744 30.9747
406.415 26.8018
409.758 21.4012
413.100 18.0977
416.442 15.8877
419.785 14.3132
426.469 12.2290
433.154 10.9162
439.838 10.0142
446.523 9.35545
459.892 8.45327
473.262 7.85756
486.631 7.42727
500.000 7.09482
516.998 6.75724
533.996 6.47574
550.993 6.22359
555.243 6.16298
559.492 6.10347
561.617 6.07491
563.742 6.04975
564.804 6.04187
565.335 6.04161
565.867 6.04744
566.398 6.06852
566.663 6.09316
566.929 6.14086
567.062 6.18200
567.195 6.24530
567.327 6.34901
567.460 6.53493
567.527 6.68820
567.593 6.91681
567.659 7.27894
567.726 7.90175
567.792 9.10765
567.825 10.1835
567.859 11.9165
567.892 14.9565
567.925 20.9556
567.942 26.3374
567.958 34.9016
567.975 49.1989
567.991 73.3271
568.009 113.903
568.028 140.775
568.046 113.667
568.064 73.3299
568.076 53.8256
568.089 40.7701
568.102 32.0367
568.114 26.0986
568.139 18.8373
568.164 14.8323
568.190 12.4125
568.215 10.8595
568.265 9.05326
568.315 8.08536
568.365 7.51044
568.416 7.14038
568.466 6.88924
568.566 6.57893
568.667 6.40180
568.767 6.29103
568.868 6.21703
569.069 6.12670
569.270 6.07519
569.672 6.02005
570.074 5.99094
570.476 5.97229
571.279 5.94769
572.887 5.91478
574.495 5.88769
577.710 5.83716
580.926 5.78723
593.788 5.57665
606.650 5.33158
619.511 5.02153
625.942 4.82495
632.373 4.58370
638.804 4.27431
645.235 3.85421
648.451 3.57902
651.666 3.23874
654.882 2.80714
658.097 2.24686
659.705 1.90562
661.313 1.52276
662.920 1.11897
664.528 0.788854
664.930 0.749518
665.332 0.746595
665.734 0.797891
665.935 0.851773
666.136 0.930176
666.337 1.03882
666.538 1.18475
666.739 1.37692
666.940 1.62660
667.141 1.94872
667.342 2.36198
667.543 2.89184
667.744 3.57102
668.146 5.57510
668.548 8.98040
668.949 15.0302
669.150 19.8152
669.351 26.5495
669.552 36.3120
669.753 50.9770
669.954 74.0460
670.155 112.568
670.356 182.401
670.457 239.752
670.557 323.845
670.658 452.518
670.758 658.414
670.859 1002.73
670.959 1587.98
671.075 2645.21
671.190 3440.28
671.306 2857.52
671.421 1851.73
671.500 1355.03
671.579 1014.24
671.658 781.056
671.737 618.239
671.895 415.316
672.052 300.121
672.210 228.804
672.368 181.678
672.684 125.016
672.999 93.3129
673.315 73.6415
673.631 60.4913
673.946 51.2098
674.578 39.1620
675.209 31.8205
675.840 26.9480
676.472 23.5102
677.734 19.0258
678.997 16.2586
680.260 14.3937
681.522 13.0562
684.047 11.2695
686.573 10.1293
689.098 9.33416
691.623 8.74330
696.674 7.90791
701.724 7.32229
706.775 6.86230
711.825 6.46412
721.926 5.69626
726.977 5.25345
732.027 4.70049
734.553 4.35283
737.078 3.93111
739.603 3.40340
742.128 2.72428
743.391 2.31217
744.654 1.85013
745.916 1.36193
747.179 0.957382
747.495 0.906179
747.810 0.897188
748.126 0.951065
748.284 1.01070
748.442 1.09878
748.600 1.22189
748.757 1.38805
748.915 1.60761
749.073 1.89367
749.231 2.26331
749.389 2.73787
749.546 3.34612
749.704 4.12590
750.020 6.42305
750.336 10.3120
750.651 17.1818
750.809 22.5787
750.967 30.1328
751.125 41.0030
751.283 57.1594
751.440 82.2312
751.598 123.336
751.756 195.837
751.835 253.718
751.914 336.455
751.993 458.641
752.072 645.413
752.151 939.613
752.229 1405.81
752.335 2353.03
752.440 3069.05
752.545 2559.50
752.651 1669.01
752.753 1084.06
752.855 740.813
752.958 535.214
753.060 405.418
753.163 319.061
753.265 258.922
753.470 182.885
753.675 138.320
753.879 109.838
754.289 76.5520
754.699 58.3071
755.108 47.0724
755.518 39.5765
755.927 34.2757
756.746 27.3551
757.566 23.0925
758.385 20.2304
759.204 18.1877
760.842 15.4820
762.480 13.7797
764.119 12.6135
765.757 11.7654
769.033 10.6139
772.310 9.86665
775.587 9.34042
778.863 8.94803
785.416 8.39759
791.969 8.02535
798.522 7.75320
805.075 7.54311
818.182 7.23446
831.288 7.01297
857.500 6.70243
883.712 6.48115
909.925 6.30335
923.031 6.22351
936.137 6.14731
942.690 6.11036
949.243 6.07486
952.520 6.05881
955.796 6.04759
957.435 6.04862
958.254 6.05433
959.073 6.06867
959.892 6.10467
960.302 6.14282
960.711 6.21411
960.916 6.27482
961.121 6.36786
961.326 6.52040
961.530 6.79533
961.633 7.02402
961.735 7.36837
961.838 7.92141
961.940 8.89243
961.991 9.67947
962.042 10.8360
962.094 12.6337
962.145 15.6456
962.196 21.2507
962.222 26.0476
962.247 33.4472
962.273 45.6395
962.298 67.4907
962.324 110.831
962.337 148.494
962.349 203.240
962.369 321.872
962.388 400.394
962.407 321.206
962.426 203.227
962.445 129.882
962.463 87.9231
962.482 63.0817
962.500 47.7515
962.518 37.6710
962.537 30.8099
962.573 22.3198
962.610 17.5126
962.647 14.5419
962.720 11.2251
962.793 9.51758
962.867 8.52605
962.940 7.90013
963.014 7.48049
963.160 6.96899
963.307 6.68136
963.454 6.50362
963.601 6.38612
963.894 6.24482
964.188 6.16605
964.775 6.08489
965.362 6.04502
965.949 6.02165
967.123 5.99483
969.472 5.96674
971.820 5.94789
976.517 5.91637
981.213 5.88669
990.607 5.82695
1000.00 5.76411
1012.51 5.67221
1025.02 5.56559
1037.52 5.43471
1050.03 5.26134
1056.28 5.14768
1062.54 5.00469
1068.79 4.81590
1075.04 4.55014
1078.17 4.36990
1081.30 4.13978
1084.42 3.83466
1087.55 3.41031
1089.11 3.12960
1090.68 2.78331
1092.24 2.34950
1093.80 1.80704
1094.59 1.49587
1095.37 1.17683
1096.15 0.907826
1096.54 0.839494
1096.93 0.874022
1097.13 0.957121
1097.32 1.10690
1097.52 1.35239
1097.71 1.73106
1097.91 2.30711
1098.10 3.16675
1098.30 4.45777
1098.49 6.41920
1098.69 9.48137
1098.89 14.3640
1099.08 22.5924
1099.28 37.2102
1099.37 49.0073
1099.47 65.9474
1099.57 91.1576
1099.67 129.867
1099.77 193.934
1099.86 304.831
1099.96 515.852
1100.01 689.642
1100.06 928.109
1100.15 1568.70
1100.23 2058.50
1100.32 1724.69
1100.41 1131.37
1100.47 852.359
1100.52 656.967
1100.63 416.906
1100.74 288.072
1100.86 212.541
1100.97 164.754
1101.08 132.624
1101.30 93.4431
1101.52 70.9987
1101.74 56.8840
1102.19 40.5933
1102.63 31.6886
1103.07 26.2115
1103.52 22.5351
1103.96 19.9282
1104.85 16.4956
1105.73 14.3593
1106.62 12.9114
1107.51 11.8705
1109.28 10.4760
1111.05 9.58876
1112.83 8.97551
1114.60 8.52665
1118.15 7.91226
1121.70 7.51051
1125.24 7.22582
1128.79 7.01234
1135.89 6.71030
1142.98 6.50309
1157.17 6.22636
1171.36 6.03789
1185.55 5.89065
1213.93 5.64830
1242.30 5.42267
1270.68 5.17658
1284.87 5.03512
1299.06 4.87437
1306.16 4.78506
1309.70 4.73819
1313.25 4.69043
1316.80 4.64364
1318.57 4.62251
1320.35 4.60609
1322.12 4.60259
1323.01 4.61332
1323.89 4.64495
1324.34 4.67682
1324.78 4.72944
1325.22 4.82097
1325.67 4.99308
1325.89 5.14043
1326.11 5.36668
1326.33 5.73805
1326.55 6.40405
1326.66 6.95933
1326.78 7.79479
1326.89 9.13499
1327.00 11.4550
1327.11 16.1077
1327.16 20.4376
1327.22 27.5205
1327.27 40.8398
1327.30 52.1944
1327.33 68.8587
1327.36 96.8515
1327.38 143.907
1327.41 236.962
1327.44 417.996
1327.46 671.298
1327.48 830.132
1327.51 659.487
1327.53 417.870
1327.55 251.317
1327.58 161.433
1327.60 111.093
1327.63 80.9495
1327.65 61.7400
1327.67 48.8419
1327.72 33.2379
1327.77 24.5683
1327.82 19.2783
1327.91 13.4413
1328.01 10.4690
1328.11 8.75488
1328.20 7.67776
1328.30 6.95711
1328.49 6.08257
1328.68 5.59172
1328.87 5.28840
1329.07 5.08744
1329.45 4.84476
1329.83 4.70779
1330.22 4.62156
1330.60 4.56279
1331.37 4.48693
1332.14 4.43861
1333.67 4.37487
1335.21 4.32814
1336.74 4.28764
1339.81 4.21240
1342.88 4.13770
1345.95 4.06044
1352.10 3.89323
1364.38 3.48528
1376.66 2.92925
1382.80 2.56818
1388.94 2.13045
1395.08 1.59735
1401.23 0.963444
1404.30 0.626961
1407.37 0.322530
1408.90 0.211524
1409.67 0.176157
1410.44 0.160353
1411.21 0.170496
1411.97 0.215072
1412.74 0.305619
1413.51 0.457342
1414.28 0.691842
1415.04 1.03849
1415.81 1.53901
1416.58 2.25239
1417.35 3.26881
1418.11 4.71856
1418.88 6.81222
1419.65 9.87617
1420.42 14.4752
1421.19 21.5873
1421.95 33.0510
1422.72 52.5527
1423.49 88.4315
1423.87 118.077
1424.26 161.516
1424.64 227.943
1425.02 333.590
1425.41 508.291
1425.79 800.250
1426.26 1359.84
1426.72 1803.52
1427.19 1528.40
1427.65 1009.62
1428.03 708.927
1428.40 514.362
1428.78 388.175
1429.16 303.639
1429.91 202.488
1430.67 147.001
1431.42 113.303
1432.17 91.2275
1433.68 64.8097
1435.19 49.9827
1436.70 40.7099
1438.21 34.4531
1439.71 29.9920
1442.73 24.1109
1445.74 20.4550
1448.76 17.9837
1451.77 16.2114
1457.80 13.8531
1463.84 12.3681
1466.85 11.8217
1468.36 11.5875
1469.87 11.3806
1471.37 11.2107
1472.13 11.1502
1472.88 11.1239
1473.26 11.1353
1473.64 11.1776
1474.01 11.2764
1474.39 11.4917
1474.58 11.6871
1474.77 11.9929
1474.96 12.5051
1475.14 13.4296
1475.24 14.2066
1475.33 15.3608
1475.43 17.1987
1475.52 20.3800
1475.61 26.5982
1475.66 32.2009
1475.71 41.3228
1475.76 57.5806
1475.78 71.2266
1475.80 90.5107
1475.83 121.726
1475.85 170.792
1475.87 260.217
1475.90 420.524
1475.92 667.876
1475.94 829.784
1475.97 667.574
1475.99 420.105
1476.01 280.674
1476.03 197.925
1476.05 143.831
1476.07 110.712
1476.11 71.6402
1476.14 51.7598
1476.18 39.8806
1476.22 32.4447
1476.30 24.1173
1476.38 19.7092
1476.45 17.1589
1476.53 15.5156
1476.61 14.4203
1476.76 13.0666
1476.92 12.2968
1477.07 11.8150
1477.23 11.4915
1477.54 11.0922
1477.85 10.8582
1478.16 10.7043
1478.47 10.5937
1479.09 10.4403
1479.71 10.3323
1480.95 10.1754
1482.19 10.0581
1483.43 9.97858
1484.05 9.97276
1484.36 9.99405
1484.67 10.0544
1484.98 10.2112
1485.13 10.3773
1485.29 10.6845
1485.37 10.9441
1485.44 11.3304
1485.52 11.9568
1485.60 13.0313
1485.68 15.1678
1485.72 17.1047
1485.75 20.1705
1485.79 25.7661
1485.81 30.5018
1485.83 37.1519
1485.85 48.0422
1485.87 65.0498
1485.89 94.3080
1485.91 147.102
1485.93 231.221
1485.95 284.776
1485.97 231.652
1485.99 147.658
1486.00 105.760
1486.02 77.3531
1486.03 59.1323
1486.05 47.7457
1486.07 33.6275
1486.10 26.0163
1486.13 21.4988
1486.16 18.6144
1486.22 15.2907
1486.28 13.5034
1486.34 12.4653
1486.39 11.7985
1486.45 11.3445
1486.57 10.7786
1486.69 10.4562
1486.92 10.1124
1487.15 9.93838
1487.38 9.83414
1487.85 9.71219
1488.32 9.63787
1488.78 9.58317
1489.71 9.49882
1491.58 9.36651
1493.44 9.25300
1497.17 9.05306
1500.89 8.87763
1508.35 8.57967
1515.80 8.33468
1530.71 7.95346
1545.61 7.66883
1560.52 7.44674
1575.43 7.26776
1582.88 7.19083
1590.33 7.12213
1594.06 7.09238
1597.79 7.07111
1599.65 7.07085
1600.58 7.07861
1601.51 7.09934
1602.45 7.15271
1602.91 7.20974
1603.38 7.31644
1603.61 7.40762
1603.84 7.54752
1604.08 7.77717
1604.31 8.19185
1604.43 8.53876
1604.54 9.05700
1604.66 9.89752
1604.77 11.3620
1604.83 12.5723
1604.89 14.3251
1604.95 17.0485
1605.01 21.6086
1605.07 30.0869
1605.09 37.3354
1605.12 48.5058
1605.15 66.8870
1605.18 99.7733
1605.21 164.865
1605.23 223.731
1605.24 306.328
1605.26 484.827
1605.28 606.131
1605.31 484.923
1605.33 306.450
1605.34 214.560
1605.36 155.787
1605.38 117.232
1605.39 91.2446
1605.42 59.4783
1605.46 42.9176
1605.49 32.7879
1605.52 26.5304
1605.59 19.2804
1605.65 15.3693
1605.72 13.0618
1605.78 11.5890
1605.84 10.6053
1605.97 9.37696
1606.10 8.68553
1606.23 8.25236
1606.36 7.96701
1606.62 7.62164
1606.88 7.42901
1607.14 7.31031
1607.40 7.23172
1607.92 7.13662
1608.43 7.08257
1609.47 7.02433
1610.51 6.99295
1611.54 6.97231
1613.61 6.94414
1617.76 6.90518
1621.90 6.87347
1626.04 6.84496
1630.19 6.81972
1632.26 6.80986
1634.33 6.80690
1635.37 6.81462
1636.40 6.84826
1636.92 6.90015
1637.18 6.95305
1637.44 7.04985
1637.70 7.25429
1637.83 7.45466
1637.96 7.80718
1638.09 8.52902
1638.15 9.20871
1638.22 10.3460
1638.28 12.5462
1638.31 14.4465
1638.34 17.4401
1638.38 22.7366
1638.41 32.4921
1638.43 40.8314
1638.44 53.4733
1638.46 73.2794
1638.47 105.251
1638.49 165.418
1638.51 203.725
1638.53 165.433
1638.55 105.270
1638.57 79.8512
1638.58 61.0490
1638.61 39.0165
1638.63 27.7149
1638.66 21.3417
1638.68 17.4468
1638.71 14.9097
1638.76 11.9315
1638.81 10.3241
1638.87 9.36191
1638.97 8.31863
1639.07 7.79576
1639.18 7.49712
1639.39 7.18738
1639.59 7.03661
1639.80 6.95245
1640.22 6.86539
1641.05 6.79841
1641.88 6.77136
1643.54 6.74553
1645.20 6.73017
1651.84 6.68693
1658.48 6.64976
1665.13 6.61471
1678.41 6.54986
1681.73 6.53574
1685.06 6.52542
1686.72 6.52529
1688.38 6.53946
1689.21 6.56615
1689.62 6.59467
1690.04 6.64824
1690.45 6.76409
1690.66 6.87955
1690.87 7.08693
1691.08 7.52139
1691.18 7.94141
1691.28 8.67040
1691.33 9.26564
1691.39 10.1405
1691.44 11.5006
1691.49 13.7793
1691.54 18.0197
1691.57 21.6475
1691.59 27.2416
1691.62 36.4522
1691.65 52.9371
1691.67 85.5449
1691.69 113.783
1691.70 153.550
1691.72 240.218
1691.74 300.341
1691.76 240.297
1691.78 153.277
1691.79 108.791
1691.81 80.5264
1691.82 61.7552
1691.83 48.9744
1691.86 33.5231
1691.89 25.0542
1691.92 19.9735
1691.95 16.7062
1692.00 12.9170
1692.06 10.8679
1692.11 9.67643
1692.17 8.91112
1692.23 8.39083
1692.34 7.74513
1692.45 7.38138
1692.68 7.00240
1692.90 6.81991
1693.13 6.71802
1693.58 6.61355
1694.03 6.56315
1694.48 6.53449
1695.38 6.50362
1697.17 6.47600
1698.97 6.46095
1702.57 6.43979
1706.17 6.42202
1720.56 6.35752
1749.35 6.23400
1778.14 6.10639
1806.92 5.96121
1835.71 5.77233
1850.10 5.64328
1864.49 5.46791
1871.69 5.35083
1878.89 5.20177
1886.08 5.00279
1893.28 4.71981
1896.88 4.52664
1900.48 4.27910
1904.08 3.94973
1907.67 3.49004
1909.47 3.18527
1911.27 2.80855
1913.07 2.33569
1914.87 1.74089
1915.77 1.39665
1916.67 1.03861
1917.57 0.721280
1918.02 0.623792
1918.47 0.623868
1918.69 0.686341
1918.92 0.812977
1919.14 1.02978
1919.37 1.37460
1919.59 1.90366
1919.82 2.70255
1920.04 3.90538
1920.27 5.71953
1920.49 8.52630
1920.72 12.9686
1920.94 20.2714
1921.17 32.9305
1921.39 56.5551
1921.51 76.3753
1921.62 105.444
1921.73 150.506
1921.84 222.000
1921.95 340.726
1922.07 540.605
1922.20 926.279
1922.34 1237.24
1922.47 1056.97
1922.61 704.651
1922.70 538.402
1922.78 419.671
1922.95 272.746
1923.12 191.948
1923.28 144.200
1923.45 113.455
1923.62 92.7032
1923.96 66.9747
1924.29 52.0514
1924.63 42.5493
1925.30 31.4126
1925.98 25.2230
1926.65 21.3577
1927.33 18.7337
1928.00 16.8521
1929.35 14.3446
1930.69 12.7616
1932.04 11.6763
1933.39 10.8880
1936.08 9.82193
1938.77 9.13553
1941.47 8.65688
1944.16 8.30408
1949.55 7.81822
1952.24 7.64420
1954.94 7.50130
1957.63 7.38478
1960.33 7.29919
1961.67 7.28028
1962.35 7.28643
1963.02 7.31717
1963.69 7.40850
1964.03 7.50987
1964.37 7.70141
1964.54 7.86612
1964.70 8.11701
1964.87 8.52654
1965.04 9.25870
1965.12 9.87017
1965.21 10.7733
1965.29 12.2043
1965.38 14.6678
1965.46 19.4457
1965.50 23.7167
1965.54 30.6122
1965.59 42.7479
1965.63 66.8266
1965.65 88.5553
1965.67 123.348
1965.69 181.935
1965.71 283.306
1965.74 452.291
1965.76 558.964
1965.78 444.476
1965.80 282.744
1965.82 197.249
1965.84 142.079
1965.85 106.340
1965.87 83.6622
1965.90 54.8793
1965.94 39.8307
1965.97 30.6209
1966.00 24.9195
1966.07 18.2370
1966.14 14.6975
1966.20 12.6040
1966.27 11.2653
1966.34 10.3693
1966.47 9.24861
1966.60 8.61574
1966.74 8.21804
1966.87 7.95497
1967.14 7.63351
1967.41 7.45271
1967.94 7.26253
1968.48 7.16566
1969.01 7.10668
1970.08 7.03496
1972.22 6.95307
1974.35 6.89633
1978.63 6.80712
1982.90 6.73346
1987.18 6.66933
1991.45 6.61221
2000.00 6.51328
2016.73 6.35681
2033.47 6.22556
2050.20 6.10116
2066.93 5.96677
2083.67 5.79584
2092.03 5.67935
2100.40 5.52048
2104.58 5.41392
2108.77 5.27776
2112.95 5.09531
2117.13 4.83480
2119.22 4.65649
2121.31 4.42764
2123.41 4.12250
2125.50 3.69617
2126.54 3.41324
2127.59 3.06305
2128.64 2.62302
2129.68 2.06919
2130.20 1.74780
2130.73 1.41187
2131.25 1.11120
2131.51 1.01528
2131.77 1.00737
2132.03 1.17038
2132.30 1.66806
2132.43 2.14183
2132.56 2.85936
2132.69 3.94141
2132.82 5.56792
2132.95 8.08986
2133.08 12.0757
2133.21 18.6106
2133.34 29.7750
2133.41 38.5601
2133.47 50.5661
2133.54 67.6180
2133.60 92.5692
2133.67 131.067
2133.73 190.858
2133.80 288.099
2133.86 447.885
2133.95 774.253
2134.03 1036.71
2134.11 886.090
2134.20 592.987
2134.26 423.794
2134.33 313.731
2134.39 239.912
2134.46 190.499
2134.59 129.875
2134.72 96.0510
2134.85 75.2486
2134.98 61.4842
2135.25 44.8177
2135.51 35.3522
2135.77 29.3724
2136.03 25.3039
2136.29 22.3904
2136.82 18.5034
2137.34 16.0635
2137.86 14.4017
2138.39 13.2046
2139.44 11.5964
2140.48 10.5735
2141.53 9.86706
2142.58 9.35068
2144.67 8.64683
2146.77 8.19008
2148.86 7.86926
2150.95 7.63144
2155.14 7.30128
2159.33 7.08186
2163.52 6.92443
2167.71 6.80520
2176.09 6.63462
2184.47 6.51629
2201.22 6.35725
2217.98 6.24972
2234.74 6.16813
2243.11 6.13367
2251.49 6.10311
2259.87 6.08083
2261.96 6.08072
2264.06 6.09236
2265.11 6.11369
2266.15 6.17789
2266.68 6.26738
2266.94 6.35586
2267.20 6.51442
2267.46 6.84589
2267.59 7.16674
2267.72 7.73285
2267.79 8.19860
2267.86 8.87684
2267.92 9.95760
2267.99 11.7649
2268.05 15.2591
2268.09 18.3359
2268.12 23.0378
2268.15 31.2954
2268.18 46.3525
2268.20 60.0846
2268.22 79.7909
2268.23 110.472
2268.25 161.583
2268.27 252.658
2268.29 316.386
2268.31 252.236
2268.33 161.036
2268.35 109.942
2268.36 79.3060
2268.38 58.6739
2268.40 45.9634
2268.43 30.6489
2268.46 22.5882
2268.50 17.8817
2268.53 14.9127
2268.59 11.5699
2268.66 9.78469
2268.73 8.73867
2268.79 8.07462
2268.86 7.63294
2268.99 7.08438
2269.12 6.77750
2269.38 6.46180
2269.64 6.31082
2269.91 6.22746
2270.43 6.14345
2271.48 6.08196
2272.53 6.05970
2274.64 6.04376
2276.74 6.04184
2278.84 6.05398
2279.89 6.07116
2280.94 6.10625
2281.99 6.18634
2282.52 6.26835
2283.04 6.41917
2283.31 6.54696
2283.57 6.74231
2283.83 7.06206
2284.09 7.63527
2284.23 8.11507
2284.36 8.83165
2284.49 9.97960
2284.62 11.9875
2284.75 16.0259
2284.82 19.7568
2284.88 25.8736
2284.95 37.3328
2284.98 47.0858
2285.01 61.4791
2285.05 85.5203
2285.08 127.907
2285.11 209.844
2285.13 276.742
2285.14 375.328
2285.17 599.519
2285.20 745.409
2285.22 599.854
2285.25 375.785
2285.28 228.671
2285.30 147.424
2285.33 101.987
2285.36 74.8157
2285.39 57.5172
2285.42 45.9110
2285.47 31.8801
2285.53 24.0895
2285.58 19.3375
2285.70 14.1271
2285.81 11.4431
2285.92 9.89638
2286.03 8.92499
2286.14 8.28017
2286.37 7.49010
2286.59 7.04903
2286.81 6.77666
2287.04 6.59661
2287.48 6.38016
2287.93 6.25989
2288.82 6.13700
2289.72 6.07758
2290.61 6.04369
2292.40 6.00684
2295.97 5.97315
2299.54 5.95435
2306.69 5.92755
2313.84 5.90499
2328.13 5.86343
2342.42 5.82348
2371.01 5.74420
2399.60 5.66238
2428.19 5.57459
2456.77 5.47695
2471.07 5.42296
2485.36 5.36486
2492.51 5.33456
2499.65 5.30518
2503.23 5.29337
2506.80 5.29126
2508.59 5.30404
2510.37 5.35665
2511.27 5.43749
2511.71 5.52015
2512.16 5.67173
2512.61 5.99523
2512.83 6.31305
2513.05 6.88229
2513.17 7.35531
2513.28 8.06512
2513.39 9.20002
2513.50 11.1562
2513.61 15.0526
2513.67 18.6117
2513.72 24.3567
2513.78 34.9466
2513.81 43.7910
2513.84 57.0986
2513.86 78.2716
2513.89 114.319
2513.92 180.443
2513.95 302.315
2513.97 479.893
2514.00 599.604
2514.02 479.920
2514.05 302.336
2514.06 212.650
2514.08 151.852
2514.10 112.647
2514.12 87.7380
2514.16 56.5164
2514.20 40.2349
2514.23 30.3441
2514.27 24.2199
2514.34 17.1445
2514.42 13.3442
2514.49 11.1277
2514.57 9.69114
2514.64 8.73124
2514.79 7.54289
2514.94 6.86883
2515.09 6.45004
2515.24 6.17211
2515.54 5.83670
2515.84 5.65062
2516.43 5.46042
2517.03 5.36897
2517.62 5.31736
2518.82 5.26217
2521.20 5.21361
2523.59 5.18743
2528.36 5.14993
2533.13 5.11683
2542.67 5.04998
2552.22 4.97737
2561.76 4.89644
2571.30 4.80541
2576.07 4.75614
2580.84 4.70670
2583.23 4.68565
2585.61 4.67884
2586.81 4.69629
2588.00 4.77437
2588.60 4.89642
2588.89 5.02128
2589.19 5.25049
2589.49 5.73603
2589.64 6.21066
2589.79 7.05383
2589.86 7.75024
2589.94 8.77008
2590.01 10.3990
2590.09 13.1417
2590.16 18.4691
2590.20 23.1092
2590.24 30.4706
2590.27 43.5579
2590.31 68.1049
2590.33 90.1227
2590.35 122.211
2590.37 176.390
2590.38 259.642
2590.41 415.978
2590.43 514.805
2590.45 416.177
2590.47 259.905
2590.50 162.899
2590.52 106.419
2590.54 74.2782
2590.56 55.5031
2590.59 42.7923
2590.61 34.2312
2590.66 24.0091
2590.70 18.1564
2590.75 14.6477
2590.84 10.7058
2590.93 8.69021
2591.02 7.52442
2591.11 6.79025
2591.20 6.30263
2591.38 5.70201
2591.56 5.36418
2591.93 5.01671
2592.29 4.84814
2592.65 4.75279
2593.38 4.65090
2594.83 4.56223
2596.29 4.51569
2599.19 4.45078
2602.10 4.39409
2607.91 4.27861
2613.73 4.15045
2619.54 4.00461
2622.44 3.92432
2625.35 3.83979
2628.26 3.75467
2631.16 3.68697
2632.62 3.68608
2633.34 3.71331
2634.07 3.78698
2634.80 3.97752
2635.16 4.17996
2635.52 4.55591
2635.70 4.87376
2635.89 5.35574
2636.07 6.13342
2636.25 7.49175
2636.43 10.2178
2636.52 12.7307
2636.61 16.8611
2636.70 24.5422
2636.75 31.1385
2636.79 40.9902
2636.84 57.3597
2636.89 85.4409
2636.93 138.929
2636.95 184.851
2636.98 249.362
2637.01 395.769
2637.05 495.580
2637.09 395.837
2637.12 249.436
2637.16 147.580
2637.20 93.4949
2637.25 63.8778
2637.29 46.7533
2637.33 35.6338
2637.37 28.2367
2637.45 19.4487
2637.53 14.5342
2637.61 11.5844
2637.77 8.32836
2637.94 6.65980
2638.10 5.69717
2638.26 5.09066
2638.42 4.68501
2638.75 4.18386
2639.08 3.89688
2639.73 3.58617
2640.38 3.41970
2641.03 3.31093
2642.33 3.16193
2644.93 2.94332
2647.54 2.73862
2652.75 2.27771
2657.95 1.69411
2660.56 1.34334
2663.16 0.955118
2665.77 0.555675
2667.07 0.377883
2668.37 0.250068
2669.02 0.221696
2669.67 0.231938
2670.32 0.298341
2670.97 0.446755
2671.63 0.716022
2672.28 1.16588
2672.93 1.89076
2673.58 3.04509
2674.23 4.89162
2674.88 7.90016
2675.53 12.9635
2676.18 21.9136
2676.51 28.9877
2676.83 38.8994
2677.16 53.2543
2677.48 74.5865
2677.81 107.701
2678.14 160.958
2678.46 250.663
2678.79 403.177
2679.18 698.998
2679.57 945.333
2679.96 815.755
2680.35 547.698
2680.59 420.245
2680.84 327.945
2681.33 214.017
2681.81 151.633
2682.30 114.458
2682.79 90.6066
2683.27 74.3691
2684.25 54.1902
2685.22 42.4698
2686.20 34.9706
2688.14 26.1175
2690.09 21.1681
2692.04 18.0525
2693.99 15.9283
2695.94 14.3946
2699.83 12.3377
2703.73 11.0264
2707.62 10.1183
2711.52 9.45154
2719.31 8.53308
2727.10 7.92194
2734.90 7.47567
2742.69 7.12431
2758.27 6.55836
2766.06 6.29189
2773.86 5.99798
2781.65 5.62212
2785.54 5.36741
2789.44 5.02426
2791.39 4.79783
2793.34 4.51354
2795.28 4.14264
2797.23 3.63528
2798.21 3.30458
2799.18 2.90133
2800.15 2.40461
2801.13 1.79838
2801.61 1.46141
2802.10 1.12937
2802.59 0.875878
2802.83 0.835157
2803.08 0.918891
2803.32 1.23236
2803.56 1.97452
2803.68 2.62528
2803.81 3.57102
2803.93 4.94840
2804.05 6.95304
2804.17 9.96771
2804.29 14.5785
2804.42 21.8623
2804.54 33.7483
2804.66 54.6138
2804.78 93.7642
2804.84 126.339
2804.90 173.891
2804.96 244.439
2805.02 346.813
2805.12 604.331
2805.22 819.150
2805.32 709.842
2805.42 480.273
2805.51 333.161
2805.60 241.306
2805.69 182.807
2805.78 144.085
2805.95 98.1518
2806.13 73.0378
2806.30 57.7451
2806.48 47.6719
2806.83 35.4914
2807.19 28.5414
2807.54 24.1448
2807.89 21.1363
2808.24 18.9623
2808.95 16.0476
2809.65 14.2014
2810.35 12.9320
2811.06 12.0079
2812.47 10.7546
2813.88 9.94616
2815.28 9.38042
2816.69 8.96224
2819.51 8.38267
2822.33 7.99757
2825.14 7.72081
2827.96 7.51062
2833.59 7.20874
2839.23 6.99986
2842.05 6.91935
2844.86 6.85778
2846.27 6.84260
2847.68 6.86517
2848.38 6.92632
2849.09 7.12629
2849.44 7.41167
2849.62 7.69457
2849.79 8.20198
2849.97 9.24653
2850.06 10.2399
2850.14 11.9540
2850.23 15.2902
2850.28 18.2827
2850.32 23.1318
2850.36 31.7113
2850.39 38.6799
2850.41 48.8809
2850.43 64.5208
2850.45 89.8179
2850.47 133.034
2850.50 211.071
2850.52 332.484
2850.54 415.953
2850.57 332.666
2850.59 211.316
2850.61 125.852
2850.64 80.5327
2850.67 55.9941
2850.69 41.6435
2850.72 32.6496
2850.74 26.6837
2850.80 19.5531
2850.85 15.6369
2850.90 13.2652
2851.00 10.6655
2851.11 9.34892
2851.21 8.59171
2851.42 7.80093
2851.63 7.41315
2851.83 7.19541
2852.25 6.96833
2853.08 6.79091
2853.91 6.71721
2855.57 6.64468
2857.23 6.60073
2860.55 6.53565
2863.87 6.48179
2870.51 6.38890
2877.15 6.30796
2890.43 6.16823
2903.72 6.04702
2917.00 5.93689
2930.28 5.83370
2943.56 5.73808
2946.88 5.71867
2950.20 5.70967
2951.86 5.71935
2953.52 5.76916
2954.35 5.84856
2954.77 5.93028
2955.18 6.08085
2955.60 6.40165
2955.81 6.71838
2956.01 7.28306
2956.12 7.75208
2956.22 8.45545
2956.33 9.57927
2956.43 11.5130
2956.53 15.3625
2956.58 18.8754
2956.64 24.6756
2956.69 35.2326
2956.71 44.0596
2956.74 57.3562
2956.77 78.5446
2956.79 114.695
2956.82 181.188
2956.84 302.390
2956.87 480.216
2956.89 598.676
2956.91 480.082
2956.94 302.173
2956.95 207.639
2956.97 150.234
2956.99 110.903
2957.01 86.1798
2957.04 55.9509
2957.08 39.7697
2957.11 30.2156
2957.15 24.1403
2957.22 17.1724
2957.29 13.4941
2957.36 11.3238
2957.43 9.93884
2957.49 9.01307
2957.63 7.85883
2957.77 7.20918
2958.05 6.53498
2958.33 6.21138
2958.61 6.03112
2959.17 5.84676
2960.28 5.70738
2961.40 5.65255
2963.63 5.60219
2965.87 5.57333
2970.33 5.53022
2974.79 5.49201
2983.72 5.41755
2992.65 5.34165
3001.58 5.26292
3010.51 5.18174
3014.98 5.14195
3019.44 5.10880
3021.67 5.10292
3023.91 5.12919
3025.02 5.18683
3025.58 5.25035
3026.14 5.37113
3026.70 5.63458
3026.97 5.89747
3027.25 6.37320
3027.39 6.77135
3027.53 7.36748
3027.67 8.33373
3027.81 10.0213
3027.88 11.4010
3027.95 13.4349
3028.02 16.6090
3028.09 21.8564
3028.16 31.7912
3028.20 40.3488
3028.23 53.6366
3028.27 75.7308
3028.30 115.856
3028.32 149.996
3028.34 197.037
3028.35 266.416
3028.37 369.994
3028.40 592.905
3028.42 735.521
3028.45 593.094
3028.47 370.229
3028.49 276.748
3028.50 207.591
3028.53 127.815
3028.56 85.8581
3028.60 61.7832
3028.63 46.8889
3028.66 37.0997
3028.72 25.5047
3028.78 19.1150
3028.84 15.3424
3028.97 11.2242
3029.09 9.13492
3029.22 7.94891
3029.34 7.20601
3029.47 6.71000
3029.71 6.10734
3029.96 5.77116
3030.46 5.42506
3030.96 5.25795
3031.45 5.16348
3032.45 5.06247
3034.44 4.97399
3036.43 4.92697
3040.40 4.86092
3044.38 4.80356
3052.33 4.68933
3060.29 4.56693
3076.20 4.28176
3092.11 3.91825
3108.02 3.43249
3123.92 2.74724
3131.88 2.28995
3139.83 1.72750
3143.81 1.40229
3147.79 1.05335
3149.78 0.877970
3151.76 0.720710
3152.76 0.669295
3153.75 0.693485
3154.25 0.805681
3154.50 0.938084
3154.75 1.19246
3155.00 1.74682
3155.12 2.28917
3155.24 3.24770
3155.37 5.19520
3155.43 6.98979
3155.49 9.99768
3155.55 15.5938
3155.59 20.3797
3155.62 27.7560
3155.65 39.8948
3155.68 61.6120
3155.71 104.588
3155.73 143.336
3155.74 197.832
3155.76 318.106
3155.79 395.105
3155.81 318.155
3155.83 197.885
3155.86 126.992
3155.88 84.1771
3155.90 58.8730
3155.92 43.1363
3155.97 25.7752
3156.01 17.2089
3156.05 12.2133
3156.10 9.18557
3156.18 5.74270
3156.27 3.94686
3156.36 2.91419
3156.53 1.81624
3156.71 1.27021
3156.88 0.960184
3157.23 0.630959
3157.58 0.464103
3157.93 0.364277
3158.62 0.250682
3160.02 0.158268
3161.42 0.164006
3162.11 0.203432
3162.81 0.272459
3163.51 0.377266
3164.21 0.525768
3164.90 0.728973
3165.60 1.00041
3167.00 1.82402
3168.39 3.21927
3169.79 5.58286
3171.18 9.68070
3172.58 17.0755
3173.28 22.9821
3173.98 31.3373
3174.67 43.4611
3175.37 61.5645
3176.07 89.6553
3176.77 134.863
3177.46 210.596
3178.16 338.825
3179.03 596.588
3179.89 813.763
3180.75 706.101
3181.61 478.619
3182.59 302.534
3183.57 205.009
3184.55 149.000
3185.52 114.513
3186.50 91.8684
3187.48 76.1877
3189.44 56.3586
3191.39 44.6415
3193.35 37.0550
3197.26 27.9951
3201.17 22.8738
3205.08 19.6263
3209.00 17.4008
3212.91 15.7881
3220.73 13.6178
3228.56 12.2309
3236.38 11.2708
3244.20 10.5675
3259.85 9.60633
3275.50 8.98046
3283.32 8.74365
3291.15 8.54522
3295.06 8.46102
3298.97 8.39420
3300.93 8.37741
3302.88 8.40148
3303.86 8.46641
3304.84 8.67639
3305.33 8.97378
3305.57 9.26892
3305.82 9.79710
3306.06 10.8975
3306.19 11.9520
3306.31 13.7971
3306.37 15.3182
3306.43 17.5212
3306.49 20.9427
3306.55 26.6735
3306.61 37.3440
3306.64 46.6704
3306.67 60.6142
3306.71 84.4596
3306.74 126.002
3306.75 162.357
3306.77 212.085
3306.78 285.327
3306.80 393.829
3306.82 629.386
3306.84 777.955
3306.86 628.423
3306.89 392.242
3306.90 295.765
3306.91 222.868
3306.94 138.754
3306.97 93.0629
3307.00 67.9335
3307.02 51.8599
3307.05 41.7136
3307.11 29.4780
3307.16 22.8495
3307.22 18.8743
3307.32 14.5877
3307.43 12.4155
3307.54 11.1785
3307.76 9.90146
3307.98 9.28487
3308.20 8.94360
3308.64 8.59526
3309.08 8.42907
3309.52 8.33556
3310.40 8.23610
3312.15 8.14841
3313.91 8.10115
3317.42 8.03685
3320.93 7.98913
3324.44 7.95917
3326.19 7.95780
3327.95 7.97805
3329.70 8.05236
3330.58 8.14008
3331.46 8.31129
3331.90 8.46051
3332.33 8.69208
3332.77 9.07564
3333.21 9.77109
3333.43 10.3546
3333.65 11.2317
3333.87 12.6499
3334.09 15.1317
3334.31 20.1233
3334.42 24.7411
3334.53 32.3800
3334.64 46.6474
3334.69 58.8074
3334.75 77.0548
3334.80 107.307
3334.86 160.831
3334.91 264.830
3334.94 351.435
3334.97 477.709
3335.01 762.501
3335.05 949.198
3335.10 763.530
3335.14 479.314
3335.17 349.309
3335.20 258.658
3335.23 197.188
3335.26 154.660
3335.31 102.397
3335.37 73.2933
3335.43 55.6498
3335.49 44.2190
3335.60 30.9468
3335.72 23.7342
3335.83 19.4582
3335.95 16.6769
3336.06 14.7969
3336.30 12.4510
3336.53 11.1161
3336.76 10.2805
3336.99 9.72232
3337.45 9.04360
3337.91 8.66222
3338.38 8.42490
3338.84 8.26623
3339.76 8.07129
3340.69 7.95818
3342.54 7.83253
3344.39 7.76180
3346.24 7.71357
3349.93 7.64538
3353.63 7.59355
3357.33 7.54922
3364.73 7.47211
3372.13 7.40400
3379.52 7.34189
3394.32 7.23081
3409.11 7.13302
3423.91 7.04543
3453.50 6.89295
3512.68 6.64447
3542.27 6.53542
3557.06 6.48262
3564.46 6.45683
3568.16 6.44581
3570.01 6.44781
3570.93 6.47782
3571.39 6.59840
3571.51 6.71415
3571.62 7.00506
3571.68 7.35670
3571.74 8.15480
3571.77 8.99197
3571.80 10.5801
3571.83 14.0277
3571.84 17.1668
3571.85 22.2809
3571.87 31.9295
3571.89 38.1352
3571.91 31.9530
3571.93 22.3105
3571.94 16.9205
3571.96 13.5429
3571.99 10.2388
3572.02 8.72470
3572.05 7.96984
3572.12 7.24804
3572.18 6.93802
3572.30 6.67829
3572.43 6.57597
3572.93 6.46646
3573.93 6.43328
3575.93 6.41829
3579.93 6.40195
3587.93 6.37271
3603.94 6.31423
3635.95 6.19020
3651.96 6.12195
3667.96 6.04723
3675.96 6.00685
3683.97 5.96459
3691.97 5.92561
3693.97 5.92182
3695.97 5.93396
3696.97 5.96237
3697.97 6.05476
3698.47 6.18806
3698.72 6.32174
3698.97 6.56470
3699.22 7.07537
3699.35 7.57208
3699.47 8.45083
3699.60 10.2295
3699.66 11.9106
3699.72 14.7166
3699.78 20.1300
3699.82 24.7871
3699.85 32.0947
3699.88 44.9657
3699.91 68.4473
3699.93 89.1216
3699.94 118.232
3699.96 166.416
3699.97 239.008
3699.99 381.471
3700.01 472.963
3700.03 381.737
3700.05 239.359
3700.07 159.439
3700.09 109.562
3700.11 79.3132
3700.12 60.1383
3700.16 38.5892
3700.20 27.8133
3700.23 21.4205
3700.27 17.5355
3700.34 13.0718
3700.41 10.7248
3700.48 9.37579
3700.62 7.94117
3700.77 7.23082
3700.91 6.83271
3701.19 6.42154
3701.76 6.11269
3702.33 5.99842
3703.47 5.90965
3704.61 5.87269
3706.88 5.83523
3709.16 5.81090
3718.27 5.73108
3727.37 5.64708
3736.48 5.55050
3745.58 5.43605
3754.69 5.29669
3759.24 5.21459
3763.80 5.12224
3768.35 5.02090
3770.63 4.98350
3771.20 4.99067
3771.76 5.03861
3772.05 5.11759
3772.33 5.34546
3772.48 5.65344
3772.62 6.44925
3772.69 7.42608
3772.76 9.70324
3772.80 12.2147
3772.83 17.0289
3772.85 21.4637
3772.87 28.5689
3772.89 40.5262
3772.90 59.8568
3772.92 93.6249
3772.94 114.973
3772.96 93.7182
3772.98 59.9756
3773.00 35.9102
3773.03 23.5422
3773.05 17.0997
3773.08 13.4297
3773.12 9.69241
3773.17 7.94741
3773.27 6.43109
3773.36 5.81053
3773.56 5.31662
3773.75 5.12644
3774.13 4.97511
3774.51 4.91217
3776.05 4.81186
3779.11 4.69147
3782.18 4.56804
3785.24 4.42928
3791.38 4.08469
3797.51 3.60400
3800.57 3.28479
3803.64 2.88861
3806.71 2.38785
3809.77 1.74834
3811.30 1.36937
3812.84 0.959531
3814.37 0.558411
3815.14 0.395971
3815.90 0.303709
3816.29 0.304243
3816.67 0.353623
3817.05 0.472179
3817.44 0.689397
3817.82 1.04990
3818.20 1.61740
3818.59 2.49372
3818.97 3.83958
3819.35 5.92646
3819.74 9.19954
3820.12 14.4857
3820.50 23.3642
3820.89 39.1516
3821.08 51.6512
3821.27 69.1215
3821.46 94.3539
3821.65 131.211
3821.84 186.525
3822.04 268.559
3822.35 476.104
3822.67 655.198
3822.98 574.331
3823.30 392.305
3823.52 293.303
3823.75 224.752
3823.97 177.235
3824.20 143.926
3824.65 101.765
3825.10 77.3607
3825.55 61.8943
3826.00 51.4682
3826.90 38.5435
3827.80 31.0291
3828.70 26.1988
3829.60 22.8670
3830.50 20.4463
3832.31 17.1871
3834.11 15.1125
3835.91 13.6834
3837.71 12.6424
3841.32 11.2316
3844.92 10.3228
3848.53 9.68921
3852.13 9.22226
3859.34 8.57935
3866.55 8.15640
3873.76 7.85557
3880.96 7.62953
3895.38 7.30916
3909.80 7.08915
3938.63 6.79494
3967.47 6.59308
3996.30 6.43200
4010.72 6.35881
4025.14 6.28783
4039.55 6.21784
4046.76 6.18516
4050.37 6.17939
4052.17 6.21872
4052.62 6.26564
4053.07 6.39923
4053.30 6.58137
4053.52 7.06821
4053.63 7.69733
4053.75 9.25298
4053.80 11.1229
4053.83 12.7150
4053.86 15.1896
4053.89 19.3102
4053.92 26.8128
4053.93 33.0028
4053.94 42.0672
4053.96 55.6546
4053.97 76.0128
4053.99 117.914
4054.01 145.851
4054.03 117.966
4054.05 76.0773
4054.07 49.2010
4054.09 34.7089
4054.11 25.7956
4054.13 20.5802
4054.17 14.6860
4054.21 11.8050
4054.25 10.1259
4054.28 9.11401
4054.36 7.96419
4054.51 7.02650
4054.67 6.66206
4054.98 6.38208
4055.29 6.27819
4055.90 6.19919
4056.52 6.16876
4058.99 6.12906
4063.92 6.09647
4073.79 6.04199
4083.66 5.98646
4093.52 5.92789
4113.26 5.79753
4123.13 5.72361
4128.06 5.68499
4130.53 5.66991
4131.76 5.68179
4132.38 5.76100
4132.69 6.05290
4132.76 6.31690
4132.84 6.94707
4132.88 7.66135
4132.92 9.08507
4132.96 12.7249
4132.98 16.6539
4132.99 23.9029
4133.01 35.1206
4133.03 42.1817
4133.05 35.1326
4133.07 23.9178
4133.08 17.8406
4133.10 14.1148
4133.13 10.1602
4133.16 8.39314
4133.19 7.47821
4133.25 6.61816
4133.32 6.24328
4133.44 5.93308
4133.56 5.81147
4134.06 5.67884
4135.05 5.63488
4137.03 5.60753
4140.99 5.56748
4148.91 5.48530
4164.75 5.28998
4180.59 5.03189
4196.42 4.66816
4204.34 4.42184
4212.26 4.10842
4220.18 3.69552
4228.10 3.12825
4232.06 2.75885
4236.02 2.31042
4239.98 1.76337
4243.94 1.10930
4245.92 0.756670
4247.90 0.425149
4248.89 0.291947
4249.88 0.207303
4250.87 0.208916
4251.37 0.260858
4251.86 0.362068
4252.36 0.528944
4252.85 0.783873
4253.35 1.15785
4253.84 1.69441
4254.34 2.45583
4254.83 3.53291
4255.33 5.06109
4255.82 7.24772
4256.32 10.4199
4256.81 15.1115
4257.31 22.2297
4257.80 33.3868
4258.30 51.5951
4258.79 82.7638
4259.29 138.814
4259.78 241.854
4260.32 431.987
4260.86 597.875
4261.39 526.890
4261.93 362.004
4262.27 280.735
4262.61 221.610
4263.29 147.772
4263.98 106.939
4264.66 82.3991
4265.34 66.4789
4266.02 55.5585
4267.38 41.8130
4268.74 33.7081
4270.10 28.4534
4272.82 22.1508
4275.54 18.5602
4278.27 16.2674
4280.99 14.6855
4283.71 13.5323
4289.16 11.9687
4294.60 10.9614
4300.04 10.2595
4305.49 9.74276
4316.38 9.03273
4327.27 8.56737
4332.71 8.39002
4338.16 8.23938
4343.60 8.11476
4346.32 8.08181
4347.00 8.09423
4347.68 8.15417
4348.02 8.24771
4348.36 8.51355
4348.53 8.86892
4348.70 9.79790
4348.79 10.9528
4348.83 12.0121
4348.87 13.7022
4348.92 16.8063
4348.94 19.3053
4348.96 22.9939
4348.98 29.0600
4349.00 38.7025
4349.02 55.6096
4349.04 86.2122
4349.06 134.305
4349.08 164.309
4349.11 131.802
4349.13 86.1238
4349.14 58.8674
4349.16 43.2004
4349.18 32.9484
4349.20 26.7307
4349.23 19.3927
4349.26 15.6784
4349.30 13.4548
4349.33 12.0649
4349.40 10.5121
4349.54 9.21495
4349.68 8.70508
4349.96 8.31027
4350.24 8.16088
4350.79 8.04383
4351.35 7.99516
4353.57 7.91707
4358.02 7.83175
4362.47 7.76070
4366.91 7.69653
4375.81 7.58349
4384.70 7.48665
4393.60 7.40290
4402.49 7.33120
4406.94 7.30133
4411.38 7.28140
4413.61 7.28325
4415.83 7.31745
4416.94 7.37845
4418.05 7.56316
4418.61 7.82268
4418.89 8.08031
4419.17 8.54538
4419.44 9.51591
4419.58 10.4542
4419.72 12.1049
4419.79 13.4570
4419.86 15.4191
4419.93 18.5224
4420.00 23.6651
4420.07 33.4371
4420.10 41.8855
4420.14 54.5793
4420.17 76.2286
4420.21 114.150
4420.23 147.121
4420.24 192.586
4420.26 259.718
4420.28 361.518
4420.30 576.935
4420.33 716.212
4420.35 577.125
4420.38 361.683
4420.40 233.053
4420.42 158.832
4420.45 112.707
4420.47 85.1021
4420.52 53.6842
4420.56 38.1010
4420.61 29.0079
4420.66 23.3854
4420.75 17.1517
4420.85 13.8975
4420.94 12.0253
4421.13 10.0341
4421.31 9.05977
4421.50 8.51157
4421.87 7.94863
4422.25 7.67955
4422.62 7.52980
4423.37 7.37646
4424.86 7.25902
4426.36 7.21160
4429.35 7.16623
4432.34 7.13933
4438.32 7.09951
4444.30 7.06604
4456.27 7.00695
4468.23 6.95426
4480.19 6.90623
4492.16 6.86210
4504.12 6.82297
4510.10 6.81350
4511.60 6.81944
4513.09 6.84529
4513.84 6.88537
4514.59 7.00157
4514.96 7.16182
4515.33 7.60123
4515.52 8.18176
4515.61 8.73907
4515.71 9.69413
4515.80 11.5875
4515.85 13.3054
4515.89 16.0458
4515.94 21.0522
4515.96 25.0772
4515.99 31.0020
4516.01 40.6612
4516.03 55.9834
4516.06 82.6748
4516.08 132.047
4516.10 206.439
4516.13 257.572
4516.15 206.497
4516.17 132.112
4516.20 81.2153
4516.22 54.3492
4516.25 38.7435
4516.27 29.8195
4516.29 23.9076
4516.32 20.1077
4516.37 15.4775
4516.42 12.8444
4516.46 11.2432
4516.56 9.49428
4516.66 8.59455
4516.76 8.08130
4516.95 7.54160
4517.34 7.12948
4517.73 6.97808
4518.51 6.86487
4519.29 6.82270
4520.85 6.78896
4522.40 6.77387
4528.63 6.74495
4534.86 6.72645
4537.98 6.72569
4539.54 6.75612
4539.93 6.79068
4540.32 6.88797
4540.51 7.01940
4540.70 7.36675
4540.80 7.81354
4540.90 8.90282
4540.95 10.1771
4541.00 12.8529
4541.02 15.6082
4541.05 20.2900
4541.07 29.2747
4541.08 36.8454
4541.09 48.2340
4541.11 73.5339
4541.13 89.8518
4541.15 73.5903
4541.17 48.3054
4541.19 30.9802
4541.21 22.0500
4541.23 17.0932
4541.26 14.1416
4541.30 10.9628
4541.34 9.47031
4541.43 8.12394
4541.51 7.56433
4541.68 7.11648
4541.85 6.94486
4542.19 6.81427
4542.53 6.76582
4543.89 6.71408
4546.61 6.69385
4552.04 6.67611
4562.91 6.65353
4568.34 6.65372
4571.06 6.66268
4573.78 6.68648
4576.49 6.74777
4577.85 6.81339
4579.21 6.93651
4579.89 7.04167
4580.57 7.20265
4581.25 7.46629
4581.93 7.94039
4582.27 8.33383
4582.61 8.92418
4582.95 9.86738
4583.29 11.5034
4583.63 14.7393
4583.80 17.6855
4583.96 22.4987
4584.13 31.2512
4584.22 38.5273
4584.30 49.4241
4584.39 66.6510
4584.47 95.7179
4584.56 148.369
4584.64 246.166
4584.72 391.092
4584.80 486.170
4584.88 389.394
4584.95 246.549
4585.02 168.772
4585.08 120.466
4585.14 89.6414
4585.20 69.3121
4585.32 45.5339
4585.44 32.9163
4585.56 25.5061
4585.69 20.8105
4585.93 15.4412
4586.18 12.6049
4586.42 10.9417
4586.66 9.88028
4586.91 9.16202
4587.40 8.27893
4587.88 7.77901
4588.37 7.46789
4588.86 7.26091
4589.84 7.01034
4590.81 6.86965
4591.79 6.78194
4592.77 6.72312
4594.72 6.65002
4596.67 6.60641
4600.58 6.55486
4608.39 6.49680
4616.20 6.45326
4631.83 6.37133
4635.73 6.35587
4639.64 6.35999
4641.59 6.39160
4642.57 6.43116
4643.55 6.51034
4644.52 6.68941
4645.01 6.87123
4645.50 7.20392
4645.99 7.90940
4646.23 8.59766
4646.48 9.82004
4646.60 10.8214
4646.72 12.3077
4646.84 14.6483
4646.96 18.6426
4647.09 26.2869
4647.15 33.0235
4647.21 43.7360
4647.27 62.1737
4647.33 97.4881
4647.36 128.803
4647.39 175.496
4647.42 252.783
4647.45 375.154
4647.49 595.928
4647.53 744.959
4647.56 596.348
4647.60 375.684
4647.62 280.261
4647.64 213.634
4647.69 131.721
4647.73 88.7285
4647.78 64.1054
4647.82 48.8944
4647.87 38.9085
4647.96 27.0943
4648.05 20.6694
4648.14 16.8034
4648.32 12.5912
4648.50 10.4701
4648.68 9.25486
4648.86 8.49429
4649.04 7.98666
4649.40 7.37157
4649.76 7.02630
4650.48 6.67047
4651.20 6.49691
4651.92 6.39710
4653.36 6.28702
4656.24 6.18026
4659.11 6.11106
4664.87 5.97975
4670.63 5.80962
4673.51 5.69440
4676.39 5.54549
4679.27 5.34377
4682.15 5.05330
4683.59 4.85364
4685.02 4.59716
4686.46 4.25530
4687.90 3.77939
4688.62 3.46506
4689.34 3.07820
4690.06 2.59627
4690.78 1.99838
4691.50 1.30652
4691.86 1.00343
4692.22 0.918212
4692.40 1.09777
4692.58 1.60959
4692.76 2.77295
4692.85 3.79192
4692.94 5.29194
4693.03 7.52198
4693.12 10.8939
4693.21 16.1183
4693.30 24.4813
4693.39 38.4399
4693.48 62.9542
4693.57 108.408
4693.66 193.906
4693.75 347.730
4693.85 483.467
4693.94 428.644
4694.03 296.442
4694.11 211.842
4694.19 156.898
4694.27 121.198
4694.35 97.4377
4694.51 68.3365
4694.67 52.2041
4694.83 42.1611
4694.99 35.5038
4695.31 27.3242
4695.63 22.5718
4695.94 19.5248
4696.26 17.4108
4696.58 15.8746
4697.22 13.7902
4697.86 12.4558
4698.49 11.5307
4699.13 10.8533
4700.41 9.92918
4701.68 9.33034
4702.95 8.91093
4704.23 8.60094
4706.78 8.17323
4709.33 7.89198
4711.87 7.69268
4714.42 7.54388
4719.52 7.33572
4724.62 7.19638
4734.81 7.01953
4745.01 6.90996
4755.20 6.83382
4775.59 6.73166
4795.98 6.66312
4806.18 6.63584
4816.37 6.61179
4836.76 6.57229
4846.96 6.56422
4849.51 6.57087
4852.05 6.59843
4853.33 6.64099
4854.60 6.76536
4855.24 6.93828
4855.56 7.10991
4855.88 7.41838
4856.20 8.06349
4856.35 8.68453
4856.51 9.77411
4856.67 11.9717
4856.75 14.0100
4856.83 17.3783
4856.91 23.7201
4856.95 29.1578
4856.99 37.2983
4857.03 50.9871
4857.07 75.5270
4857.11 124.211
4857.13 166.523
4857.15 227.869
4857.18 361.322
4857.21 449.636
4857.24 361.604
4857.27 228.228
4857.31 133.620
4857.34 84.8922
4857.38 58.6901
4857.41 43.4338
4857.45 33.9002
4857.48 27.5892
4857.55 20.1382
4857.62 15.9790
4857.69 13.4663
4857.83 10.7320
4857.97 9.33803
4858.11 8.54311
4858.39 7.70841
4858.67 7.30364
4858.95 7.07703
4859.50 6.84542
4860.62 6.67318
4861.73 6.61000
4863.96 6.56156
4866.19 6.54196
4875.11 6.51237
4892.95 6.48273
4910.80 6.45832
4928.64 6.43580
4964.32 6.39395
5000.00 6.35453
5023.61 6.32965
5035.41 6.32025
5041.31 6.32784
5042.79 6.34079
5044.26 6.38046
5045.00 6.43677
5045.74 6.59521
5046.10 6.81115
5046.47 7.39913
5046.66 8.17440
5046.75 8.90663
5046.84 10.1670
5046.93 12.6124
5046.98 14.7996
5047.03 18.3331
5047.07 24.5580
5047.12 36.9275
5047.14 48.1074
5047.16 66.0375
5047.19 96.2927
5047.21 148.447
5047.24 235.572
5047.26 290.589
5047.28 231.960
5047.31 148.561
5047.33 99.8948
5047.35 71.3882
5047.37 53.4435
5047.39 41.7259
5047.43 28.1522
5047.47 21.0144
5047.51 16.8464
5047.55 14.2157
5047.63 11.2190
5047.71 9.64670
5047.79 8.72244
5047.95 7.73655
5048.27 6.97449
5048.59 6.69059
5049.23 6.47898
5049.87 6.40202
5051.15 6.34490
5052.43 6.32361
5057.55 6.29839
5067.79 6.28193
5088.27 6.25739
5108.75 6.23380
5118.99 6.22531
5124.11 6.23572
5125.39 6.25149
5126.67 6.29899
5127.31 6.36580
5127.95 6.55282
5128.27 6.80577
5128.59 7.48801
5128.75 8.37367
5128.83 9.20578
5128.91 10.6242
5128.99 13.3354
5129.03 15.7222
5129.07 19.5145
5129.11 26.0351
5129.15 38.5108
5129.17 49.3484
5129.19 66.0485
5129.21 92.7918
5129.23 138.618
5129.26 218.318
5129.28 271.213
5129.30 218.387
5129.33 138.692
5129.35 92.8546
5129.37 65.0715
5129.39 48.0945
5129.41 37.2661
5129.45 25.0199
5129.50 18.7287
5129.54 15.1107
5129.58 12.8512
5129.66 10.3033
5129.75 8.97936
5129.83 8.20600
5130.00 7.38907
5130.33 6.75805
5130.67 6.52387
5131.34 6.34953
5132.01 6.28624
5133.35 6.23897
5134.69 6.22101
5140.06 6.19807
5150.78 6.17984
5161.51 6.16794
5166.88 6.17906
5168.22 6.19753
5169.56 6.25434
5170.23 6.33524
5170.90 6.56315
5171.23 6.87276
5171.40 7.17579
5171.57 7.71013
5171.74 8.80329
5171.82 9.83294
5171.90 11.5642
5171.99 14.9062
5172.03 17.8500
5172.07 22.5284
5172.11 30.5709
5172.16 45.9401
5172.18 59.2620
5172.20 79.7247
5172.22 112.300
5172.24 163.009
5172.26 256.203
5172.29 320.033
5172.32 256.493
5172.34 163.383
5172.37 95.1934
5172.40 61.1378
5172.43 42.8018
5172.46 32.1105
5172.49 25.4212
5172.52 20.9885
5172.58 15.6945
5172.64 12.7886
5172.70 11.0292
5172.82 9.10094
5172.94 8.12465
5173.06 7.56341
5173.30 6.97618
5173.78 6.53115
5174.26 6.36726
5175.22 6.24499
5176.18 6.19985
5178.10 6.16466
5180.03 6.14990
5187.71 6.12515
5203.08 6.09382
5218.45 6.06161
5233.81 6.02517
5249.18 5.98242
5264.55 5.93044
5272.23 5.89961
5279.92 5.86450
5287.60 5.82440
5291.44 5.80464
5293.36 5.80574
5294.32 5.85124
5294.80 6.03813
5294.92 6.21689
5295.04 6.67073
5295.10 7.21539
5295.16 8.44829
5295.19 9.73817
5295.22 12.1790
5295.25 17.4643
5295.27 22.4898
5295.28 30.7378
5295.30 45.5403
5295.32 55.6949
5295.34 45.5640
5295.36 30.7669
5295.37 22.1036
5295.39 16.9767
5295.42 11.6609
5295.46 9.33067
5295.49 8.16423
5295.55 7.04641
5295.62 6.55962
5295.75 6.15534
5295.88 5.99791
5296.40 5.82866
5297.44 5.77585
5299.53 5.74828
5303.70 5.71117
5312.04 5.62809
5320.37 5.51774
5328.71 5.35991
5332.88 5.25124
5337.05 5.11048
5341.22 4.91985
5345.39 4.64584
5347.48 4.45775
5349.56 4.21607
5351.65 3.89413
5353.73 3.44529
5354.77 3.14810
5355.82 2.78165
5356.86 2.32291
5357.90 1.74728
5358.94 1.06395
5359.46 0.744215
5359.98 0.598931
5360.25 0.713889
5360.51 1.11325
5360.77 2.08160
5360.90 2.94619
5361.03 4.23228
5361.16 6.17787
5361.29 9.12077
5361.42 13.7052
5361.55 21.0777
5361.68 33.5581
5361.81 55.4484
5361.94 96.2475
5362.00 129.168
5362.07 174.711
5362.20 315.584
5362.34 440.833
5362.47 392.482
5362.60 272.387
5362.72 193.153
5362.84 142.248
5362.96 109.489
5363.07 87.6138
5363.31 61.3814
5363.55 46.8397
5363.78 37.8767
5364.02 31.9085
5364.49 24.6055
5364.96 20.3689
5365.43 17.6487
5365.90 15.7622
5366.38 14.3888
5367.32 12.5264
5368.26 11.3297
5369.20 10.4989
5370.15 9.88956
5372.03 9.05651
5373.92 8.51474
5375.81 8.13394
5377.69 7.85135
5381.47 7.45882
5385.24 7.19771
5389.01 7.00992
5392.78 6.86705
5400.33 6.66023
5407.87 6.51266
5422.96 6.29833
5438.05 6.12319
5453.14 5.94257
5460.68 5.83773
5468.23 5.71452
5472.00 5.64370
5475.77 5.56773
5479.54 5.51056
5480.49 5.52373
5481.43 5.60679
5481.90 5.74326
5482.37 6.14009
5482.61 6.67880
5482.73 7.19838
5482.85 8.10684
5482.96 9.90930
5483.02 11.5590
5483.08 14.2901
5483.14 19.2794
5483.17 23.5526
5483.20 29.7965
5483.23 40.1552
5483.26 57.3562
5483.29 88.9996
5483.32 150.038
5483.34 238.586
5483.37 294.587
5483.39 234.937
5483.42 149.977
5483.44 107.534
5483.45 80.5903
5483.49 49.5775
5483.52 33.5771
5483.56 24.9520
5483.59 19.5744
5483.63 16.1965
5483.69 12.2285
5483.76 10.0607
5483.83 8.76952
5483.97 7.38209
5484.11 6.68184
5484.24 6.28415
5484.52 5.86566
5485.07 5.54072
5485.62 5.41032
5486.72 5.28801
5487.82 5.21517
5492.21 4.97909
5494.41 4.84726
5496.61 4.69492
5501.00 4.29763
5503.20 4.02980
5505.40 3.69125
5507.60 3.25075
5509.80 2.65904
5510.89 2.28454
5511.99 1.84453
5513.09 1.33640
5514.19 0.793043
5514.74 0.552533
5515.29 0.406434
5515.57 0.408778
5515.84 0.501795
5516.12 0.738510
5516.39 1.20376
5516.66 2.04842
5516.94 3.53341
5517.21 6.14840
5517.49 10.8459
5517.63 14.5822
5517.76 19.7545
5517.90 27.1596
5518.04 37.8391
5518.18 53.8604
5518.31 78.1535
5518.45 115.978
5518.59 174.965
5518.80 317.692
5519.00 445.358
5519.21 397.534
5519.42 276.762
5519.59 203.058
5519.76 153.479
5519.92 120.298
5520.09 97.4729
5520.42 69.2875
5520.76 53.2729
5521.09 43.2005
5521.42 36.4215
5522.09 28.0429
5522.76 23.1465
5523.43 19.9865
5524.09 17.7904
5524.76 16.1878
5526.10 14.0123
5527.43 12.6131
5528.77 11.6415
5530.10 10.9289
5532.77 9.95578
5535.44 9.32335
5538.11 8.87968
5540.78 8.55135
5546.12 8.09728
5551.46 7.79775
5556.80 7.58485
5562.14 7.42539
5572.82 7.20145
5583.50 7.05078
5604.86 6.85861
5626.22 6.73961
5636.90 6.69560
5647.57 6.65926
5658.25 6.63063
5668.93 6.61479
5674.27 6.62005
5676.94 6.63222
5679.61 6.65985
5682.28 6.72600
5683.62 6.79470
5684.95 6.92185
5686.29 7.19400
5686.96 7.46321
5687.62 7.94683
5687.96 8.34889
5688.29 8.95382
5688.62 9.92468
5688.96 11.6212
5689.12 12.9982
5689.29 15.0203
5689.46 18.1607
5689.62 23.3754
5689.79 33.1018
5689.88 41.4673
5689.96 54.1880
5690.04 75.3436
5690.13 112.627
5690.21 185.742
5690.25 249.534
5690.29 341.745
5690.36 541.672
5690.42 676.732
5690.48 541.863
5690.55 341.526
5690.61 219.075
5690.67 148.304
5690.72 106.102
5690.78 79.6636
5690.90 50.2757
5691.02 35.4211
5691.14 26.9650
5691.26 21.7208
5691.49 15.8465
5691.73 12.8135
5691.96 11.0493
5692.20 9.93446
5692.44 9.18573
5692.91 8.27278
5693.38 7.76079
5693.85 7.44453
5694.32 7.23553
5695.27 6.98474
5696.21 6.84570
5698.10 6.70374
5699.99 6.63541
5701.88 6.59650
5705.66 6.55424
5713.21 6.51565
5720.77 6.49423
5735.88 6.46468
5750.99 6.44141
5781.22 6.40278
5811.44 6.37036
5841.67 6.34228
5871.89 6.31855
5887.00 6.30964
5902.11 6.30712
5909.67 6.31398
5917.23 6.34310
5921.00 6.38751
5922.89 6.43264
5924.78 6.51535
5926.67 6.69125
5927.62 6.86488
5928.56 7.17724
5929.03 7.43776
5929.51 7.83013
5929.98 8.46269
5930.45 9.58092
5930.69 10.4943
5930.92 11.8473
5931.16 13.9743
5931.39 17.5985
5931.63 24.5258
5931.75 30.6267
5931.87 40.3269
5931.98 57.0248
5932.10 89.0300
5932.16 116.879
5932.22 159.848
5932.28 228.714
5932.34 340.709
5932.41 540.669
5932.48 674.555
5932.55 540.673
5932.62 340.110
5932.70 196.054
5932.79 122.296
5932.87 83.0266
5932.96 60.3230
5933.04 46.2089
5933.12 36.9026
5933.29 25.8953
5933.46 19.8433
5933.63 16.2143
5933.96 12.2390
5934.30 10.2321
5934.63 9.08782
5934.97 8.37291
5935.30 7.89694
5935.97 7.32232
5936.64 7.00310
5937.31 6.80728
5937.98 6.67895
5939.33 6.52624
5940.67 6.44234
5943.35 6.35782
5946.03 6.31780
5948.71 6.29537
5954.07 6.27150
5964.80 6.25034
5975.53 6.23906
5986.25 6.23164
5996.98 6.22879
6002.34 6.23168
6007.70 6.24461
6010.39 6.26329
6013.07 6.31369
6014.41 6.37979
6015.75 6.55620
6016.42 6.78884
6017.09 7.40900
6017.43 8.21713
6017.59 8.98755
6017.76 10.3139
6017.93 12.9410
6018.01 15.3384
6018.10 19.2428
6018.18 26.4365
6018.22 32.4785
6018.26 41.6296
6018.31 56.3354
6018.35 81.7630
6018.39 129.562
6018.43 223.611
6018.47 353.692
6018.50 439.101
6018.54 352.572
6018.57 221.755
6018.60 150.353
6018.63 106.806
6018.66 79.1963
6018.68 61.0814
6018.74 40.0146
6018.80 28.9070
6018.85 22.3271
6018.91 18.2639
6019.02 13.6377
6019.13 11.1999
6019.25 9.78733
6019.47 8.28354
6019.70 7.54939
6019.92 7.13879
6020.37 6.72286
6021.27 6.42263
6022.17 6.31967
6023.97 6.25110
6025.77 6.23200
6029.36 6.23107
6032.96 6.25581
6036.56 6.32331
6038.35 6.39589
6040.15 6.53336
6041.05 6.65172
6041.95 6.83471
6042.85 7.13746
6043.75 7.68834
6044.20 8.14960
6044.65 8.84485
6045.10 9.96650
6045.55 11.9319
6046.00 15.8623
6046.22 19.4779
6046.44 25.4540
6046.67 36.4565
6046.78 45.7736
6046.89 59.7779
6047.01 82.5033
6047.12 121.414
6047.23 194.145
6047.34 338.940
6047.44 539.059
6047.54 674.375
6047.63 540.577
6047.73 341.541
6047.81 222.134
6047.90 151.997
6047.99 109.189
6048.07 82.4539
6048.25 52.2599
6048.42 36.9246
6048.59 28.0730
6048.76 22.5563
6049.11 16.3530
6049.45 13.1147
6049.80 11.2236
6050.14 10.0201
6050.49 9.20655
6051.18 8.20645
6051.87 7.63863
6052.56 7.28372
6053.25 7.04719
6054.63 6.75940
6056.01 6.59699
6057.40 6.49566
6058.78 6.42777
6061.54 6.34438
6064.30 6.29622
6069.83 6.24375
6075.35 6.21560
6080.87 6.19751
6091.92 6.17396
6114.02 6.14367
6136.12 6.11918
6180.32 6.07025
6202.41 6.04266
6213.46 6.02775
6218.99 6.02152
6221.75 6.02612
6223.13 6.06129
6223.82 6.20640
6224.00 6.35038
6224.17 6.72796
6224.25 7.20888
6224.34 8.35789
6224.38 9.65027
6224.43 12.3282
6224.45 14.9361
6224.47 19.1262
6224.49 27.0854
6224.51 42.2730
6224.53 63.6042
6224.55 78.8097
6224.57 63.8113
6224.59 42.5332
6224.61 26.8387
6224.64 18.8217
6224.66 14.5295
6224.68 12.0370
6224.73 9.45337
6224.77 8.24628
6224.87 7.16205
6224.96 6.71183
6225.14 6.34977
6225.32 6.21151
6226.05 6.06561
6227.51 6.02311
6230.43 6.00723
6236.27 5.99433
6247.95 5.97256
6259.63 5.94915
6271.31 5.92285
6294.67 5.85752
6318.02 5.76451
6341.38 5.61671
6353.06 5.50245
6364.74 5.33565
6370.58 5.21926
6376.42 5.06724
6382.26 4.85990
6388.10 4.56019
6391.02 4.35393
6393.94 4.08874
6396.86 3.73576
6399.78 3.24511
6401.24 2.92196
6402.70 2.52534
6404.16 2.03323
6405.62 1.42561
6407.08 0.731338
6407.81 0.432907
6408.54 0.357647
6408.90 0.542396
6409.27 1.05257
6409.45 1.51532
6409.63 2.18862
6409.81 3.17230
6410.00 4.59517
6410.18 6.69274
6410.36 9.79411
6410.54 14.5262
6410.73 21.8607
6410.91 33.7478
6411.09 53.5551
6411.27 87.9885
6411.46 148.794
6411.67 272.233
6411.89 385.569
6412.11 347.049
6412.33 242.793
6412.47 191.478
6412.60 153.337
6412.87 104.906
6413.14 77.4692
6413.41 60.6728
6413.68 49.6521
6413.95 42.0036
6414.48 32.2744
6415.02 26.4567
6415.56 22.6568
6416.64 18.0507
6417.71 15.3959
6418.79 13.6882
6419.87 12.5030
6420.94 11.6353
6423.10 10.4560
6424.17 10.0409
6425.25 9.70516
6426.32 9.43803
6427.40 9.25785
6427.94 9.23971
6428.48 9.39246
6428.75 9.68661
6429.01 10.5539
6429.15 11.7056
6429.22 12.7747
6429.28 14.5717
6429.35 17.9886
6429.39 20.9377
6429.42 25.3519
6429.45 32.8504
6429.49 45.8708
6429.50 56.7350
6429.52 72.4816
6429.54 95.7750
6429.55 128.926
6429.58 201.970
6429.60 249.523
6429.63 202.288
6429.65 129.336
6429.68 78.7730
6429.71 52.7559
6429.74 38.4204
6429.77 29.9268
6429.79 24.5516
6429.82 20.9591
6429.88 16.6302
6429.93 14.2311
6429.99 12.7675
6430.10 11.1477
6430.33 9.82538
6430.55 9.30140
6431.00 8.86458
6431.45 8.66747
6432.35 8.45523
6433.25 8.31811
6435.04 8.11550
6436.84 7.95704
6440.43 7.71149
6444.02 7.52617
6447.61 7.38036
6451.21 7.26238
6458.39 7.08285
6465.57 6.95237
6472.76 6.85308
6487.12 6.71146
6501.49 6.61476
6515.86 6.54408
6530.23 6.49000
6537.41 6.46836
6541.00 6.46282
6542.80 6.47805
6543.70 6.55438
6544.15 6.84138
6544.26 7.11098
6544.37 7.78657
6544.43 8.58523
6544.48 10.3560
6544.51 12.1643
6544.54 15.4870
6544.57 22.3432
6544.58 28.5445
6544.59 38.1290
6544.61 57.5972
6544.63 69.9087
6544.65 57.6602
6544.67 38.2088
6544.69 26.5706
6544.71 19.5938
6544.75 13.0555
6544.78 10.3454
6544.82 9.02671
6544.90 7.79825
6544.97 7.27463
6545.12 6.84654
6545.27 6.68172
6545.87 6.50744
6547.08 6.45708
6549.48 6.43830
6554.29 6.42308
6563.90 6.40045
6583.14 6.36327
6602.37 6.33328
6611.99 6.32282
6616.80 6.32927
6619.20 6.37792
6619.80 6.43016
6620.40 6.57711
6620.70 6.77676
6621.00 7.31338
6621.15 8.01459
6621.30 9.78148
6621.38 11.8979
6621.45 16.6802
6621.49 21.7633
6621.53 31.1068
6621.55 39.3207
6621.57 51.8821
6621.59 71.7733
6621.60 103.094
6621.63 160.233
6621.65 200.168
6621.68 160.385
6621.70 103.278
6621.73 62.4085
6621.75 41.0945
6621.78 29.5482
6621.81 22.7915
6621.86 15.7427
6621.91 12.4250
6622.02 9.42944
6622.13 8.20116
6622.34 7.21451
6622.56 6.83880
6622.99 6.55290
6623.42 6.44762
6625.13 6.34024
6628.56 6.30832
6635.43 6.29299
6649.16 6.27612
6662.89 6.26245
6669.76 6.25794
6673.19 6.26339
6674.91 6.29633
6675.77 6.42788
6675.98 6.55835
6676.20 6.90410
6676.30 7.35022
6676.41 8.44612
6676.46 9.73763
6676.52 12.4875
6676.54 15.2782
6676.57 20.2960
6676.60 30.2935
6676.61 38.6269
6676.62 51.5036
6676.65 78.8535
6676.67 96.7357
6676.69 78.9238
6676.71 51.5911
6676.72 35.8000
6676.74 26.5962
6676.77 17.1821
6676.81 12.9443
6676.84 10.7376
6676.91 8.63316
6676.98 7.72953
6677.12 6.97480
6677.25 6.67993
6677.53 6.45104
6677.80 6.36570
6678.89 6.27832
6681.08 6.25347
6685.45 6.24362
6694.19 6.23465
6711.67 6.22042
6729.16 6.20782
6737.90 6.20317
6742.27 6.20614
6744.46 6.22817
6745.55 6.31782
6745.82 6.40732
6746.10 6.64904
6746.23 6.96497
6746.37 7.76334
6746.44 8.74459
6746.51 10.9639
6746.54 13.3121
6746.57 17.8188
6746.61 27.8113
6746.62 37.5522
6746.64 53.7268
6746.66 82.8042
6746.68 101.339
6746.70 82.8264
6746.72 53.7512
6746.74 35.4897
6746.76 25.3646
6746.78 19.4802
6746.80 15.8613
6746.84 11.8422
6746.88 9.90636
6746.97 8.12345
6747.05 7.37051
6747.21 6.76190
6747.37 6.52729
6748.02 6.28303
6749.31 6.21650
6751.91 6.19770
6757.09 6.18995
6767.46 6.18226
6788.19 6.16958
6808.92 6.15878
6819.29 6.15719
6824.47 6.16943
6827.06 6.22441
6827.71 6.28036
6828.36 6.43502
6828.68 6.64280
6829.01 7.20117
6829.17 7.92498
6829.33 9.76479
6829.41 11.9845
6829.45 13.9718
6829.49 17.0572
6829.53 22.5157
6829.57 32.7344
6829.59 41.5761
6829.61 55.1403
6829.63 76.7143
6829.65 111.328
6829.68 175.672
6829.70 216.238
6829.73 172.814
6829.75 111.142
6829.77 77.8909
6829.79 57.5706
6829.81 44.2478
6829.83 35.2677
6829.86 24.5240
6829.90 18.6958
6829.97 13.0016
6830.04 10.4378
6830.19 8.27082
6830.33 7.40617
6830.62 6.73308
6830.91 6.48318
6831.48 6.29721
6832.06 6.23034
6834.37 6.16418
6838.98 6.14608
6848.20 6.13938
6857.43 6.14461
6862.04 6.18502
6863.19 6.22854
6864.34 6.35195
6864.92 6.52133
6865.50 6.98594
6865.79 7.60568
6865.93 8.19828
6866.07 9.23086
6866.22 11.2731
6866.29 13.1376
6866.36 16.2172
6866.43 21.8255
6866.47 26.5177
6866.51 33.5914
6866.54 44.8796
6866.58 64.1912
6866.61 99.9205
6866.65 171.071
6866.68 270.697
6866.71 336.043
6866.74 270.892
6866.77 171.282
6866.80 125.441
6866.82 94.8579
6866.86 59.0109
6866.90 40.2405
6866.94 29.9511
6866.98 23.5119
6867.02 19.4259
6867.10 14.6046
6867.18 11.9641
6867.26 10.4015
6867.42 8.69209
6867.74 7.34481
6868.06 6.83538
6868.71 6.45244
6869.35 6.31267
6870.64 6.20957
6871.93 6.17223
6877.08 6.13339
6887.39 6.11881
6908.01 6.10627
6949.24 6.08635
6990.47 6.06855
7011.08 6.06239
7021.39 6.06651
7026.54 6.09235
7029.12 6.19024
7029.77 6.28633
7030.41 6.54695
7030.73 6.89181
7031.05 7.80365
7031.21 8.96601
7031.30 10.0522
7031.38 11.8568
7031.46 15.2873
7031.50 18.2173
7031.54 22.7724
7031.58 30.6182
7031.62 44.7250
7031.64 56.4432
7031.66 73.7246
7031.68 99.8758
7031.70 140.730
7031.73 220.355
7031.75 274.551
7031.78 219.890
7031.81 140.015
7031.83 102.402
7031.85 77.3837
7031.86 59.4543
7031.88 47.7072
7031.92 32.8008
7031.96 24.5095
7031.99 19.4906
7032.03 16.2443
7032.10 12.4615
7032.18 10.4359
7032.25 9.23063
7032.40 7.93266
7032.70 6.92194
7032.99 6.54542
7033.58 6.26733
7034.18 6.16836
7035.36 6.09777
7036.54 6.07345
7041.28 6.05073
7050.75 6.04620
7060.22 6.05936
7062.59 6.07546
7064.96 6.12133
7066.14 6.18417
7067.33 6.35775
7067.92 6.59159
7068.51 7.22497
7068.81 8.05632
7068.95 8.84695
7069.10 10.2147
7069.25 12.8928
7069.32 15.3140
7069.40 19.2733
7069.47 26.3795
7069.51 32.2381
7069.55 40.9430
7069.58 54.5606
7069.62 77.2080
7069.66 117.410
7069.69 190.525
7069.73 301.464
7069.76 374.554
7069.80 301.274
7069.83 190.111
7069.87 119.874
7069.90 80.8739
7069.94 58.0538
7069.97 43.9519
7070.01 34.5390
7070.04 28.3275
7070.11 20.6736
7070.18 16.2955
7070.24 13.6400
7070.38 10.6604
7070.52 9.13350
7070.66 8.25017
7070.93 7.32468
7071.48 6.62101
7072.02 6.36389
7073.12 6.17592
7074.21 6.10925
7076.40 6.06132
7078.59 6.04433
7087.34 6.02621
7104.85 6.01678
7139.86 6.00807
7157.37 6.01130
7166.12 6.01879
7174.88 6.03610
7179.25 6.05226
7183.63 6.07821
7188.01 6.12240
7192.38 6.20476
7194.57 6.27491
7196.76 6.38247
7198.95 6.55924
7201.14 6.87900
7202.23 7.14609
7203.33 7.54941
7204.42 8.20040
7205.52 9.35162
7206.06 10.2915
7206.61 11.6825
7207.16 13.8653
7207.70 17.5728
7208.25 24.6195
7208.52 30.7996
7208.80 40.5200
7209.07 57.1391
7209.34 88.3415
7209.48 115.103
7209.62 155.689
7209.76 219.276
7209.89 318.572
7210.07 506.698
7210.24 631.381
7210.42 506.011
7210.59 318.949
7210.73 217.229
7210.87 153.687
7211.01 113.348
7211.15 86.8557
7211.42 56.0074
7211.70 39.7123
7211.98 30.1723
7212.26 24.1409
7212.81 17.2607
7213.37 13.6467
7213.93 11.5208
7214.48 10.1669
7215.04 9.25227
7216.15 8.13201
7217.26 7.49825
7218.37 7.10522
7219.49 6.84476
7221.71 6.53159
7223.94 6.35754
7226.16 6.25066
7228.38 6.18015
7232.83 6.09534
7237.28 6.04767
7246.18 5.99726
7255.07 5.97087
7263.97 5.95396
7272.87 5.94292
7277.32 5.94971
7279.54 6.00915
7280.10 6.07665
7280.65 6.27228
7280.93 6.54199
7281.21 7.27533
7281.35 8.22555
7281.49 10.6092
7281.56 13.4472
7281.63 19.6028
7281.66 25.9125
7281.70 37.4134
7281.71 47.2296
7281.73 60.7921
7281.75 80.8616
7281.77 111.584
7281.79 176.212
7281.82 218.536
7281.84 177.164
7281.87 112.885
7281.89 79.3511
7281.91 58.3088
7281.92 44.6195
7281.94 35.4500
7281.98 24.5476
7282.02 18.6650
7282.10 12.9350
7282.17 10.3557
7282.32 8.16780
7282.48 7.28741
7282.78 6.59263
7283.08 6.32883
7283.69 6.12639
7284.30 6.05004
7286.74 5.96768
7291.61 5.93913
7301.35 5.92317
7320.83 5.90601
7340.31 5.89307
7350.05 5.89004
7354.92 5.89784
7357.36 5.93457
7358.57 6.07339
7358.88 6.20982
7359.18 6.57414
7359.33 7.04518
7359.49 8.24068
7359.56 9.68250
7359.64 12.9805
7359.68 16.4790
7359.71 23.2201
7359.73 29.1202
7359.75 38.2800
7359.77 53.0856
7359.79 77.8098
7359.81 121.612
7359.84 149.563
7359.86 121.398
7359.88 77.5048
7359.90 53.7827
7359.92 39.2349
7359.93 30.0475
7359.95 24.0373
7359.99 17.0666
7360.02 13.3992
7360.10 9.87793
7360.17 8.35685
7360.31 7.08516
7360.46 6.58900
7360.75 6.20611
7361.04 6.06490
7362.19 5.92417
7364.51 5.88847
7369.13 5.87984
7378.39 5.88528
7383.02 5.90155
7387.64 5.95521
7389.96 6.03347
7391.11 6.11260
7392.27 6.25753
7393.43 6.56635
7394.01 6.87119
7394.58 7.41770
7394.87 7.87218
7395.16 8.55215
7395.45 9.63890
7395.74 11.5332
7396.03 15.2803
7396.18 18.7159
7396.32 24.3495
7396.46 34.6787
7396.54 43.2600
7396.61 56.1691
7396.68 77.0728
7396.75 112.341
7396.83 177.263
7396.90 304.120
7396.96 483.851
7397.02 602.898
7397.09 484.456
7397.15 304.817
7397.20 206.390
7397.25 145.612
7397.30 107.212
7397.36 82.0830
7397.46 52.9229
7397.56 37.5678
7397.66 28.5264
7397.76 22.8838
7397.97 16.4486
7398.17 13.0558
7398.38 11.0714
7398.58 9.80654
7398.79 8.95144
7399.19 7.90113
7399.60 7.30792
7400.01 6.93877
7400.42 6.69452
7401.24 6.40016
7402.05 6.23627
7403.69 6.06912
7405.32 5.98938
7406.96 5.94481
7410.22 5.89852
7416.76 5.86154
7423.30 5.84519
7436.37 5.82778
7449.44 5.81803
7462.51 5.81700
7469.05 5.82425
7475.58 5.84504
7478.85 5.86613
7482.12 5.90154
7485.39 5.96419
7488.66 6.08495
7490.29 6.18993
7491.92 6.35315
7493.56 6.62447
7495.19 7.12018
7496.01 7.53580
7496.83 8.16481
7497.64 9.17924
7498.46 10.9647
7499.28 14.5366
7499.69 17.8334
7500.09 23.3103
7500.50 33.4159
7500.71 41.9338
7500.91 54.8832
7501.12 75.9045
7501.32 112.275
7501.52 180.972
7501.73 318.240
7501.90 507.375
7502.07 632.684
7502.24 507.593
7502.41 320.775
7502.60 192.420
7502.78 124.216
7502.97 86.0650
7503.15 63.4399
7503.34 48.9761
7503.52 39.3296
7503.89 27.6511
7504.26 21.1371
7504.63 17.1660
7505.37 12.7623
7506.12 10.5078
7506.86 9.20014
7507.60 8.37363
7508.34 7.81739
7509.82 7.13645
7511.30 6.75023
7512.79 6.50898
7514.27 6.34753
7517.23 6.15005
7520.20 6.03700
7523.16 5.96508
7526.12 5.91565
7532.05 5.85181
7537.98 5.81092
7543.91 5.78026
7546.87 5.77356
7548.36 5.81875
7548.73 5.87984
7549.10 6.06536
7549.28 6.32795
7549.47 7.03943
7549.56 7.95516
7549.65 10.1545
7549.70 12.6956
7549.75 17.8496
7549.77 22.6766
7549.79 30.7017
7549.82 44.9266
7549.84 72.1448
7549.86 113.236
7549.88 140.796
7549.91 114.860
7549.93 74.3087
7549.94 55.4643
7549.96 43.0695
7549.98 28.3719
7550.01 20.7067
7550.04 16.3228
7550.10 11.7755
7550.15 9.67937
7550.27 7.81764
7550.38 7.04890
7550.60 6.42048
7550.83 6.17259
7551.73 5.89792
7553.53 5.80673
7557.13 5.76759
7564.33 5.73869
7578.74 5.70269
7607.55 5.64189
7636.36 5.57911
7643.56 5.56600
7650.77 5.56690
7654.37 5.59075
7656.17 5.62268
7657.97 5.68936
7659.77 5.84638
7660.67 6.01031
7661.57 6.31594
7662.02 6.57646
7662.47 6.97400
7662.92 7.62197
7663.37 8.77622
7663.60 9.72126
7663.82 11.1198
7664.05 13.3089
7664.27 17.0025
7664.50 23.9257
7664.61 29.9133
7664.72 39.1018
7664.84 54.4431
7664.95 81.8075
7665.00 104.530
7665.06 136.870
7665.12 184.519
7665.17 254.693
7665.26 406.797
7665.34 507.303
7665.43 408.751
7665.51 258.039
7665.58 172.568
7665.66 119.826
7665.73 87.3738
7665.80 66.5580
7665.95 42.8665
7666.09 30.6060
7666.24 23.5118
7666.39 19.0572
7666.68 13.9989
7666.97 11.3460
7667.26 9.78259
7667.55 8.78311
7667.84 8.10655
7668.43 7.26770
7669.01 6.78756
7669.60 6.48490
7670.18 6.28158
7671.35 6.03107
7672.51 5.88702
7674.85 5.73223
7677.18 5.65171
7679.52 5.60203
7684.18 5.54132
7693.52 5.47122
7702.86 5.41900
7721.53 5.31740
7740.21 5.19554
7758.88 5.03149
7777.55 4.78886
7786.89 4.61551
7796.23 4.38296
7800.90 4.23386
7805.57 4.05411
7810.23 3.83800
7812.57 3.74224
7813.15 3.74808
7813.73 3.83345
7814.03 3.98586
7814.32 4.44033
7814.46 5.05464
7814.61 6.64255
7814.68 8.56433
7814.76 12.9267
7814.79 17.5684
7814.83 26.0717
7814.85 33.2728
7814.87 44.0822
7814.88 60.7979
7814.90 87.4806
7814.93 137.911
7814.95 172.663
7814.97 138.917
7815.00 88.8220
7815.03 51.8665
7815.05 33.4092
7815.08 23.2288
7815.11 17.5506
7815.17 11.5517
7815.22 8.70949
7815.34 6.20430
7815.45 5.16791
7815.68 4.31662
7815.91 3.97852
7816.36 3.69590
7816.82 3.56764
7818.63 3.32155
7822.27 2.94519
7825.91 2.49491
7829.55 1.91180
7831.36 1.55509
7833.18 1.15149
7836.82 0.314968
7837.73 0.195892
7838.64 0.227437
7839.09 0.348779
7839.55 0.586421
7840.00 0.999862
7840.46 1.67908
7840.91 2.77652
7841.37 4.54277
7841.82 7.41948
7842.28 12.2066
7842.73 20.5053
7843.19 35.5288
7843.41 47.5710
7843.64 64.3632
7843.87 88.0395
7844.09 121.260
7844.56 224.928
7845.02 322.598
7845.48 293.633
7845.94 207.224
7846.24 161.975
7846.54 128.806
7847.14 87.3751
7847.75 64.3946
7848.35 50.5036
7848.95 41.4574
7849.55 35.2068
7850.76 27.2847
7851.96 22.5560
7853.16 19.4613
7855.57 15.7005
7857.98 13.5262
7860.38 12.1216
7862.79 11.1431
7865.20 10.4242
7870.01 9.44055
7874.83 8.80062
7879.64 8.35136
7884.46 8.01861
7894.08 7.55830
7903.71 7.25431
7913.34 7.03782
7922.97 6.87519
7942.23 6.64529
7961.49 6.48835
8000.00 6.28098
8000.00 8.51866
10000.0 8.28321
12500.0 8.08822
14000.0 8.00362
15000.0 7.95663
17000.0 7.87976
20000.0 7.79531
25000.0 7.70564
30000.0 7.65299
35000.0 7.62153
40000.0 7.60301
45000.0 7.59272
50000.0 7.58781
60000.0 7.58751
67500.0 7.59180
72000.0 7.59532
85000.0 7.60706
99999.9 7.62039
100000 7.62100
150000 7.70000
200000 7.71500
300000 7.64800
400000 7.58000
500000 7.48500
550000 7.43800
560000 7.42800
563000 7.42500
563042 7.42449
580000 7.40874
600000 7.39000
620000 7.36400
640000 7.33700
660000 7.31100
700000 7.25900
800000 7.12700
1.00000E+06 6.85200
1.14000E+06 6.67800
1.14001E+06 6.67798
1.20000E+06 6.60400
1.22000E+06 6.57800
1.22072E+06 6.57579
1.29000E+06 6.48622
1.29033E+06 6.48562
1.32000E+06 6.44730
1.38000E+06 6.36983
1.38012E+06 6.36935
1.40000E+06 6.34400
1.50000E+06 6.21300
1.60000E+06 6.08100
1.75000E+06 5.88400
1.75037E+06 5.88339
1.80000E+06 5.81800
1.86000E+06 5.74100
1.88000E+06 5.71600
2.00000E+06 5.56300
2.50000E+06 4.98600
3.00000E+06 4.53900
3.50000E+06 4.25900
4.00000E+06 4.10700
4.11300E+06 4.09500
4.11311E+06 4.09499
4.14500E+06 4.09200
4.50000E+06 4.05500
5.00000E+06 4.06700
6.00000E+06 4.14100
7.00000E+06 4.29400
8.00000E+06 4.40000
8.11500E+06 4.41400
8.11564E+06 4.41408
9.00000E+06 4.52600
9.12000E+06 4.53500
9.12005E+06 4.53499
9.12076E+06 4.53492
1.00000E+07 4.60000
1.03600E+07 4.60700
1.03610E+07 4.60700
1.03700E+07 4.60700
1.03700E+07 4.60700
1.06500E+07 4.61300
1.10000E+07 4.62000
1.20000E+07 4.64000
1.30000E+07 4.56800
1.40000E+07 4.49500
1.50000E+07 4.41900
1.57200E+07 4.36400
1.57210E+07 4.36390
1.60000E+07 4.34298
1.66800E+07 4.29299
1.66814E+07 4.29289
1.68900E+07 4.27800
1.68913E+07 4.27791
1.70000E+07 4.27000
1.80000E+07 4.19600
1.90000E+07 4.11000
2.00000E+07 4.02400