Cd-108(n,tot) ENDF/B-VII.1
Energy(eV) XS(b)
1.00000E-05 48.9750
1.25000E-05 44.1562
1.50000E-05 40.5991
2.00000E-05 35.6061
2.75000E-05 30.8552
3.50000E-05 27.7286
4.25000E-05 25.4714
5.00000E-05 23.7434
6.25000E-05 21.5883
7.50000E-05 19.9975
0.000100000 17.7646
0.000125000 16.2407
0.000150000 15.1159
0.000200000 13.5369
0.000275000 12.0345
0.000350000 11.0458
0.000425000 10.3320
0.000500000 9.78549
0.000625000 9.10397
0.000750000 8.60090
0.00100000 7.89473
0.00125000 7.41280
0.00150000 7.05705
0.00200000 6.55768
0.00275000 6.08250
0.00350000 5.76976
0.00425000 5.54397
0.00500000 5.37110
0.00625000 5.15550
0.00750000 4.99633
0.0100000 4.77287
0.0125000 4.62034
0.0150000 4.50772
0.0200000 4.34959
0.0253000 4.23619
0.0314750 4.14208
0.0376500 4.07216
0.0500000 3.97340
0.0625000 3.90489
0.0750000 3.85426
0.100000 3.78306
0.125000 3.73435
0.150000 3.69829
0.200000 3.64748
0.275000 3.59881
0.350000 3.56651
0.500000 3.52483
0.750000 3.48478
1.00000 3.46022
1.50000 3.42993
2.00000 3.41092
2.75000 3.39173
3.50000 3.37823
5.00000 3.35943
7.50000 3.33891
10.0000 3.32423
15.0000 3.30189
20.0000 3.28349
27.5000 3.25859
35.0000 3.23484
42.5000 3.21223
46.2500 3.20331
48.1250 3.20179
49.0625 3.20325
50.0000 3.20819
51.0356 3.22344
51.5534 3.24041
52.0712 3.27276
52.3301 3.30054
52.5890 3.34327
52.8479 3.41342
53.1068 3.53982
53.2363 3.64467
53.3657 3.80204
53.4952 4.05353
53.6246 4.49164
53.7541 5.35717
53.8188 6.14624
53.8835 7.44696
53.9482 9.80903
53.9806 11.7787
54.0130 14.7382
54.0453 19.4405
54.0777 27.4271
54.1100 42.0452
54.1424 70.0510
54.1712 110.232
54.2000 137.053
54.2288 110.289
54.2576 70.1216
54.2799 48.9351
54.3023 35.4184
54.3246 26.7489
54.3470 21.0120
54.3916 14.2756
54.4363 10.6892
54.4810 8.57864
54.5256 7.23951
54.6150 5.70648
54.7043 4.89836
54.7937 4.42181
54.8830 4.11768
54.9723 3.91188
55.1510 3.65923
55.3297 3.51583
55.5084 3.42659
55.6871 3.36721
56.0444 3.29532
56.4018 3.25482
57.1165 3.21245
57.8312 3.19107
58.5460 3.17812
59.9754 3.16244
62.8343 3.14416
65.6932 3.13051
77.1288 3.08128
100.000 2.97043
125.000 2.81169
150.000 2.58617
162.500 2.43194
175.000 2.23326
187.500 1.96652
193.750 1.79587
200.000 1.59176
204.169 1.43422
208.337 1.26068
212.506 1.08225
216.675 0.945110
218.759 0.937561
220.843 1.03950
221.364 1.09529
221.885 1.16909
222.407 1.26529
222.667 1.32346
222.928 1.38943
223.188 1.46420
223.449 1.54880
223.709 1.64457
223.970 1.75285
224.491 2.01411
225.012 2.34933
225.533 2.78156
226.054 3.34253
226.575 4.07712
227.096 5.05003
227.617 6.35783
228.138 8.14730
228.659 10.6511
229.180 14.2523
229.702 19.6202
230.223 27.9927
230.744 41.8659
231.265 66.8507
231.525 87.3833
231.786 117.709
232.046 164.896
232.307 243.380
232.568 386.630
232.698 506.022
232.828 684.489
232.958 965.598
233.089 1435.10
233.219 2272.50
233.349 3817.66
233.475 6206.65
233.600 7893.29
233.726 6424.06
233.851 4078.83
233.927 3055.69
234.002 2327.59
234.154 1442.10
234.305 968.827
234.456 693.640
234.608 521.395
234.759 406.973
235.061 269.518
235.364 193.258
235.667 146.513
236.272 94.3178
236.877 67.1503
237.482 51.0925
238.087 40.7409
238.693 33.6354
239.903 24.6918
241.113 19.4161
242.324 15.9983
243.534 13.6311
245.955 10.6012
248.376 8.76235
250.796 7.53142
253.217 6.64697
258.059 5.44336
262.900 4.63224
267.742 4.01267
272.583 3.48874
277.425 3.00619
282.266 2.52997
287.108 2.03849
291.949 1.53796
294.370 1.31166
296.791 1.15543
298.001 1.13634
299.211 1.19184
299.817 1.26194
300.119 1.31120
300.422 1.37175
300.724 1.44523
301.027 1.53356
301.330 1.63895
301.632 1.76399
301.935 1.91183
302.237 2.08607
302.842 2.53187
303.448 3.14712
304.053 3.99844
304.658 5.18524
305.263 6.86025
305.868 9.26638
306.474 12.8054
307.079 18.1797
307.684 26.6899
308.289 40.9510
308.894 66.8085
309.197 88.0682
309.500 119.403
309.802 167.845
310.105 247.528
310.407 389.943
310.559 505.919
310.710 675.327
310.861 933.287
311.013 1344.86
311.164 2031.91
311.315 3198.08
311.486 5242.29
311.657 6704.09
311.828 5483.33
311.999 3506.32
312.198 2057.74
312.397 1303.60
312.596 891.017
312.794 647.192
312.993 492.524
313.192 388.763
313.590 262.594
313.988 191.635
314.385 147.648
315.181 97.8758
315.976 71.5391
316.771 55.7541
317.567 45.4494
318.362 38.2960
319.953 29.1634
321.543 23.6817
323.134 20.0778
324.725 17.5509
327.906 14.2732
331.088 12.2626
334.269 10.9358
335.065 10.6941
335.860 10.5277
336.258 10.5242
336.456 10.5793
336.655 10.7236
336.854 11.0808
336.954 11.4458
337.053 12.0969
337.152 13.3945
337.202 14.5742
337.252 16.5031
337.301 19.9508
337.326 22.7826
337.351 26.9438
337.376 33.4148
337.401 43.9771
337.426 62.4140
337.451 95.2678
337.475 146.521
337.500 180.483
337.525 146.298
337.550 95.2551
337.569 67.4725
337.589 50.1001
337.609 39.0429
337.629 31.8323
337.669 23.4257
337.708 18.9990
337.748 16.3990
337.788 14.7570
337.867 12.8738
337.946 11.8749
338.026 11.2804
338.184 10.6282
338.343 10.2868
338.501 10.0777
338.819 9.82663
339.453 9.55190
340.088 9.36817
341.357 9.08054
342.626 8.83851
347.703 8.08661
352.779 7.54384
357.856 7.13046
368.009 6.54031
378.162 6.13763
388.315 5.84416
398.469 5.62006
418.775 5.29900
439.081 5.07881
459.387 4.91757
500.000 4.69579
531.250 4.57846
562.500 4.48866
625.000 4.35918
687.500 4.26910
750.000 4.20174
875.000 4.10501
1000.00 4.03557
1125.00 3.98011
1250.00 3.93213
1500.00 3.84497
1750.00 3.75517
2000.00 3.64557
2147.62 3.55900
2221.43 3.50378
2295.24 3.43471
2369.05 3.34144
2405.96 3.27874
2442.86 3.19686
2479.77 3.08053
2498.22 2.99893
2516.68 2.88887
2535.13 2.72692
2544.35 2.61036
2553.58 2.45047
2558.19 2.34467
2562.81 2.21234
2567.42 2.04097
2572.03 1.80907
2574.34 1.65935
2576.65 1.47831
2578.95 1.25739
2581.26 0.991872
2582.41 0.847247
2583.57 0.709825
2584.72 0.617905
2585.30 0.618458
2585.87 0.685133
2586.16 0.759227
2586.45 0.873559
2586.74 1.04446
2587.03 1.29316
2587.32 1.65469
2587.60 2.17689
2587.89 2.93936
2588.18 4.06933
2588.47 5.78922
2588.76 8.47170
2589.04 12.8507
2589.33 20.4293
2589.48 26.4009
2589.62 34.7212
2589.77 46.7417
2589.91 64.7512
2590.05 92.9247
2590.20 139.240
2590.34 219.294
2590.49 361.107
2590.64 612.119
2590.80 813.593
2590.96 690.720
2591.11 455.248
2591.23 326.843
2591.35 241.160
2591.47 184.127
2591.59 145.161
2591.82 97.6410
2592.06 71.1281
2592.29 54.8699
2592.53 44.1588
2593.00 31.2821
2593.47 24.0452
2593.95 19.5189
2594.42 16.4676
2594.89 14.2974
2595.83 11.4372
2596.78 9.66445
2597.72 8.46649
2598.66 7.60852
2600.55 6.46344
2602.44 5.73580
2604.32 5.23034
2606.21 4.85601
2609.99 4.32867
2613.76 3.96014
2617.54 3.67052
2621.31 3.41922
2625.08 3.18022
2628.86 2.93238
2632.63 2.65244
2636.41 2.30854
2638.30 2.09767
2640.18 1.84997
2642.07 1.55607
2643.96 1.21442
2644.90 1.03598
2645.84 0.876972
2646.79 0.795352
2647.26 0.826874
2647.73 0.956719
2648.20 1.26323
2648.44 1.52517
2648.67 1.89730
2648.91 2.42446
2649.15 3.17395
2649.38 4.24968
2649.62 5.80954
2649.85 8.14112
2650.09 11.7182
2650.33 17.4260
2650.56 27.0230
2650.80 44.3334
2650.92 58.3765
2651.03 78.6660
2651.15 108.952
2651.27 155.756
2651.39 230.348
2651.50 348.860
2651.66 595.849
2651.82 794.854
2651.98 677.028
2652.13 449.151
2652.27 309.296
2652.40 221.331
2652.54 165.631
2652.68 128.973
2652.95 85.8401
2653.22 62.5188
2653.49 48.4654
2653.76 39.2975
2654.31 28.3480
2654.85 22.2094
2655.40 18.3640
2655.94 15.7628
2656.48 13.9017
2657.57 11.4392
2658.66 9.89828
2659.75 8.85028
2660.84 8.09470
2663.01 7.07939
2665.19 6.43038
2667.36 5.97962
2669.54 5.64791
2673.89 5.19018
2678.24 4.88724
2682.59 4.66996
2686.94 4.50528
2695.65 4.26957
2700.00 4.18198
2704.35 4.10916
2708.70 4.05099
2713.05 4.01704
2715.23 4.02487
2716.32 4.04663
2717.41 4.09717
2718.49 4.21877
2719.04 4.34473
2719.58 4.57652
2719.85 4.77146
2720.13 5.06722
2720.40 5.54608
2720.67 6.39526
2720.81 7.09003
2720.94 8.12014
2721.08 9.74069
2721.21 12.5031
2721.35 17.7840
2721.42 22.4341
2721.49 29.8245
2721.55 42.5359
2721.62 66.8596
2721.66 87.9808
2721.69 120.489
2721.72 172.389
2721.76 253.814
2721.80 404.970
2721.84 503.384
2721.88 404.656
2721.92 253.374
2721.96 170.040
2721.99 117.735
2722.03 85.3799
2722.06 65.0432
2722.13 41.2878
2722.20 28.9160
2722.27 21.6589
2722.34 17.1790
2722.48 12.0955
2722.61 9.42434
2722.75 7.87233
2722.89 6.87994
2723.03 6.21611
2723.31 5.40150
2723.58 4.94152
2723.86 4.65631
2724.14 4.46761
2724.69 4.23880
2725.24 4.11010
2726.35 3.97526
2727.46 3.90652
2728.57 3.86431
2730.78 3.81207
2735.21 3.74976
2739.64 3.70402
2748.50 3.62693
2757.35 3.55707
2766.21 3.48978
2775.07 3.42348
2779.50 3.39197
2783.93 3.36765
2786.14 3.36670
2788.36 3.39906
2789.47 3.46106
2790.02 3.52748
2790.57 3.65154
2791.13 3.91836
2791.40 4.18126
2791.68 4.64880
2791.82 5.03638
2791.96 5.60997
2792.10 6.52540
2792.23 8.08912
2792.37 11.1445
2792.44 13.8569
2792.51 18.2277
2792.58 25.8985
2792.65 41.0509
2792.68 54.9056
2792.72 76.3446
2792.75 113.296
2792.79 174.456
2792.82 278.570
2792.86 345.520
2792.90 275.605
2792.94 174.392
2792.97 120.356
2792.99 86.7812
2793.02 64.9076
2793.05 50.2415
2793.11 32.7932
2793.16 23.3800
2793.22 17.7141
2793.27 14.1734
2793.39 10.0918
2793.50 7.91165
2793.61 6.63468
2793.72 5.81694
2793.84 5.26219
2794.06 4.57721
2794.28 4.18962
2794.51 3.94700
2794.73 3.78610
2795.18 3.59041
2795.63 3.47974
2796.53 3.36288
2797.43 3.30261
2798.33 3.26498
2800.12 3.21668
2803.72 3.15266
2807.31 3.09691
2810.90 3.03896
2814.49 2.97482
2821.68 2.81457
2825.27 2.70923
2828.86 2.57700
2832.46 2.40427
2836.05 2.16728
2837.85 2.01203
2839.64 1.82180
2841.44 1.58537
2843.24 1.29266
2844.13 1.12649
2845.03 0.958436
2845.93 0.820641
2846.83 0.813761
2847.28 0.945572
2847.73 1.28498
2847.95 1.59273
2848.18 2.04726
2848.40 2.72605
2848.62 3.74137
2848.85 5.30342
2849.07 7.75383
2849.30 11.7916
2849.52 18.7603
2849.64 24.2534
2849.75 31.8709
2849.86 42.8229
2849.97 59.1119
2850.08 84.6052
2850.20 125.602
2850.31 194.973
2850.42 314.596
2850.55 538.090
2850.68 717.377
2850.81 610.832
2850.94 405.554
2851.03 299.712
2851.12 226.562
2851.21 176.322
2851.30 141.450
2851.48 97.3911
2851.66 72.0952
2851.84 56.2094
2852.01 45.6675
2852.37 32.8149
2852.73 25.4763
2853.09 20.8597
2853.45 17.7191
2853.81 15.4774
2854.52 12.5117
2855.24 10.6642
2855.96 9.41469
2856.67 8.51854
2858.11 7.32620
2859.54 6.57331
2860.98 6.05659
2862.41 5.68054
2865.28 5.17009
2868.15 4.83924
2871.01 4.60662
2873.88 4.43350
2879.62 4.19133
2885.35 4.03017
2888.22 3.97115
2891.09 3.93186
2892.52 3.93043
2893.96 3.97471
2894.67 4.05684
2895.03 4.14356
2895.39 4.30343
2895.75 4.64238
2895.93 4.97045
2896.11 5.54689
2896.29 6.69896
2896.38 7.76906
2896.47 9.53566
2896.56 12.8443
2896.60 15.6690
2896.64 19.8941
2896.69 26.9405
2896.73 39.4589
2896.78 63.9391
2896.80 84.3445
2896.82 113.823
2896.86 179.708
2896.89 223.780
2896.93 179.648
2896.96 113.743
2897.00 70.4239
2897.04 46.6688
2897.07 32.8736
2897.11 24.8001
2897.15 19.4901
2897.18 16.0138
2897.25 11.7713
2897.33 9.36807
2897.40 7.90122
2897.54 6.28971
2897.69 5.46121
2897.84 4.98573
2898.13 4.48314
2898.42 4.23697
2898.71 4.09744
2899.29 3.95134
2899.87 3.87784
2900.45 3.83397
2901.62 3.78233
2903.94 3.72680
2906.27 3.68996
2910.92 3.63236
2915.57 3.58359
2924.88 3.49856
2934.19 3.42275
2952.80 3.28229
2971.41 3.14024
2990.02 2.97962
3008.63 2.77825
3017.94 2.65124
3027.25 2.49781
3031.90 2.40988
3036.55 2.32008
3038.88 2.28501
3040.04 2.27812
3041.21 2.29041
3042.37 2.35233
3042.95 2.42986
3043.53 2.58348
3043.82 2.71774
3044.11 2.92545
3044.40 3.26711
3044.69 3.87810
3044.84 4.38537
3044.99 5.13655
3045.13 6.33411
3045.28 8.37651
3045.42 12.3507
3045.50 15.8951
3045.57 21.5021
3045.64 31.4207
3045.71 50.5402
3045.75 68.0447
3045.79 94.9713
3045.82 139.235
3045.86 214.770
3045.90 341.388
3045.94 427.444
3045.98 341.234
3046.02 214.554
3046.06 137.454
3046.10 92.9095
3046.13 65.5721
3046.17 48.8928
3046.25 30.0379
3046.32 20.6004
3046.39 15.1374
3046.47 11.7524
3046.62 7.98069
3046.77 6.01668
3046.92 4.87990
3047.07 4.15470
3047.22 3.66929
3047.52 3.07194
3047.81 2.73149
3048.11 2.51715
3048.41 2.37222
3049.01 2.18884
3049.61 2.07693
3050.80 1.93881
3052.00 1.84542
3053.19 1.76823
3055.58 1.62746
3060.36 1.33160
3065.14 0.975794
3067.54 0.771878
3069.93 0.559587
3072.32 0.369667
3073.51 0.308990
3074.71 0.303435
3075.30 0.336127
3075.90 0.405356
3076.50 0.526043
3077.10 0.719551
3077.70 1.01889
3078.29 1.47231
3078.89 2.15889
3079.49 3.20215
3080.09 4.81936
3080.68 7.39086
3081.28 11.6421
3081.88 19.0493
3082.18 24.8687
3082.48 33.0329
3082.78 44.8215
3083.07 62.3654
3083.37 89.7346
3083.67 134.311
3083.97 210.256
3084.27 341.684
3084.61 585.474
3084.95 783.917
3085.29 670.312
3085.63 445.758
3085.97 293.388
3086.30 203.283
3086.63 148.862
3086.97 114.257
3087.30 91.0779
3087.63 74.8326
3088.30 54.1142
3088.97 41.8166
3089.63 33.8870
3090.96 24.4887
3092.30 19.2443
3093.63 15.9675
3094.96 13.7497
3096.29 12.1631
3098.96 10.0594
3101.62 8.73928
3104.29 7.83885
3106.95 7.18748
3112.28 6.30919
3117.61 5.74462
3122.94 5.34997
3128.27 5.05741
3138.93 4.64868
3149.59 4.37226
3154.92 4.26425
3160.25 4.17284
3162.91 4.13554
3165.58 4.11286
3166.91 4.11898
3168.24 4.17238
3168.91 4.26192
3169.24 4.35435
3169.58 4.52354
3169.91 4.87818
3170.08 5.22151
3170.24 5.81826
3170.41 7.01077
3170.49 8.09742
3170.58 9.89622
3170.66 13.2380
3170.70 16.0648
3170.74 20.2454
3170.78 27.1341
3170.83 38.7508
3170.87 61.1194
3170.91 104.539
3170.94 164.723
3170.98 204.963
3171.01 164.624
3171.05 104.408
3171.09 60.9956
3171.13 38.6436
3171.17 26.8318
3171.22 20.0381
3171.26 15.8297
3171.30 13.0619
3171.38 9.78200
3171.47 7.99581
3171.55 6.92023
3171.72 5.75227
3171.89 5.15912
3172.05 4.82067
3172.39 4.46487
3172.72 4.29093
3173.06 4.19207
3173.73 4.08730
3175.07 3.99971
3176.41 3.95757
3179.09 3.90607
3181.77 3.86731
3187.13 3.80083
3192.49 3.74058
3203.21 3.63024
3208.57 3.58279
3211.25 3.57837
3211.92 3.59352
3212.59 3.64634
3212.92 3.72202
3213.26 3.92785
3213.43 4.19334
3213.59 4.84743
3213.68 5.61404
3213.76 7.25492
3213.80 8.90646
3213.84 11.8629
3213.89 17.7142
3213.91 22.7860
3213.93 29.9970
3213.96 45.7159
3213.99 56.3970
3214.02 45.6805
3214.05 29.9519
3214.08 22.4533
3214.10 17.4773
3214.14 11.7331
3214.18 8.77537
3214.22 7.16864
3214.31 5.54081
3214.39 4.79441
3214.56 4.15464
3214.73 3.89579
3215.07 3.69132
3215.41 3.61262
3216.09 3.55000
3216.77 3.52347
3219.49 3.48053
3222.21 3.46838
3222.89 3.47939
3223.57 3.52196
3223.91 3.58465
3224.25 3.75686
3224.42 3.97911
3224.59 4.53211
3224.68 5.17870
3224.76 6.58994
3224.80 8.02679
3224.85 10.5500
3224.89 15.5392
3224.91 19.8671
3224.93 26.4724
3224.96 40.1439
3224.99 49.5282
3225.03 40.1283
3225.06 26.4523
3225.08 19.1209
3225.11 14.5630
3225.13 11.5140
3225.16 9.57692
3225.20 7.24619
3225.25 6.02485
3225.35 4.82867
3225.45 4.29484
3225.64 3.84425
3225.84 3.66545
3226.22 3.52418
3226.61 3.46925
3227.39 3.42349
3228.17 3.40209
3231.28 3.35783
3237.50 3.29308
3243.72 3.23794
3245.27 3.23240
3246.83 3.24728
3247.60 3.28251
3248.38 3.39480
3248.77 3.55282
3248.96 3.70731
3249.16 3.98087
3249.35 4.53727
3249.45 5.05424
3249.55 5.92722
3249.64 7.57070
3249.69 9.01211
3249.74 11.2169
3249.79 14.9946
3249.84 21.8023
3249.86 27.7366
3249.89 36.2014
3249.91 49.0098
3249.94 68.5097
3249.97 108.311
3250.00 133.914
3250.04 108.281
3250.07 68.4689
3250.09 50.9848
3250.11 38.4058
3250.16 23.8716
3250.20 16.5200
3250.24 12.4828
3250.29 9.96019
3250.33 8.35645
3250.42 6.44892
3250.51 5.41122
3250.59 4.79878
3250.77 4.13381
3250.94 3.79828
3251.12 3.60731
3251.46 3.40661
3252.16 3.25134
3252.86 3.18980
3254.26 3.13424
3255.65 3.10350
3258.44 3.05882
3261.24 3.01929
3266.82 2.94007
3272.40 2.85492
3283.57 2.65412
3294.73 2.38766
3300.32 2.21466
3305.90 2.00109
3311.48 1.72929
3317.07 1.37207
3319.86 1.15000
3322.65 0.893576
3325.44 0.605755
3328.23 0.319546
3329.63 0.215042
3330.33 0.189939
3331.02 0.196900
3331.72 0.253604
3332.42 0.387986
3333.12 0.645445
3333.47 0.842398
3333.81 1.10152
3334.51 1.89145
3335.21 3.26315
3335.91 5.70940
3336.26 7.62877
3336.61 10.2983
3336.96 14.0933
3337.30 19.6365
3337.65 28.0124
3338.00 41.2156
3338.35 63.1600
3338.70 102.083
3339.05 176.352
3339.22 237.756
3339.40 324.535
3339.71 557.727
3340.03 748.782
3340.35 642.386
3340.66 428.631
3341.02 267.847
3341.37 179.000
3341.72 128.219
3342.08 97.1315
3342.43 76.8461
3342.78 62.8869
3343.49 45.4064
3344.19 35.1780
3344.90 28.6253
3346.31 20.9067
3347.72 16.6091
3349.13 13.9212
3350.54 12.0988
3351.95 10.7901
3354.78 9.04686
3357.60 7.94574
3360.42 7.18913
3363.24 6.63798
3368.89 5.88725
3374.53 5.39714
3380.18 5.04876
3385.82 4.78547
3397.11 4.40544
3408.40 4.13350
3414.05 4.02162
3419.69 3.92365
3422.52 3.88314
3425.34 3.86026
3426.75 3.87114
3428.16 3.94334
3428.87 4.06122
3429.22 4.18219
3429.57 4.40220
3429.93 4.86342
3430.10 5.30947
3430.28 6.08487
3430.46 7.63413
3430.54 9.04706
3430.63 11.3880
3430.72 15.6714
3430.76 19.2736
3430.81 24.7328
3430.85 33.5085
3430.90 48.6814
3430.94 77.1875
3430.98 133.978
3431.02 211.826
3431.06 263.796
3431.10 211.588
3431.13 133.659
3431.15 100.389
3431.18 76.0010
3431.22 47.5182
3431.27 32.5334
3431.31 23.9357
3431.36 18.6179
3431.40 15.1240
3431.49 10.9877
3431.58 8.71842
3431.67 7.37129
3431.85 5.90235
3432.03 5.15912
3432.21 4.73584
3432.58 4.29203
3432.94 4.07560
3433.30 3.95278
3434.02 3.82270
3435.46 3.71350
3436.91 3.66010
3439.79 3.59233
3442.68 3.53861
3448.46 3.43960
3454.23 3.34070
3465.78 3.12562
3477.33 2.86177
3483.11 2.69711
3488.88 2.49719
3494.66 2.24442
3500.43 1.90930
3503.32 1.69621
3506.21 1.44185
3509.09 1.13731
3511.98 0.783815
3513.43 0.601594
3514.87 0.443914
3516.31 0.376392
3517.04 0.424294
3517.76 0.581488
3518.12 0.725182
3518.48 0.932397
3518.84 1.22586
3519.20 1.63793
3519.56 2.21564
3519.92 3.02892
3520.28 4.18467
3520.64 5.84583
3521.00 8.29656
3521.37 12.0040
3521.73 17.8179
3522.09 27.3730
3522.45 44.0723
3522.81 75.6847
3522.99 102.396
3523.17 141.680
3523.35 200.902
3523.53 290.251
3523.81 500.239
3524.09 673.769
3524.36 579.413
3524.64 387.402
3524.97 237.206
3525.30 156.811
3525.62 111.757
3525.95 84.5196
3526.27 66.8884
3526.60 54.8184
3527.25 39.7533
3527.90 30.9693
3528.56 25.3570
3529.86 18.7385
3531.17 15.0464
3532.47 12.7317
3533.77 11.1581
3535.08 10.0250
3537.69 8.50990
3540.30 7.54785
3542.90 6.88393
3545.51 6.39808
3550.73 5.73184
3555.95 5.29299
3561.17 4.97804
3566.38 4.73771
3576.82 4.38534
3587.25 4.12655
3608.12 3.72546
3628.99 3.34928
3639.43 3.12999
3649.86 2.85605
3660.30 2.47288
3665.52 2.20557
3670.73 1.85056
3673.34 1.62494
3675.95 1.35615
3678.56 1.03621
3681.17 0.669730
3682.47 0.485294
3683.78 0.333497
3684.43 0.289895
3685.08 0.289458
3685.73 0.362022
3686.39 0.559349
3686.71 0.732052
3687.04 0.975613
3687.36 1.31549
3687.69 1.78716
3688.02 2.44192
3688.34 3.35569
3688.67 4.64377
3688.99 6.48669
3689.32 9.17754
3689.65 13.2127
3689.97 19.4769
3690.30 29.6456
3690.62 47.1324
3690.95 79.4974
3691.11 106.173
3691.28 144.856
3691.44 201.883
3691.60 285.828
3691.87 493.675
3692.14 666.079
3692.41 574.162
3692.67 384.949
3692.85 289.719
3693.03 222.756
3693.39 142.302
3693.74 99.4643
3694.10 74.5166
3694.46 58.6786
3694.81 48.0275
3695.53 34.9010
3696.24 27.3264
3696.95 22.5051
3698.38 16.8430
3699.80 13.6909
3701.23 11.7260
3701.94 11.0153
3702.65 10.4639
3703.01 10.2752
3703.37 10.2417
3703.54 10.3970
3703.72 10.9549
3703.81 11.6800
3703.90 13.3259
3703.94 15.0311
3703.99 18.0629
3704.01 20.6780
3704.03 24.3426
3704.06 29.7890
3704.08 38.2801
3704.11 55.4431
3704.14 66.6659
3704.17 54.9883
3704.21 37.6766
3704.23 29.4826
3704.25 24.1571
3704.29 17.9889
3704.33 14.7957
3704.38 13.0503
3704.46 11.2612
3704.55 10.4193
3704.72 9.65228
3704.89 9.29509
3705.23 8.92080
3705.57 8.68823
3706.25 8.34687
3706.93 8.07251
3708.29 7.62242
3709.64 7.26010
3711.00 6.96250
3712.36 6.72437
3713.04 6.63600
3713.72 6.59985
3714.06 6.64081
3714.40 6.82933
3714.57 7.10282
3714.74 7.80482
3714.83 8.63021
3714.91 10.4255
3714.96 12.2426
3715.00 15.4118
3715.04 21.6182
3715.06 26.9542
3715.08 35.1285
3715.11 52.2486
3715.15 63.4287
3715.18 51.7763
3715.21 34.5240
3715.24 24.9111
3715.26 19.1774
3715.29 15.5711
3715.32 13.2189
3715.37 10.4621
3715.42 9.05026
3715.53 7.69570
3715.63 7.09907
3715.84 6.59452
3716.05 6.38397
3716.47 6.19509
3716.89 6.09754
3717.73 5.97155
3718.57 5.87540
3720.25 5.71534
3721.93 5.57962
3725.28 5.35726
3728.64 5.18519
3732.00 5.05719
3733.68 5.01223
3735.36 4.98652
3737.04 4.99699
3737.88 5.03083
3738.72 5.10724
3739.56 5.28278
3739.98 5.45731
3740.39 5.76643
3740.81 6.39544
3741.02 6.98900
3741.23 8.00529
3741.44 10.0029
3741.55 11.8195
3741.65 14.8222
3741.76 20.3244
3741.81 25.0276
3741.86 32.0693
3741.92 43.7522
3741.97 63.9499
3742.02 102.841
3742.05 135.736
3742.07 183.408
3742.11 287.966
3742.15 356.600
3742.20 283.931
3742.24 177.894
3742.26 128.725
3742.29 94.5810
3742.32 71.7262
3742.35 56.0912
3742.40 37.1322
3742.46 26.7372
3742.52 20.5157
3742.57 16.5298
3742.68 11.9383
3742.80 9.51481
3742.91 8.09132
3743.13 6.58819
3743.35 5.85336
3743.58 5.44558
3744.03 5.03735
3744.47 4.84880
3744.92 4.74780
3745.81 4.64881
3746.71 4.60351
3747.60 4.57924
3749.39 4.55805
3752.97 4.57442
3756.55 4.68359
3758.34 4.80233
3760.13 5.00213
3761.92 5.35017
3763.71 6.00256
3764.60 6.55535
3765.50 7.39561
3766.39 8.75551
3767.29 11.1559
3767.73 13.1157
3768.18 16.0018
3768.63 20.5115
3769.08 28.1257
3769.52 42.5188
3769.75 55.0253
3769.97 74.5223
3770.19 107.517
3770.42 168.417
3770.53 219.849
3770.64 296.658
3770.75 414.682
3770.86 594.573
3771.01 948.678
3771.16 1182.60
3771.31 944.866
3771.46 591.541
3771.61 369.584
3771.75 243.324
3771.90 169.675
3772.04 124.539
3772.19 94.9384
3772.33 74.8865
3772.62 50.1378
3772.91 36.1729
3773.20 27.5602
3773.78 17.9473
3774.35 12.9861
3774.93 10.1736
3775.22 9.39783
3775.37 9.26996
3775.51 9.50647
3775.65 10.5868
3775.73 11.8356
3775.80 14.1199
3775.87 18.6426
3775.94 28.3117
3775.98 37.5225
3776.02 52.8480
3776.05 79.7172
3776.07 100.414
3776.09 129.659
3776.13 213.399
3776.16 276.220
3776.20 231.732
3776.24 154.065
3776.28 100.015
3776.32 69.9466
3776.36 52.2123
3776.40 41.1126
3776.44 33.7568
3776.48 28.6383
3776.55 22.1475
3776.63 18.3082
3776.71 15.8203
3776.87 12.8368
3777.02 11.1274
3777.18 10.0190
3777.49 8.65087
3777.80 7.81853
3778.11 7.24397
3778.74 6.47913
3779.36 5.97809
3779.99 5.61777
3781.23 5.12805
3782.48 4.80839
3783.73 4.58312
3786.23 4.28540
3788.72 4.09519
3791.22 3.96028
3796.21 3.77229
3801.20 3.63587
3806.20 3.52194
3816.18 3.31658
3826.17 3.10570
3836.15 2.85841
3841.15 2.70940
3846.14 2.53431
3848.64 2.43431
3851.13 2.32614
3852.38 2.27179
3853.63 2.22792
3854.25 2.22435
3854.88 2.27602
3855.19 2.37616
3855.50 2.67454
3855.66 3.06937
3855.81 4.05296
3855.89 5.19043
3855.97 7.61938
3856.01 9.98860
3856.05 14.1101
3856.09 21.9136
3856.11 28.5941
3856.12 37.6241
3856.16 59.4771
3856.19 73.6613
3856.22 59.8178
3856.25 38.0573
3856.28 27.4705
3856.30 20.2251
3856.33 15.4874
3856.35 12.3042
3856.40 8.51025
3856.44 6.49132
3856.49 5.25846
3856.54 4.47026
3856.64 3.56604
3856.83 2.78635
3857.02 2.46660
3857.40 2.19856
3857.78 2.08051
3858.54 1.95719
3859.30 1.87563
3862.35 1.59958
3865.40 1.29202
3868.45 0.927017
3869.97 0.727385
3871.50 0.534224
3873.02 0.393835
3873.78 0.378931
3874.55 0.443028
3875.31 0.652111
3875.69 0.846759
3876.07 1.13347
3876.45 1.55018
3876.83 2.15375
3877.21 3.03175
3877.59 4.32342
3877.98 6.25869
3878.36 9.23498
3878.74 13.9781
3879.12 21.9058
3879.50 36.0280
3879.69 47.3572
3879.88 63.4066
3880.07 87.0369
3880.26 122.466
3880.45 177.459
3880.64 262.201
3880.92 453.440
3881.20 612.130
3881.48 527.972
3881.75 354.250
3882.06 223.792
3882.36 151.082
3882.67 108.999
3882.97 83.1479
3883.28 66.1328
3883.59 54.4131
3884.20 39.6398
3884.81 30.9458
3885.42 25.3591
3886.64 18.7329
3887.86 15.0211
3889.08 12.6880
3890.30 11.0987
3891.52 9.95237
3893.97 8.41550
3896.41 7.43566
3898.85 6.75546
3901.29 6.25365
3906.18 5.55471
3911.06 5.07888
3920.83 4.42377
3930.60 3.90359
3935.48 3.63187
3940.37 3.31240
3942.81 3.11853
3945.25 2.88751
3947.70 2.60105
3950.14 2.23052
3951.36 2.00080
3952.58 1.73424
3953.80 1.42967
3955.02 1.10877
3955.63 0.971200
3956.24 0.897608
3956.85 0.988072
3957.16 1.16317
3957.46 1.49986
3957.77 2.11043
3958.08 3.19369
3958.23 4.02782
3958.38 5.14889
3958.53 6.69336
3958.69 8.82507
3958.84 11.8642
3958.99 16.2784
3959.14 22.8847
3959.30 33.0609
3959.45 49.6789
3959.60 77.9169
3959.75 129.348
3959.91 224.608
3960.06 391.010
3960.22 528.843
3960.38 457.155
3960.54 308.766
3960.68 212.160
3960.82 152.370
3960.96 114.738
3961.11 90.0508
3961.39 60.9545
3961.67 45.2507
3961.96 35.7108
3962.24 29.4750
3962.81 21.9486
3963.38 17.6788
3963.95 14.9743
3964.52 13.1263
3965.09 11.7917
3966.23 10.0048
3967.36 8.87009
3968.50 8.08845
3969.64 7.51799
3971.92 6.74090
3974.19 6.23488
3976.47 5.87739
3978.74 5.61002
3983.30 5.23262
3987.85 4.97492
3996.95 4.63524
4006.05 4.41144
4015.16 4.24560
4033.36 4.00151
4051.57 3.81599
4069.78 3.65952
4078.88 3.58887
4087.98 3.52587
4092.54 3.50175
4097.09 3.49437
4099.36 3.50953
4101.64 3.56759
4102.78 3.64545
4103.92 3.84019
4104.48 4.07879
4104.77 4.29924
4105.05 4.67418
4105.34 5.41295
4105.48 6.09138
4105.62 7.23549
4105.76 9.41106
4105.84 11.3299
4105.91 14.3992
4105.98 19.7524
4106.05 30.2817
4106.08 39.8950
4106.12 54.8022
4106.16 80.5718
4106.19 124.487
4106.23 194.793
4106.27 241.514
4106.30 191.805
4106.34 120.531
4106.38 74.9476
4106.42 49.3613
4106.46 34.7679
4106.49 26.1149
4106.53 20.3840
4106.57 16.6125
4106.64 11.9546
4106.72 9.33906
4106.79 7.77553
4106.94 6.06982
4107.09 5.22042
4107.24 4.75490
4107.55 4.31335
4107.85 4.15918
4108.15 4.14017
4108.75 4.36754
4109.05 4.63141
4109.35 5.05929
4109.65 5.77393
4109.95 7.05888
4110.25 9.67517
4110.41 12.1305
4110.56 16.2466
4110.71 24.0238
4110.78 30.6827
4110.86 40.9980
4110.93 58.3791
4111.01 89.4663
4111.05 115.304
4111.08 151.832
4111.12 207.516
4111.16 288.582
4111.21 462.327
4111.27 576.903
4111.32 464.364
4111.38 291.635
4111.43 193.738
4111.47 134.274
4111.52 96.8051
4111.57 73.2456
4111.66 46.0546
4111.76 32.0869
4111.85 23.8994
4111.95 18.8081
4112.14 12.9867
4112.33 9.92263
4112.51 8.13029
4112.70 6.98543
4112.89 6.20907
4113.27 5.25008
4113.65 4.70356
4114.03 4.36054
4114.41 4.13026
4115.16 3.84756
4115.92 3.68543
4117.43 3.51166
4118.95 3.42093
4120.46 3.36436
4123.49 3.29352
4129.54 3.20753
4135.59 3.14157
4147.70 3.01890
4159.80 2.88956
4171.91 2.74263
4184.02 2.56600
4190.07 2.46077
4196.12 2.33980
4202.18 2.20312
4203.69 2.17159
4205.20 2.15579
4205.96 2.17147
4206.72 2.25487
4207.10 2.38716
4207.47 2.76064
4207.66 3.24963
4207.76 3.70993
4207.85 4.47895
4207.95 5.93985
4207.99 7.18848
4208.04 9.12578
4208.09 12.4332
4208.14 18.3500
4208.16 23.3475
4208.18 30.3480
4208.21 41.2909
4208.23 57.4751
4208.26 90.4792
4208.30 113.056
4208.33 90.6234
4208.36 57.6570
4208.40 36.3371
4208.43 24.2596
4208.47 17.3249
4208.50 13.1976
4208.53 10.4368
4208.57 8.61379
4208.63 6.33683
4208.70 5.03881
4208.77 4.25272
4208.90 3.37435
4209.04 2.91775
4209.17 2.65307
4209.44 2.36829
4209.98 2.13894
4210.52 2.04185
4211.59 1.94376
4212.67 1.88064
4216.97 1.66758
4221.27 1.42239
4225.57 1.10943
4227.72 0.918540
4229.87 0.701812
4232.02 0.465226
4234.18 0.244527
4235.25 0.178064
4236.33 0.198908
4236.86 0.273390
4237.40 0.421915
4237.94 0.686076
4238.48 1.13414
4239.02 1.88809
4239.55 3.16807
4240.09 5.40643
4240.63 9.51506
4240.90 12.8673
4241.17 17.7060
4241.44 24.9161
4241.70 36.0380
4241.97 54.1750
4242.24 85.4134
4242.51 142.667
4242.78 251.080
4243.04 432.944
4243.31 586.334
4243.57 506.908
4243.84 338.950
4244.06 237.387
4244.28 172.278
4244.50 130.096
4244.72 102.086
4245.16 68.5936
4245.60 50.2806
4246.04 39.1183
4246.48 31.7914
4247.36 22.9915
4248.25 18.0178
4249.13 14.8894
4250.01 12.7618
4250.89 11.2357
4252.65 9.20601
4254.42 7.92857
4256.18 7.05494
4257.94 6.42104
4261.47 5.56265
4264.99 5.00622
4272.05 4.31834
4279.10 3.89735
4286.15 3.60335
4289.68 3.48654
4293.20 3.39013
4294.96 3.35652
4296.73 3.35579
4297.61 3.39785
4298.49 3.55631
4298.93 3.78932
4299.15 4.02007
4299.37 4.43137
4299.59 5.27204
4299.70 6.05652
4299.81 7.38555
4299.92 9.89821
4299.98 12.0832
4300.03 15.5090
4300.09 21.2853
4300.14 32.0020
4300.17 41.2129
4300.20 54.4570
4300.23 75.5434
4300.25 106.944
4300.29 169.095
4300.33 210.684
4300.36 169.153
4300.40 107.015
4300.42 79.4646
4300.45 60.3041
4300.49 37.2071
4300.54 25.3221
4300.59 18.7144
4300.63 14.5617
4300.68 11.8563
4300.77 8.70356
4300.87 6.97796
4300.96 5.95383
4301.15 4.83251
4301.33 4.26780
4301.52 3.94328
4301.90 3.60157
4302.27 3.43215
4302.64 3.33379
4303.39 3.22506
4304.89 3.12347
4306.38 3.06553
4309.38 2.98217
4312.37 2.91238
4318.35 2.78617
4324.33 2.66812
4336.30 2.44515
4339.29 2.39428
4342.28 2.35401
4343.78 2.34849
4345.28 2.38467
4346.02 2.45909
4346.40 2.53938
4346.77 2.68942
4347.15 3.00893
4347.33 3.32000
4347.52 3.86782
4347.71 4.96464
4347.80 5.98411
4347.89 7.66876
4347.99 10.8231
4348.04 13.5153
4348.08 17.5452
4348.13 24.2546
4348.17 35.8132
4348.22 58.6415
4348.24 77.5840
4348.27 104.826
4348.30 166.292
4348.34 207.424
4348.38 166.354
4348.41 104.903
4348.45 68.5610
4348.48 46.4949
4348.52 33.3154
4348.55 25.2498
4348.62 15.9632
4348.68 11.3298
4348.75 8.64700
4348.82 7.00609
4348.95 5.15794
4349.09 4.19248
4349.22 3.63306
4349.49 3.03583
4349.76 2.74050
4350.03 2.57195
4350.57 2.39382
4351.64 2.24853
4352.72 2.18268
4354.87 2.10747
4357.03 2.05285
4365.64 1.86423
4374.25 1.67471
4382.86 1.47427
4391.47 1.26042
4400.08 1.03363
4408.69 0.804112
4412.99 0.711987
4414.07 0.704368
4415.14 0.726695
4415.68 0.774566
4416.22 0.917271
4416.49 1.10754
4416.76 1.59801
4416.89 2.20286
4417.03 3.61404
4417.10 5.19298
4417.16 8.34832
4417.20 11.3123
4417.23 16.0299
4417.26 24.5138
4417.30 39.4865
4417.33 62.3650
4417.36 77.5377
4417.40 61.7171
4417.43 38.6614
4417.46 23.4171
4417.50 15.1800
4417.53 10.4163
4417.57 7.64627
4417.63 4.64579
4417.70 3.19315
4417.84 1.90211
4417.98 1.36799
4418.26 0.945814
4418.53 0.788592
4419.08 0.675788
4419.63 0.643407
4420.74 0.654719
4421.84 0.743960
4422.94 0.986190
4423.49 1.24360
4424.04 1.72064
4424.32 2.12301
4424.59 2.72970
4424.87 3.70993
4425.15 5.42272
4425.42 8.84395
4425.56 11.9851
4425.70 17.1497
4425.83 26.6593
4425.90 34.6565
4425.97 46.7705
4426.04 66.2221
4426.11 99.7779
4426.18 162.561
4426.25 285.409
4426.31 455.883
4426.37 571.266
4426.42 456.535
4426.48 286.118
4426.53 188.204
4426.58 129.166
4426.63 92.6635
4426.68 69.1646
4426.78 42.1493
4426.88 28.3174
4426.99 20.2414
4427.09 15.2305
4427.29 9.54307
4427.49 6.55523
4427.69 4.81035
4427.89 3.69352
4428.09 2.94199
4428.49 2.01542
4428.89 1.48703
4429.29 1.15561
4429.69 0.932798
4430.49 0.657718
4431.30 0.497974
4432.90 0.322456
4434.51 0.229190
4436.11 0.173984
4437.71 0.142401
4439.32 0.129693
4440.92 0.135147
4442.53 0.160228
4444.13 0.207993
4445.73 0.282983
4447.34 0.391464
4448.94 0.541506
4450.55 0.743978
4452.15 1.01317
4455.36 1.83471
4458.57 3.25540
4461.78 5.75872
4464.99 10.3573
4466.59 14.0834
4468.20 19.4150
4469.80 27.2656
4471.40 39.2270
4473.01 58.2301
4474.61 89.8446
4476.22 145.041
4477.82 243.674
4479.56 420.547
4480.43 517.135
4480.65 537.942
4480.87 557.358
4480.98 567.516
4481.09 580.371
4481.14 589.977
4481.20 604.748
4481.25 632.075
4481.28 655.556
4481.31 691.107
4481.34 760.623
4481.38 809.701
4481.38 809.931
4481.39 809.120
4481.39 806.381
4481.40 797.094
4481.42 765.211
4481.46 695.990
4481.49 661.923
4481.51 639.859
4481.57 615.346
4481.62 603.237
4481.68 596.667
4481.79 589.486
4481.89 584.912
4482.33 565.420
4483.20 498.574
4484.94 338.446
4486.59 230.115
4488.24 163.453
4489.89 122.001
4491.55 95.0537
4494.85 63.6453
4498.15 46.7422
4501.45 36.5381
4504.75 29.8503
4511.36 21.7726
4517.96 17.1435
4524.57 14.1560
4531.17 12.0499
4537.78 10.4536
4550.99 8.03274
4557.59 6.97122
4564.19 5.86833
4570.80 4.57477
4574.10 3.78204
4577.40 2.83263
4580.71 1.69630
4582.36 1.09951
4584.01 0.630289
4584.83 0.565566
4585.25 0.625249
4585.66 0.782150
4586.07 1.08032
4586.49 1.58442
4586.90 2.39390
4587.31 3.66150
4587.72 5.64705
4588.14 8.77662
4588.55 13.8056
4588.96 22.1107
4589.37 36.4877
4589.79 62.7115
4589.99 83.8529
4590.20 113.523
4590.41 155.660
4590.61 215.093
4591.01 388.834
4591.42 535.449
4591.82 468.880
4592.22 324.492
4592.53 240.094
4592.85 183.033
4593.16 144.310
4593.47 117.506
4594.10 83.9897
4594.73 64.7177
4595.35 52.5250
4595.98 44.2718
4597.23 34.0024
4598.49 27.9637
4599.74 24.0398
4602.25 19.2844
4604.76 16.5255
4607.26 14.7256
4609.77 13.4560
4612.28 12.5093
4617.29 11.1848
4619.80 10.7023
4622.30 10.3028
4624.81 9.97668
4627.32 9.74633
4628.57 9.71344
4629.20 9.75282
4629.83 9.88015
4630.45 10.2217
4630.77 10.5848
4631.08 11.2531
4631.24 11.8120
4631.39 12.6496
4631.55 13.9786
4631.71 16.2403
4631.86 20.6051
4631.94 24.4277
4632.02 30.4894
4632.10 41.0523
4632.18 60.9744
4632.21 78.1810
4632.25 104.529
4632.29 146.346
4632.33 215.271
4632.38 339.277
4632.43 421.843
4632.48 339.722
4632.52 215.668
4632.57 145.607
4632.61 103.414
4632.65 77.0712
4632.69 59.9845
4632.77 40.3257
4632.85 30.0539
4632.93 24.0786
4633.01 20.3152
4633.17 16.0328
4633.33 13.7838
4633.49 12.4573
4633.65 11.6082
4633.81 11.0303
4634.13 10.3103
4634.45 9.89283
4635.09 9.43683
4635.73 9.19169
4636.37 9.03413
4637.65 8.82829
4640.21 8.56855
4642.77 8.37586
4645.33 8.21171
4647.90 8.06513
4653.02 7.80814
4663.27 7.39089
4673.52 7.05883
4694.01 6.54994
4714.51 6.16676
4755.50 5.59918
4796.49 5.16359
4837.48 4.77526
4878.47 4.36550
4898.96 4.11897
4919.46 3.80244
4929.71 3.59329
4939.95 3.32058
4945.08 3.14651
4947.64 3.04646
4950.20 2.93651
4952.76 2.81772
4955.33 2.70199
4956.61 2.66557
4957.89 2.70690
4958.53 2.83781
4958.85 2.98783
4959.17 3.27404
4959.49 3.88710
4959.65 4.48096
4959.81 5.51545
4959.97 7.54459
4960.05 9.37431
4960.13 12.3516
4960.21 17.6473
4960.25 21.9700
4960.29 28.3270
4960.33 38.1318
4960.37 54.1164
4960.41 81.7054
4960.45 130.804
4960.49 208.765
4960.53 259.191
4960.57 208.759
4960.61 130.782
4960.65 84.4529
4960.69 56.7346
4960.72 40.3270
4960.76 30.1092
4960.84 18.8199
4960.91 13.2001
4960.99 9.95768
4961.06 7.95167
4961.22 5.71671
4961.37 4.55002
4961.52 3.87077
4961.82 3.13891
4962.12 2.76444
4962.43 2.54057
4963.03 2.28021
4964.24 2.00022
4965.45 1.80101
4967.87 1.42360
4970.30 1.00652
4971.51 0.785269
4972.72 0.577253
4973.93 0.438127
4974.53 0.435916
4975.14 0.526716
4975.74 0.784577
4976.05 1.01588
4976.35 1.34891
4976.65 1.82644
4976.95 2.50494
4977.26 3.47947
4977.56 4.88394
4977.86 6.95458
4978.17 10.0685
4978.47 14.8946
4978.77 22.6406
4979.07 35.8002
4979.38 59.4329
4979.53 78.5059
4979.68 105.284
4979.83 143.512
4979.98 197.866
4980.26 347.658
4980.54 475.766
4980.81 415.174
4981.09 281.923
4981.39 183.287
4981.68 126.637
4981.98 93.0647
4982.27 72.0761
4982.57 58.0709
4982.87 48.3200
4983.46 35.8612
4984.05 28.4443
4984.64 23.6207
4985.82 17.8424
4987.00 14.5623
4988.18 12.4779
4989.37 11.0467
4990.55 10.0081
4992.91 8.60391
4995.27 7.70132
4997.64 7.07205
5000.00 6.61062
5001.62 6.36528
5003.24 6.18070
5004.05 6.13144
5004.85 6.17669
5005.26 6.31791
5005.66 6.76935
5005.87 7.38200
5005.97 7.96038
5006.07 8.94149
5006.17 10.7906
5006.22 12.4092
5006.27 14.8804
5006.32 19.0915
5006.37 26.6301
5006.40 33.1395
5006.42 42.3707
5006.45 56.2222
5006.47 77.8344
5006.51 120.596
5006.54 149.995
5006.58 120.644
5006.61 77.8885
5006.65 53.0198
5006.68 38.2664
5006.71 29.1049
5006.74 23.1861
5006.80 16.3248
5006.86 12.8280
5006.92 10.7686
5006.98 9.49716
5007.10 8.04733
5007.22 7.27816
5007.34 6.82664
5007.58 6.33369
5008.06 5.92740
5008.54 5.75125
5009.51 5.57166
5010.47 5.46067
5012.40 5.29633
5014.33 5.16229
5018.19 4.93702
5022.05 4.74667
5025.91 4.57972
5029.76 4.43234
5031.69 4.36903
5033.62 4.32588
5034.59 4.32969
5035.55 4.40329
5036.03 4.53301
5036.52 4.91276
5036.76 5.42075
5036.88 5.90517
5037.00 6.72827
5037.12 8.32262
5037.18 9.71974
5037.24 11.9404
5037.30 15.8440
5037.36 23.2340
5037.39 29.6613
5037.42 39.5734
5037.45 55.4545
5037.48 82.0554
5037.52 129.022
5037.55 160.161
5037.59 129.160
5037.63 82.2319
5037.67 50.0166
5037.71 32.9234
5037.75 23.5196
5037.79 17.9574
5037.83 14.4428
5037.87 12.0972
5037.94 9.30119
5038.02 7.73067
5038.10 6.77566
5038.26 5.72812
5038.42 5.18946
5038.58 4.87875
5038.90 4.54657
5039.54 4.28092
5040.18 4.16938
5041.45 4.05931
5042.73 3.99178
5047.83 3.79362
5052.93 3.61168
5058.03 3.42531
5068.24 3.01343
5078.44 2.50694
5083.55 2.19687
5088.65 1.83335
5093.75 1.40325
5098.85 0.903560
5101.40 0.640670
5103.96 0.400165
5105.23 0.307728
5106.51 0.254956
5107.78 0.271181
5109.06 0.407141
5109.70 0.546140
5110.33 0.754150
5110.97 1.05531
5111.61 1.48281
5112.25 2.08656
5112.88 2.93711
5113.52 4.14087
5114.16 5.85820
5114.80 8.35346
5115.44 12.0506
5116.07 17.6802
5116.71 26.5392
5117.35 41.1460
5117.99 66.4889
5118.62 112.959
5119.26 200.597
5119.92 355.173
5120.58 487.558
5121.24 426.512
5121.90 291.153
5122.51 200.339
5123.12 144.093
5123.74 108.864
5124.35 85.8117
5125.58 58.7235
5126.80 44.0040
5128.03 35.0468
5129.26 29.1459
5131.71 21.9839
5134.16 17.8780
5136.61 15.2593
5137.84 14.2883
5139.07 13.4959
5139.68 13.1790
5140.29 12.9780
5140.60 13.0024
5140.90 13.3332
5141.06 13.8712
5141.21 15.2721
5141.29 16.9170
5141.36 20.3454
5141.40 23.7301
5141.44 29.3710
5141.48 39.6941
5141.52 59.6690
5141.55 88.0228
5141.59 107.129
5141.62 87.9784
5141.65 59.5884
5141.69 39.5785
5141.73 29.0277
5141.77 23.3274
5141.81 19.9951
5141.89 16.5134
5141.96 14.8398
5142.12 13.3294
5142.28 12.6674
5142.59 12.0632
5142.90 11.7560
5143.52 11.3777
5144.15 11.1002
5145.40 10.6466
5146.64 10.2614
5149.14 9.61584
5151.64 9.08835
5156.63 8.27031
5161.62 7.65974
5171.60 6.79190
5181.59 6.18068
5191.57 5.70029
5201.56 5.28685
5206.55 5.09362
5211.54 4.90932
5214.04 4.82691
5216.53 4.77348
5217.78 4.78722
5219.03 4.91541
5219.65 5.13218
5219.96 5.35566
5220.28 5.76271
5220.59 6.60690
5220.74 7.41041
5220.90 8.79388
5221.06 11.4723
5221.13 13.8596
5221.21 17.7003
5221.29 24.4228
5221.37 37.6413
5221.41 49.4529
5221.45 68.1702
5221.49 99.2368
5221.52 150.992
5221.57 239.276
5221.61 297.391
5221.65 239.228
5221.70 150.907
5221.75 88.6669
5221.80 56.4242
5221.85 39.0568
5221.90 28.9342
5221.95 22.6045
5222.00 18.4127
5222.10 13.4102
5222.20 10.6664
5222.30 9.00575
5222.50 7.19127
5222.70 6.26460
5222.90 5.72966
5223.29 5.16455
5223.69 4.88148
5224.09 4.71608
5224.89 4.52972
5226.49 4.34630
5228.09 4.23154
5231.28 4.04427
5234.48 3.86241
5240.87 3.45715
5247.26 2.94604
5250.46 2.62741
5253.65 2.24846
5256.85 1.79112
5260.05 1.24066
5263.24 0.629564
5264.84 0.380469
5265.64 0.319964
5266.44 0.352812
5267.24 0.556882
5267.64 0.765511
5268.04 1.08118
5268.44 1.54861
5268.83 2.22881
5269.23 3.22108
5269.63 4.66861
5270.03 6.81649
5270.43 10.0476
5270.83 15.0628
5271.23 23.0808
5271.63 36.5503
5272.03 60.3186
5272.43 104.885
5272.63 141.175
5272.83 191.334
5273.23 340.844
5273.63 469.290
5274.03 411.406
5274.42 281.973
5274.77 200.667
5275.11 148.133
5275.45 113.918
5275.79 90.9866
5276.47 63.2756
5277.15 47.8492
5277.83 38.3268
5278.51 31.9851
5279.87 24.2187
5281.23 19.7308
5282.60 16.8464
5283.96 14.8507
5285.32 13.3945
5288.04 11.4146
5290.77 10.1329
5293.49 9.23262
5296.21 8.56215
5301.66 7.61744
5307.11 6.96725
5318.00 6.07369
5328.90 5.40755
5339.79 4.79360
5345.24 4.46968
5350.69 4.11510
5353.41 3.92195
5356.14 3.71985
5357.50 3.62143
5358.86 3.54520
5359.54 3.54167
5360.22 3.63689
5360.56 3.81430
5360.90 4.32983
5361.07 5.00217
5361.16 5.62408
5361.24 6.66023
5361.33 8.56598
5361.37 10.1980
5361.41 12.6217
5361.46 16.6325
5361.50 23.4474
5361.54 36.7007
5361.56 47.4962
5361.58 62.8194
5361.62 98.3725
5361.65 122.045
5361.69 98.0628
5361.72 62.4098
5361.75 45.8900
5361.77 34.6570
5361.82 21.6772
5361.86 15.0007
5361.91 11.3647
5361.96 9.11169
5362.00 7.68399
5362.09 6.00720
5362.19 5.09250
5362.28 4.54484
5362.46 3.94881
5362.84 3.45870
5363.21 3.25089
5363.95 3.04520
5364.69 2.91668
5366.17 2.70781
5367.66 2.50753
5370.62 2.09069
5372.11 1.92392
5372.48 1.93357
5372.85 2.06220
5373.04 2.27671
5373.22 2.85554
5373.31 3.56201
5373.41 5.11906
5373.45 6.74527
5373.50 9.66481
5373.55 15.6160
5373.57 20.9338
5373.59 29.2731
5373.62 45.6477
5373.66 56.8951
5373.69 45.5433
5373.72 29.1324
5373.75 18.6845
5373.79 12.8679
5373.82 9.43690
5373.85 7.30283
5373.91 4.94394
5373.97 3.75465
5374.10 2.65217
5374.22 2.16909
5374.47 1.74932
5374.72 1.55875
5375.21 1.35551
5375.71 1.22108
5377.69 0.801345
5379.68 0.458844
5380.67 0.350079
5381.67 0.334145
5382.66 0.491411
5383.16 0.678858
5383.65 0.976475
5384.15 1.43026
5384.65 2.10414
5385.14 3.10011
5385.64 4.56717
5386.14 6.75563
5386.63 10.0588
5387.13 15.1831
5387.62 23.3527
5388.12 36.9685
5388.62 60.6959
5389.11 104.277
5389.61 186.404
5390.14 335.583
5390.66 463.383
5391.19 407.335
5391.72 281.426
5392.21 195.055
5392.71 141.521
5393.21 107.912
5393.71 85.8509
5394.70 59.7951
5395.70 45.5321
5396.70 36.7982
5397.69 31.0027
5399.68 23.9141
5401.68 19.8134
5403.67 17.1716
5405.66 15.3398
5407.65 14.0004
5411.64 12.1812
5415.62 11.0179
5417.61 10.5954
5419.61 10.2813
5420.60 10.1991
5421.60 10.2756
5422.10 10.5085
5422.34 10.7669
5422.59 11.2468
5422.84 12.2438
5422.97 13.1889
5423.09 14.7807
5423.22 17.8183
5423.28 20.4404
5423.34 24.5448
5423.40 31.5991
5423.47 44.5280
5423.50 55.4049
5423.53 71.6408
5423.56 96.5815
5423.59 135.481
5423.63 211.187
5423.67 260.202
5423.71 210.282
5423.75 134.213
5423.78 99.3934
5423.81 75.8501
5423.86 48.5622
5423.92 34.5150
5423.97 26.8211
5424.03 22.0629
5424.08 19.0363
5424.19 15.4617
5424.30 13.5410
5424.41 12.3931
5424.63 11.1498
5424.84 10.5161
5425.06 10.1466
5425.50 9.74340
5426.37 9.38531
5427.24 9.19934
5428.98 8.95873
5430.72 8.77644
5434.21 8.48043
5437.69 8.23751
5444.66 7.85384
5451.62 7.56620
5458.59 7.35461
5462.07 7.28008
5465.56 7.23802
5467.30 7.23747
5469.04 7.26117
5470.78 7.32771
5472.52 7.48048
5473.40 7.62073
5474.27 7.84216
5475.14 8.21124
5476.01 8.88064
5476.44 9.43704
5476.88 10.2692
5477.32 11.5987
5477.75 13.9007
5478.19 18.4363
5478.40 22.5554
5478.62 29.2841
5478.84 41.4887
5478.95 51.6260
5479.06 66.6308
5479.17 90.5145
5479.27 130.806
5479.38 203.829
5479.49 340.201
5479.59 540.122
5479.69 673.579
5479.79 539.335
5479.89 338.616
5479.97 227.466
5480.05 159.528
5480.13 116.522
5480.21 88.9602
5480.38 57.0262
5480.54 40.4428
5480.70 30.7430
5480.86 24.6520
5481.19 17.7668
5481.52 14.1625
5481.84 12.0593
5482.17 10.7204
5482.49 9.82117
5483.14 8.72019
5483.79 8.09767
5484.44 7.71052
5485.09 7.45264
5486.40 7.13712
5487.70 6.95535
5489.00 6.83784
5490.30 6.75513
5492.91 6.64346
5495.51 6.56806
5500.71 6.46542
5505.92 6.40011
5508.53 6.38349
5511.13 6.38806
5513.73 6.44333
5515.03 6.51795
5516.34 6.67024
5516.99 6.80552
5517.64 7.01731
5518.29 7.37011
5518.94 8.01174
5519.26 8.54878
5519.59 9.35480
5519.92 10.6492
5520.24 12.8965
5520.57 17.3342
5520.73 21.3589
5520.89 27.8957
5521.05 39.6710
5521.14 49.2846
5521.22 63.4834
5521.30 85.8478
5521.38 122.256
5521.46 185.800
5521.54 301.266
5521.62 479.922
5521.70 598.644
5521.78 481.324
5521.86 303.554
5521.92 214.251
5521.98 156.134
5522.04 117.777
5522.10 91.7967
5522.21 60.5571
5522.33 43.5202
5522.44 33.2594
5522.56 26.7380
5522.79 19.1756
5523.03 15.1221
5523.26 12.7205
5523.49 11.1695
5523.72 10.1177
5524.19 8.81271
5524.65 8.06432
5525.12 7.59405
5525.58 7.27821
5526.51 6.89089
5527.44 6.66869
5529.30 6.43039
5531.16 6.30592
5533.02 6.22841
5536.74 6.13274
5540.46 6.07251
5544.18 6.03695
5546.04 6.03896
5547.90 6.09558
5548.83 6.20099
5549.29 6.31469
5549.76 6.52942
5550.22 6.99432
5550.46 7.45459
5550.69 8.27061
5550.92 9.93115
5551.04 11.4708
5551.15 14.0546
5551.27 18.8558
5551.33 22.9479
5551.39 29.2237
5551.44 39.4658
5551.50 57.5361
5551.56 92.4700
5551.59 122.067
5551.62 165.145
5551.67 262.804
5551.71 327.385
5551.76 264.875
5551.80 168.082
5551.84 117.968
5551.88 85.1246
5551.91 64.0211
5551.95 50.3500
5552.02 33.8977
5552.09 25.0609
5552.16 19.7657
5552.23 16.4414
5552.37 12.6027
5552.52 10.5463
5552.66 9.33213
5552.94 8.01236
5553.23 7.34792
5553.51 6.96483
5554.08 6.55898
5554.65 6.35643
5555.22 6.23876
5556.36 6.11050
5558.64 5.99882
5560.92 5.94435
5565.48 5.88044
5570.04 5.83584
5579.16 5.76500
5588.27 5.70466
5606.51 5.59920
5624.74 5.50601
5642.97 5.42088
5661.21 5.34180
5679.44 5.27007
5688.56 5.24855
5690.84 5.25441
5693.12 5.28636
5694.26 5.33722
5695.40 5.48438
5695.97 5.68534
5696.25 5.88128
5696.54 6.22890
5696.82 6.93632
5696.96 7.60576
5697.11 8.74291
5697.25 10.9465
5697.32 12.8878
5697.39 15.9912
5697.46 21.3769
5697.53 31.8340
5697.57 41.2204
5697.60 55.4987
5697.64 79.5121
5697.68 119.044
5697.72 186.700
5697.76 232.623
5697.80 186.455
5697.84 118.701
5697.88 78.3206
5697.91 54.1758
5697.95 39.6839
5697.99 30.5652
5698.06 20.3907
5698.13 15.2830
5698.21 12.3208
5698.28 10.4839
5698.43 8.43694
5698.58 7.37176
5698.72 6.75641
5699.02 6.10531
5699.31 5.78561
5699.61 5.60595
5700.20 5.42179
5701.38 5.28405
5702.55 5.23259
5704.91 5.19082
5707.27 5.17197
5711.98 5.15793
5714.34 5.18620
5714.93 5.22080
5715.52 5.31765
5715.81 5.44665
5716.11 5.78258
5716.26 6.20536
5716.40 7.21603
5716.48 8.36366
5716.55 10.7154
5716.59 12.9782
5716.62 16.8225
5716.66 23.8557
5716.70 36.8047
5716.73 55.7369
5716.76 68.2991
5716.80 55.5871
5716.83 36.6126
5716.86 26.1901
5716.88 19.9007
5716.91 15.8910
5716.93 13.2479
5716.99 10.1165
5717.04 8.49625
5717.14 6.93116
5717.25 6.24599
5717.46 5.67097
5717.67 5.44416
5718.09 5.26896
5718.50 5.20390
5720.18 5.13633
5723.52 5.11531
5730.21 5.12791
5733.56 5.17782
5735.23 5.23616
5736.91 5.35002
5737.74 5.44924
5738.58 5.60310
5739.42 5.85836
5740.25 6.32214
5740.67 6.71061
5741.09 7.29570
5741.51 8.23652
5741.93 9.88764
5742.35 13.1931
5742.55 16.2307
5742.76 21.2876
5742.97 30.5977
5743.08 38.5167
5743.18 50.4644
5743.29 69.9937
5743.39 103.744
5743.50 168.663
5743.55 222.427
5743.60 300.312
5743.69 477.074
5743.77 596.798
5743.86 477.922
5743.94 301.486
5744.03 189.503
5744.11 125.861
5744.19 88.8411
5744.28 66.2785
5744.36 51.4012
5744.45 41.2681
5744.61 28.8811
5744.78 21.8436
5744.95 17.5271
5745.28 12.6927
5745.62 10.2024
5745.95 8.75406
5746.29 7.83774
5746.62 7.22264
5747.29 6.46828
5747.96 6.04123
5748.63 5.77532
5749.30 5.59814
5750.64 5.38192
5751.98 5.25866
5754.66 5.12658
5757.34 5.05700
5760.02 5.01276
5765.37 4.95526
5776.09 4.88011
5786.80 4.81851
5797.52 4.75979
5808.23 4.70431
5813.59 4.68313
5818.95 4.68503
5821.63 4.71985
5822.97 4.76435
5824.31 4.85403
5825.65 5.05747
5826.32 5.26433
5826.98 5.64154
5827.65 6.43597
5827.99 7.20631
5828.32 8.55584
5828.66 11.2613
5828.83 13.7666
5828.99 17.9221
5829.16 25.6489
5829.25 32.2185
5829.33 42.1301
5829.41 58.4252
5829.50 86.6485
5829.58 141.442
5829.62 187.647
5829.66 251.901
5829.73 401.931
5829.80 500.205
5829.87 400.338
5829.93 252.857
5830.01 151.127
5830.08 97.5424
5830.15 67.3639
5830.23 49.6423
5830.30 38.2317
5830.37 30.6933
5830.52 21.5180
5830.67 16.4278
5830.81 13.3231
5831.11 9.90349
5831.40 8.15126
5831.69 7.14104
5831.99 6.50175
5832.28 6.07386
5832.87 5.54974
5833.46 5.25338
5834.63 4.94403
5835.81 4.79093
5836.98 4.70177
5839.33 4.60254
5841.68 4.54906
5844.03 4.52577
5845.20 4.53751
5846.38 4.61146
5846.96 4.73406
5847.55 5.09599
5847.84 5.59164
5847.99 6.07036
5848.14 6.89730
5848.28 8.52865
5848.36 10.0119
5848.43 12.3888
5848.51 16.6613
5848.58 25.0841
5848.62 32.8298
5848.65 44.9064
5848.69 65.8460
5848.72 101.535
5848.76 161.026
5848.80 200.565
5848.84 162.398
5848.88 103.383
5848.91 75.6327
5848.93 57.0832
5848.99 35.6193
5849.04 24.5659
5849.09 18.5063
5849.14 14.7464
5849.20 12.3490
5849.30 9.50315
5849.41 7.96419
5849.51 7.03938
5849.72 6.03261
5849.93 5.51863
5850.14 5.22111
5850.56 4.90541
5851.40 4.65469
5852.24 4.55340
5853.92 4.46349
5855.59 4.41762
5858.95 4.35966
5862.31 4.31561
5865.66 4.27812
5869.02 4.25300
5870.70 4.25699
5872.37 4.30911
5873.21 4.40105
5874.05 4.67707
5874.47 5.05842
5874.68 5.43007
5874.89 6.08155
5875.10 7.39300
5875.21 8.60563
5875.31 10.6081
5875.41 14.3409
5875.47 17.5508
5875.52 22.3721
5875.57 30.3861
5875.62 44.2351
5875.68 70.7902
5875.70 93.1192
5875.73 125.018
5875.77 197.755
5875.81 246.404
5875.85 198.239
5875.90 125.526
5875.94 81.5724
5875.97 56.3107
5876.01 40.7557
5876.05 31.2264
5876.13 20.4188
5876.20 14.9855
5876.28 11.8317
5876.36 9.87232
5876.51 7.68196
5876.66 6.53737
5876.82 5.87280
5877.12 5.16307
5877.43 4.81228
5877.74 4.61278
5878.35 4.40471
5879.58 4.24726
5880.81 4.19918
5882.04 4.21530
5883.26 4.36901
5883.88 4.62249
5884.19 4.88374
5884.49 5.36151
5884.80 6.35787
5884.95 7.31328
5885.11 8.94849
5885.26 12.1276
5885.34 14.9509
5885.41 19.3912
5885.49 27.1474
5885.57 42.0684
5885.61 55.2808
5885.64 75.1432
5885.68 106.747
5885.72 157.805
5885.77 251.128
5885.81 314.423
5885.86 253.129
5885.91 160.632
5885.94 118.422
5885.97 89.3794
5886.03 55.2163
5886.09 37.5752
5886.15 27.5635
5886.21 21.4095
5886.27 17.3795
5886.39 12.6163
5886.51 10.0224
5886.63 8.45668
5886.87 6.74042
5887.11 5.86793
5887.35 5.36387
5887.83 4.83809
5888.31 4.60638
5888.79 4.57491
5889.03 4.70056
5889.27 5.15080
5889.39 5.76006
5889.51 7.24060
5889.57 8.87414
5889.63 12.1243
5889.66 15.0469
5889.69 19.6938
5889.72 27.4302
5889.75 41.0626
5889.78 63.6530
5889.82 79.9030
5889.85 65.2554
5889.88 43.0963
5889.92 26.5204
5889.96 18.2049
5890.00 13.5893
5890.04 10.9536
5890.12 8.14315
5890.20 6.78558
5890.36 5.56003
5890.51 5.03452
5890.83 4.58400
5891.14 4.39071
5891.77 4.21491
5892.40 4.12839
5894.92 3.97242
5899.97 3.81591
5905.01 3.68514
5910.05 3.54957
5920.13 3.22947
5930.21 2.79737
5935.25 2.51553
5940.29 2.17056
5945.33 1.74250
5950.37 1.21182
5952.90 0.909136
5955.42 0.598092
5957.94 0.327057
5959.20 0.244960
5960.46 0.244260
5961.72 0.396142
5962.35 0.567719
5962.98 0.836839
5963.61 1.24301
5964.24 1.84443
5964.87 2.72888
5965.50 4.03221
5966.13 5.97133
5966.76 8.90515
5967.39 13.4529
5968.02 20.7354
5968.65 32.8942
5969.28 54.2532
5969.91 93.8666
5970.54 169.535
5971.19 304.545
5971.84 422.005
5972.49 372.142
5973.15 256.704
5973.57 198.949
5973.99 156.969
5974.82 104.901
5975.66 76.1854
5976.50 58.9204
5977.34 47.7257
5978.18 40.0413
5979.86 30.3635
5981.54 24.6410
5983.22 20.9249
5986.57 16.4534
5989.93 13.8961
5993.29 12.2572
5996.64 11.1231
6000.00 10.2946
6000.00 12.6183
7200.00 12.0090
7800.00 11.7621
8500.00 11.5103
10000.0 11.0699
12500.0 10.5366
14000.0 10.2952
15000.0 10.1575
17000.0 9.92448
20000.0 9.65291
25000.0 9.33276
30000.0 9.11253
35000.0 8.95264
40000.0 8.83191
45000.0 8.73796
50000.0 8.66301
60000.0 8.55138
67500.0 8.48982
72000.0 8.45910
85000.0 8.38821
99999.9 8.32733
100000 8.09300
150000 7.94730
200000 7.82250
300000 7.59000
400000 7.50300
500000 7.39000
600000 7.27600
620000 7.24700
639000 7.21950
640000 7.21867
660000 7.18901
680000 7.16035
700000 7.13169
800000 6.98740
874000 6.87984
874096 6.87971
1.00000E+06 6.69700
1.20000E+06 6.44240
1.40000E+06 6.18380
1.50000E+06 6.05450
1.52000E+06 6.02912
1.52008E+06 6.02896
1.60000E+06 5.92596
1.62000E+06 5.90069
1.62000E+06 5.90068
1.74000E+06 5.74916
1.74012E+06 5.74893
1.80000E+06 5.67323
1.93000E+06 5.51413
1.93088E+06 5.51260
2.00000E+06 5.42762
2.17000E+06 5.23975
2.17010E+06 5.23961
2.18000E+06 5.22877
2.18019E+06 5.22847
2.22000E+06 5.18535
2.26000E+06 5.14066
2.29700E+06 5.09991
2.29728E+06 5.09960
2.39000E+06 4.99752
2.39014E+06 4.99729
2.50000E+06 4.87633
2.50026E+06 4.87581
3.00000E+06 4.44274
3.50000E+06 4.16541
4.00000E+06 4.00882
4.50000E+06 3.95152
5.00000E+06 3.95770
5.96700E+06 4.02733
5.96747E+06 4.02735
6.00000E+06 4.02900
6.25600E+06 4.06634
6.25655E+06 4.06642
7.00000E+06 4.17399
8.00000E+06 4.26759
8.21600E+06 4.29107
8.21670E+06 4.29115
9.00000E+06 4.37556
9.28700E+06 4.39454
9.28782E+06 4.39460
1.00000E+07 4.44170
1.04300E+07 4.45294
1.04306E+07 4.45286
1.10000E+07 4.46690
1.20000E+07 4.49277
1.30000E+07 4.43723
1.40000E+07 4.38095
1.50000E+07 4.31854
1.56000E+07 4.28005
1.56015E+07 4.27995
1.60000E+07 4.25505
1.70000E+07 4.18758
1.72900E+07 4.16840
1.72912E+07 4.16832
1.80000E+07 4.12117
1.84300E+07 4.08685
1.84317E+07 4.08671
1.90000E+07 4.04072
2.00000E+07 3.95946