Sb-123(n,tot) ENDF/B-VII.1
Energy(eV) XS(b)
1.00000E-05 198.257
1.25000E-05 177.715
1.50000E-05 162.552
2.00000E-05 141.267
2.75000E-05 121.014
3.50000E-05 107.686
4.25000E-05 98.0636
5.00000E-05 90.6974
6.25000E-05 81.5107
7.50000E-05 74.7293
0.000100000 65.2105
0.000125000 58.7145
0.000150000 53.9194
0.000200000 47.1886
0.000275000 40.7843
0.000350000 36.5695
0.000425000 33.5267
0.000500000 31.1974
0.000625000 28.2924
0.000750000 26.1480
0.00100000 23.1380
0.00125000 21.0839
0.00150000 19.5676
0.00200000 17.4393
0.00275000 15.4143
0.00350000 14.0817
0.00425000 13.1197
0.00500000 12.3832
0.00625000 11.4648
0.00750000 10.7869
0.0100000 9.83535
0.0125000 9.18608
0.0150000 8.70686
0.0200000 8.03428
0.0253000 7.55226
0.0314750 7.15255
0.0376500 6.85580
0.0500000 6.43711
0.0625000 6.14716
0.0750000 5.93319
0.100000 5.63295
0.125000 5.42813
0.150000 5.27698
0.200000 5.06486
0.275000 4.86302
0.350000 4.73009
0.500000 4.56035
0.750000 4.39989
1.00000 4.30323
1.50000 4.18622
2.00000 4.11397
2.75000 4.04169
3.50000 3.99079
5.00000 3.91917
7.50000 3.84187
10.0000 3.80118
12.5000 3.82727
13.7500 3.90259
15.0000 4.07967
16.2500 4.49246
16.8750 4.89075
17.5000 5.55095
18.1250 6.71433
18.7500 8.95779
19.0625 10.9079
19.3750 13.9336
19.6875 18.9357
20.0000 27.9679
20.1646 35.9167
20.3292 48.0502
20.4938 67.8022
20.6584 102.937
20.7407 131.673
20.8229 174.148
20.9052 240.544
20.9875 352.319
21.0698 561.156
21.1110 740.164
21.1521 1016.24
21.1933 1470.60
21.2344 2281.76
21.2550 2937.78
21.2756 3879.24
21.2961 5256.27
21.3167 7264.03
21.3484 11676.3
21.3800 14663.5
21.4117 11791.8
21.4433 7411.20
21.4712 4843.93
21.4991 3298.51
21.5270 2354.59
21.5549 1752.57
21.6106 1070.63
21.6664 719.430
21.7222 516.751
21.7780 389.736
21.8895 245.716
22.0011 170.278
22.1126 125.852
22.2242 97.4627
22.3357 78.1960
22.5588 54.4107
22.7819 40.7864
23.0050 32.2251
23.2281 26.4748
23.6743 19.4304
24.1205 15.4102
24.5667 12.8802
25.0129 11.1736
25.9053 9.06411
26.7977 7.84169
27.6901 7.05944
28.5825 6.52257
30.3673 5.84213
32.1521 5.43354
33.9369 5.16245
35.7217 4.96927
39.2912 4.70942
42.8608 4.53742
44.6456 4.47131
45.5380 4.44419
46.4304 4.42490
47.3228 4.42461
47.7690 4.44180
48.2152 4.48611
48.6614 4.59110
48.8845 4.69184
49.1076 4.85724
49.3307 5.14505
49.5538 5.69152
49.6654 6.16050
49.7769 6.88043
49.8885 8.05577
50.0000 10.1444
50.1137 14.4663
50.1706 18.5095
50.2274 25.3256
50.2843 38.0530
50.3127 48.9431
50.3411 65.6872
50.3695 93.1124
50.3980 141.667
50.4122 180.605
50.4264 236.013
50.4406 316.237
50.4548 431.926
50.4774 694.101
50.5000 873.636
50.5226 705.643
50.5452 446.364
50.5612 318.015
50.5773 232.477
50.5933 175.454
50.6093 136.517
50.6413 89.2670
50.6734 63.2559
50.7054 47.5723
50.7375 37.4400
50.8016 25.6054
50.8656 19.2240
50.9297 15.3921
50.9938 12.9081
51.0579 11.2035
51.1861 9.07240
51.3143 7.83457
51.4424 7.04782
51.5706 6.51412
51.8269 5.85192
52.0833 5.46753
52.3396 5.22153
52.5960 5.05268
53.1087 4.83834
53.6214 4.70885
54.6467 4.55928
55.6721 4.47297
56.6975 4.41424
58.7483 4.33369
60.7990 4.27528
62.8498 4.22673
64.9005 4.18420
65.9259 4.17052
66.1823 4.17293
66.4386 4.18825
66.5668 4.21194
66.6309 4.23497
66.6950 4.27443
66.7591 4.34891
66.7911 4.41302
66.8231 4.51210
66.8552 4.67547
66.8872 4.96767
66.9193 5.54477
66.9353 6.04395
66.9513 6.77365
66.9757 8.35466
67.0000 9.40895
67.0244 8.35517
67.0487 6.77351
67.0675 5.94363
67.0862 5.41236
67.1049 5.07036
67.1237 4.84326
67.1612 4.57570
67.1986 4.43255
67.2361 4.34785
67.2736 4.29378
67.3486 4.23116
67.4985 4.17682
67.6484 4.15334
67.9483 4.13127
68.2481 4.11907
69.4475 4.08781
70.6469 4.06215
71.8464 4.04148
72.4461 4.03618
73.0458 4.03917
73.6455 4.06037
74.2452 4.12551
74.5450 4.19477
74.8449 4.31493
75.1447 4.53412
75.4446 4.96837
75.5945 5.35191
75.7445 5.95302
75.8944 6.95619
76.0443 8.78362
76.1942 12.5751
76.2692 16.1683
76.3442 22.2932
76.4191 33.8935
76.4566 43.9442
76.4941 59.5894
76.5316 85.6140
76.5503 105.447
76.5690 132.739
76.5878 171.318
76.6065 227.329
76.6253 310.350
76.6440 433.208
76.6580 556.418
76.6720 698.301
76.7000 881.465
76.7140 834.530
76.7280 714.010
76.7560 452.860
76.7787 308.517
76.8014 217.649
76.8241 160.034
76.8468 122.204
76.8922 78.0932
76.9376 54.6974
76.9830 40.9231
77.0284 32.1582
77.1192 22.0600
77.2100 16.6745
77.3008 13.4574
77.3916 11.3765
77.4824 9.94884
77.6640 8.16119
77.8456 7.11842
78.0272 6.45195
78.2088 5.99701
78.5719 5.42713
78.9351 5.09169
79.2983 4.87397
79.6615 4.72240
80.3879 4.52598
81.1143 4.40367
82.5670 4.25545
84.0198 4.16277
85.4725 4.09333
88.3780 3.98049
91.2835 3.87322
94.1890 3.75380
95.6418 3.68659
97.0945 3.61603
98.5473 3.55263
100.000 3.54115
100.601 3.58661
101.203 3.70749
101.804 3.98951
102.406 4.65171
102.706 5.29520
103.007 6.36691
103.308 8.26283
103.608 11.9277
103.759 15.1153
103.909 20.0516
104.059 28.1933
104.210 42.7933
104.285 54.7760
104.360 72.4801
104.435 100.045
104.510 145.957
104.586 230.255
104.623 300.954
104.661 407.098
104.698 576.131
104.736 862.604
104.774 1383.35
104.811 2365.79
104.846 3821.98
104.880 4828.80
104.915 3918.54
104.949 2487.21
104.974 1753.69
105.000 1269.37
105.025 949.500
105.050 732.700
105.101 471.594
105.151 328.926
105.202 242.998
105.253 187.552
105.354 122.854
105.455 87.8749
105.556 66.8289
105.657 53.1234
105.758 43.6908
105.961 31.8261
106.163 24.8801
106.365 20.4325
106.567 17.3959
106.972 13.5936
107.376 11.3650
107.781 9.92833
108.186 8.93847
108.995 7.68087
109.804 6.92726
110.613 6.43086
111.422 6.08149
113.040 5.62500
114.659 5.34121
116.277 5.14781
117.895 5.00724
121.132 4.81480
124.368 4.68589
125.986 4.63463
127.605 4.59061
128.414 4.57490
128.818 4.57244
129.223 4.58015
129.627 4.61620
129.830 4.66242
130.032 4.75695
130.133 4.84144
130.234 4.97398
130.335 5.19480
130.437 5.59321
130.538 6.40588
130.588 7.15997
130.639 8.41134
130.689 10.6962
130.715 12.5986
130.740 15.4278
130.765 19.8871
130.791 27.3205
130.816 40.5073
130.841 64.5408
130.866 101.587
130.890 127.340
130.915 104.592
130.939 68.3145
130.961 46.2044
130.983 32.9852
131.006 24.8941
131.028 19.7622
131.072 13.9332
131.116 10.9266
131.160 9.17833
131.205 8.07805
131.293 6.81650
131.382 6.14517
131.470 5.74417
131.559 5.48377
131.647 5.30414
131.824 5.07693
132.001 4.94227
132.178 4.85450
132.355 4.79332
132.710 4.71398
133.064 4.66466
133.772 4.60544
134.480 4.56945
135.188 4.54388
136.604 4.50723
139.437 4.45742
142.270 4.42025
147.935 4.36181
153.600 4.31360
159.265 4.26961
164.931 4.22575
170.596 4.17802
172.012 4.16541
173.429 4.15400
174.137 4.15084
174.491 4.15142
174.845 4.15566
175.199 4.16902
175.376 4.18403
175.553 4.21235
175.730 4.27247
175.819 4.33026
175.907 4.43025
175.996 4.62449
176.040 4.79816
176.084 5.07718
176.128 5.56710
176.173 6.52888
176.195 7.39310
176.217 8.75807
176.239 11.0251
176.261 14.8576
176.286 21.3273
176.310 25.6213
176.335 21.3004
176.359 14.8588
176.378 11.4939
176.396 9.33394
176.415 7.94120
176.434 7.01942
176.471 5.92797
176.508 5.34372
176.546 4.99787
176.583 4.77847
176.658 4.52634
176.732 4.39257
176.807 4.31333
176.956 4.22754
177.105 4.18398
177.255 4.15841
177.553 4.12991
177.852 4.11395
178.150 4.10304
178.747 4.08723
179.941 4.06231
181.135 4.03802
182.329 4.01198
183.523 3.98495
184.120 3.97376
184.717 3.97309
185.016 3.98807
185.165 4.00733
185.314 4.04532
185.464 4.12764
185.538 4.20693
185.613 4.34327
185.687 4.60459
185.725 4.83337
185.762 5.19417
185.799 5.80670
185.837 6.95368
185.855 7.93010
185.874 9.39096
185.893 11.6683
185.911 15.1946
185.936 21.9725
185.960 26.4905
185.984 21.9726
186.009 15.1934
186.031 11.1574
186.053 8.77032
186.075 7.33324
186.097 6.42653
186.141 5.41139
186.186 4.89516
186.230 4.59857
186.274 4.41349
186.362 4.20425
186.451 4.09402
186.539 4.02832
186.716 3.95528
187.069 3.89021
187.422 3.85731
188.129 3.82068
188.835 3.81882
189.189 3.84625
189.542 3.91704
189.895 4.07902
190.249 4.45339
190.425 4.81325
190.602 5.40683
190.779 6.44602
190.955 8.42443
191.044 10.1229
191.132 12.7175
191.220 16.9181
191.309 24.2670
191.353 30.1536
191.397 38.6475
191.441 51.4635
191.485 71.8747
191.530 107.046
191.552 134.693
191.574 173.592
191.596 230.687
191.618 317.159
191.640 452.174
191.662 662.882
191.691 1077.64
191.720 1368.66
191.749 1114.59
191.778 711.005
191.801 492.529
191.823 352.573
191.846 261.751
191.869 201.494
191.914 129.922
191.959 91.3929
192.005 68.3713
192.050 53.6108
192.140 36.3914
192.231 27.0835
192.321 21.4719
192.412 17.8081
192.502 15.2734
192.683 12.0651
192.864 10.1702
193.045 8.94544
193.226 8.10127
193.589 7.03165
193.951 6.39489
194.313 5.97883
194.675 5.68897
195.399 5.31776
196.123 5.10244
196.485 5.03895
196.847 5.02536
197.028 5.06885
197.119 5.12479
197.209 5.23204
197.300 5.45344
197.345 5.65689
197.390 5.98839
197.435 6.57720
197.481 7.74604
197.503 8.80545
197.526 10.4920
197.549 13.3207
197.571 18.1582
197.596 26.1785
197.620 31.4943
197.645 26.1402
197.669 18.1492
197.687 14.0410
197.705 11.3875
197.724 9.65689
197.742 8.49571
197.778 7.11287
197.815 6.36528
197.851 5.91903
197.888 5.63373
197.960 5.30189
198.033 5.12221
198.106 5.01302
198.252 4.88916
198.397 4.82088
198.543 4.77667
198.835 4.71983
199.417 4.65308
200.000 4.61075
200.488 4.58835
200.976 4.58714
201.220 4.60967
201.342 4.63737
201.463 4.69044
201.585 4.80210
201.646 4.90727
201.707 5.08398
201.768 5.41272
201.799 5.69243
201.829 6.12057
201.860 6.81757
201.890 8.04355
201.921 10.4045
201.936 12.3899
201.951 15.2314
201.976 21.6714
202.000 25.9641
202.024 21.6717
202.049 15.2302
202.065 12.2637
202.081 10.2306
202.113 7.87438
202.145 6.67714
202.177 6.00695
202.209 5.59680
202.241 5.32990
202.305 5.01666
202.369 4.84652
202.433 4.74399
202.560 4.63068
202.688 4.57167
202.816 4.53609
203.072 4.49502
203.328 4.47099
203.584 4.45415
204.095 4.42988
205.118 4.39548
206.141 4.36833
208.188 4.32313
210.234 4.28341
212.280 4.24455
213.303 4.22421
214.327 4.20286
215.350 4.18197
215.861 4.17446
216.373 4.17527
216.629 4.18368
216.884 4.20420
217.140 4.24966
217.396 4.35189
217.524 4.44840
217.652 4.60559
217.780 4.87671
217.908 5.38469
218.035 6.46313
218.099 7.49921
218.163 9.27350
218.227 12.6480
218.259 15.5692
218.291 20.0821
218.323 27.5498
218.355 40.8269
218.387 66.8788
218.403 89.1639
218.419 121.205
218.432 155.570
218.445 195.043
218.470 247.353
218.496 202.548
218.521 130.591
218.546 83.7390
218.572 57.0774
218.597 41.3907
218.622 31.7070
218.647 25.3397
218.673 20.9851
218.723 15.5723
218.773 12.4629
218.824 10.5156
218.925 8.29864
219.026 7.12122
219.127 6.41725
219.228 5.95890
219.329 5.64238
219.531 5.24081
219.732 5.00194
219.934 4.84615
220.136 4.73765
220.540 4.59768
220.944 4.51201
221.751 4.41288
222.559 4.35786
223.366 4.32745
223.770 4.32400
223.972 4.32887
224.174 4.34359
224.376 4.38136
224.477 4.42042
224.578 4.49031
224.679 4.63035
224.729 4.75817
224.779 4.96747
224.830 5.34420
224.855 5.65388
224.880 6.11289
224.906 6.83175
224.931 8.01683
224.956 10.1030
224.981 13.8972
225.006 19.6734
225.030 23.5212
225.054 19.6731
225.079 13.8958
225.101 10.4544
225.123 8.42556
225.145 7.20135
225.167 6.42766
225.211 5.55874
225.255 5.11689
225.299 4.86315
225.343 4.70525
225.431 4.52678
225.519 4.43318
225.607 4.37773
225.783 4.31710
225.960 4.28526
226.136 4.26560
226.488 4.24162
227.192 4.21444
227.897 4.19544
229.306 4.16356
230.715 4.13330
232.124 4.10228
233.533 4.07134
234.238 4.05923
234.942 4.06022
235.294 4.07921
235.647 4.14866
235.823 4.24785
235.911 4.34386
235.999 4.51014
236.087 4.83380
236.131 5.12239
236.175 5.58668
236.219 6.40120
236.263 7.99771
236.285 9.42176
236.307 11.6743
236.329 15.4045
236.351 21.6878
236.376 32.3218
236.400 39.4163
236.425 32.3245
236.449 21.6906
236.464 16.9659
236.480 13.6766
236.511 9.79878
236.541 7.78543
236.572 6.63998
236.603 5.93542
236.633 5.47424
236.695 4.93011
236.756 4.63455
236.818 4.45737
236.940 4.26486
237.186 4.11510
237.432 4.06468
237.923 4.06242
238.415 4.16696
238.660 4.28997
238.906 4.50799
239.152 4.90932
239.397 5.70552
239.520 6.40639
239.643 7.49676
239.766 9.29759
239.889 12.5140
240.012 18.9751
240.073 24.8683
240.135 34.4979
240.196 51.6267
240.227 65.4875
240.257 85.6539
240.288 116.227
240.319 164.759
240.350 245.296
240.380 381.173
240.415 619.142
240.450 787.714
240.485 643.220
240.520 411.291
240.547 287.148
240.574 206.779
240.601 154.590
240.627 119.666
240.681 78.1122
240.735 55.6354
240.789 42.1670
240.842 33.5073
240.950 23.3793
241.057 17.8921
241.165 14.5710
241.272 12.3981
241.380 10.8919
241.595 8.98131
241.810 7.84848
242.025 7.11411
242.240 6.60650
242.670 5.96095
243.100 5.57438
243.530 5.32035
243.960 5.14206
244.820 4.91007
245.680 4.76660
246.540 4.66928
247.400 4.59884
249.120 4.50311
250.840 4.44023
252.560 4.39494
254.280 4.36007
257.720 4.30812
261.160 4.26905
268.040 4.20708
274.920 4.14985
278.360 4.11853
281.800 4.08246
285.240 4.03782
286.960 4.01022
288.680 3.97723
290.400 3.93652
292.120 3.88493
292.980 3.85488
293.840 3.82779
294.270 3.82637
294.485 3.83782
294.700 3.87149
294.915 3.96381
295.023 4.06517
295.130 4.25599
295.238 4.65879
295.292 5.04157
295.345 5.68784
295.399 6.89063
295.426 7.90817
295.453 9.44282
295.480 11.9026
295.507 16.0948
295.534 23.7593
295.560 38.2998
295.585 60.2450
295.610 75.9178
295.635 62.7573
295.660 41.4401
295.687 26.3086
295.715 18.2184
295.742 13.7112
295.770 11.0211
295.798 9.29416
295.825 8.12884
295.880 6.70752
295.935 5.90343
295.991 5.40508
296.101 4.84076
296.211 4.54371
296.321 4.36781
296.542 4.18129
296.983 4.07142
297.424 4.15448
297.645 4.29140
297.866 4.54686
298.086 5.02556
298.307 5.97827
298.417 6.81425
298.527 8.11037
298.638 10.2356
298.748 13.9990
298.858 21.4427
298.914 28.1413
298.969 38.8947
299.024 57.5815
299.051 72.3828
299.079 93.3670
299.107 124.389
299.134 171.835
299.162 246.826
299.189 365.676
299.225 595.619
299.260 759.693
299.295 621.255
299.331 397.716
299.354 291.320
299.378 218.112
299.425 132.882
299.472 89.2470
299.520 64.5448
299.567 49.3415
299.614 39.3506
299.708 27.4550
299.803 20.8950
299.897 16.8800
300.086 12.3900
300.275 10.0373
300.464 8.63618
300.652 7.72615
300.841 7.09773
301.219 6.30479
301.596 5.85760
301.785 5.73167
301.974 5.71317
302.068 5.80510
302.162 6.11177
302.210 6.48384
302.257 7.25761
302.280 7.97417
302.304 9.14182
302.328 11.1453
302.351 14.6408
302.376 20.2719
302.400 23.9991
302.425 20.2244
302.449 14.5942
302.470 11.4125
302.490 9.45632
302.511 8.23902
302.531 7.45345
302.572 6.54219
302.614 6.06190
302.655 5.77620
302.696 5.59157
302.778 5.36933
302.943 5.15375
303.107 5.03996
303.437 4.90295
303.766 4.81095
304.424 4.68096
305.082 4.58802
306.399 4.45825
307.716 4.36795
310.349 4.23865
312.982 4.13248
315.615 4.01975
316.932 3.95240
318.249 3.87248
318.907 3.82716
319.565 3.77969
320.224 3.73579
320.882 3.71561
321.211 3.73299
321.540 3.79564
321.870 3.95629
322.199 4.34896
322.363 4.73542
322.528 5.38040
322.693 6.51700
322.857 8.68610
323.022 13.3750
323.104 17.9281
323.186 25.8032
323.227 32.0340
323.269 40.8876
323.310 54.0466
323.351 74.5062
323.392 108.563
323.433 169.664
323.454 219.343
323.474 290.385
323.495 394.830
323.515 546.463
323.548 893.271
323.580 1140.93
323.612 933.974
323.645 598.763
323.675 389.317
323.705 265.824
323.735 191.360
323.765 144.220
323.825 91.0685
323.886 63.6595
323.946 47.7485
324.006 37.6897
324.126 26.1205
324.247 19.9241
324.367 16.1905
324.488 13.7495
324.608 12.0554
324.849 9.89828
325.090 8.61020
325.330 7.76857
325.571 7.18217
326.053 6.42812
326.535 5.97044
327.016 5.66620
327.498 5.45089
328.461 5.17017
329.424 5.00560
329.906 4.95947
330.147 4.95056
330.388 4.96016
330.628 5.01101
330.749 5.07202
330.869 5.18783
330.990 5.42956
331.050 5.65615
331.110 6.03627
331.170 6.73939
331.200 7.33514
331.230 8.24337
331.260 9.71384
331.291 12.2801
331.321 17.1651
331.336 21.2601
331.351 27.0381
331.375 40.4191
331.400 49.2880
331.425 40.3613
331.449 27.0353
331.472 19.0084
331.495 14.2908
331.517 11.4652
331.540 9.68916
331.585 7.70821
331.630 6.70279
331.675 6.12819
331.721 5.77028
331.811 5.36664
331.901 5.15497
331.992 5.02951
332.172 4.89229
332.353 4.82062
332.534 4.77726
332.895 4.72916
333.257 4.71125
333.438 4.71498
333.618 4.73459
333.799 4.78956
333.889 4.84730
333.980 4.95064
334.070 5.15621
334.115 5.34188
334.160 5.64207
334.206 6.17233
334.251 7.22403
334.273 8.17129
334.296 9.68403
334.319 12.2208
334.341 16.5333
334.366 23.7072
334.390 28.4627
334.415 23.6750
334.439 16.5302
334.455 13.2044
334.471 10.9345
334.504 8.32221
334.536 6.99913
334.568 6.25817
334.601 5.80700
334.633 5.51357
334.697 5.16898
334.762 4.98220
334.827 4.86947
334.956 4.74491
335.085 4.67989
335.214 4.64063
335.473 4.59515
335.731 4.56841
335.990 4.54964
336.506 4.52252
337.540 4.48414
338.574 4.45392
340.641 4.40367
342.709 4.35925
344.776 4.31475
345.810 4.29045
346.844 4.26341
347.877 4.23319
348.394 4.21826
348.911 4.20808
349.169 4.20874
349.428 4.21908
349.686 4.25061
349.945 4.33277
350.074 4.41557
350.203 4.55517
350.332 4.80303
350.462 5.27898
350.591 6.31089
350.655 7.31409
350.720 9.04922
350.785 12.3691
350.817 15.2558
350.849 19.7455
350.881 27.1753
350.914 40.4696
350.946 66.5470
350.962 88.9664
350.978 121.283
350.991 156.161
351.004 196.383
351.030 250.163
351.056 205.623
351.082 133.214
351.103 91.7719
351.125 65.8914
351.146 49.4476
351.168 38.7132
351.210 26.1504
351.253 19.4731
351.296 15.5077
351.339 12.9678
351.425 10.0139
351.511 8.41252
351.596 7.44246
351.682 6.80542
351.768 6.36194
351.939 5.79530
352.111 5.45603
352.282 5.23389
352.454 5.07889
352.797 4.87883
353.139 4.75668
353.482 4.67479
353.825 4.61618
354.511 4.53767
355.197 4.48702
356.569 4.42394
357.941 4.38438
359.313 4.35573
362.056 4.31359
364.800 4.28004
367.543 4.24814
368.915 4.23095
369.601 4.22171
370.287 4.21218
370.973 4.20373
371.316 4.20180
371.659 4.20532
371.830 4.21196
372.002 4.22568
372.173 4.25351
372.345 4.31239
372.430 4.36605
372.516 4.45112
372.602 4.59377
372.687 4.85216
372.773 5.37715
372.816 5.85947
372.859 6.64816
372.902 8.05389
372.945 10.8412
372.966 13.3519
372.988 17.3067
373.009 23.8294
373.030 34.7507
373.055 54.3333
373.080 68.3432
373.105 56.7315
373.130 37.8523
373.150 27.0694
373.171 20.2984
373.192 16.0144
373.212 13.2036
373.253 9.92209
373.294 8.17742
373.336 7.14094
373.377 6.47823
373.459 5.70509
373.541 5.28614
373.624 5.03182
373.706 4.86465
373.788 4.74813
373.953 4.59895
374.117 4.50917
374.282 4.45000
374.447 4.40834
374.776 4.35377
375.105 4.31952
375.764 4.27800
376.422 4.25247
377.080 4.23397
378.397 4.20614
381.031 4.16111
383.665 4.11344
384.982 4.08488
386.299 4.05079
387.615 4.00849
388.932 3.95413
389.591 3.92097
390.249 3.88345
390.908 3.84300
391.566 3.80740
391.895 3.79966
392.225 3.81152
392.554 3.86930
392.883 4.04217
393.048 4.22607
393.212 4.54561
393.377 5.12760
393.541 6.27113
393.624 7.26842
393.706 8.80747
393.788 11.3157
393.871 15.7170
393.953 24.2939
393.994 31.8899
394.035 43.8642
394.076 64.1590
394.097 79.8306
394.117 101.494
394.138 132.589
394.159 178.312
394.179 247.075
394.200 349.883
394.230 572.225
394.260 732.013
394.290 601.074
394.320 386.931
394.340 287.273
394.359 217.873
394.398 135.282
394.436 92.0200
394.475 67.1479
394.514 51.6389
394.552 41.3941
394.629 29.0871
394.707 22.2293
394.784 18.0087
394.938 13.2503
395.093 10.7356
395.247 9.22844
395.402 8.24250
395.556 7.55704
395.865 6.67870
396.174 6.14926
396.483 5.79971
396.792 5.55365
397.410 5.23283
398.027 5.03456
398.645 4.90057
399.263 4.80418
400.499 4.67492
401.734 4.59214
402.970 4.53439
404.206 4.49165
406.677 4.43226
409.148 4.39328
410.384 4.37951
411.620 4.37170
412.238 4.37374
412.855 4.39097
413.164 4.41933
413.319 4.44824
413.473 4.50042
413.628 4.60758
413.705 4.70849
413.782 4.88039
413.859 5.20839
413.898 5.49552
413.937 5.94922
413.975 6.72270
414.014 8.18217
414.033 9.43104
414.052 11.3257
414.072 14.2955
414.091 18.9795
414.116 27.7849
414.140 33.6242
414.165 27.7480
414.189 18.9808
414.215 13.0906
414.241 9.90825
414.267 8.12395
414.294 7.05456
414.320 6.37256
414.346 5.91434
414.398 5.35954
414.450 5.05093
414.502 4.86239
414.607 4.65390
414.711 4.54730
414.816 4.48547
415.024 4.41988
415.233 4.38719
415.442 4.36820
415.859 4.34732
416.695 4.32828
417.530 4.31796
419.200 4.30415
420.870 4.29355
424.211 4.27717
425.046 4.27471
425.881 4.27516
426.299 4.27916
426.716 4.29337
426.925 4.31368
427.134 4.36819
427.238 4.43681
427.342 4.60165
427.395 4.78630
427.447 5.16675
427.473 5.52432
427.499 6.12206
427.525 7.19078
427.551 9.16445
427.576 12.1162
427.600 14.0745
427.625 12.1039
427.649 9.16500
427.670 7.47042
427.691 6.44594
427.713 5.81796
427.734 5.41643
427.776 4.96115
427.818 4.72705
427.903 4.50727
427.988 4.41159
428.157 4.33231
428.327 4.30085
428.666 4.27581
429.004 4.26566
429.682 4.25641
430.360 4.25136
433.070 4.23858
438.492 4.21832
443.913 4.19910
449.334 4.17918
454.755 4.15657
457.466 4.14317
460.177 4.12721
462.887 4.10681
464.243 4.09378
465.598 4.07765
466.953 4.05674
467.631 4.04378
468.309 4.02907
468.986 4.01477
469.325 4.01117
469.664 4.01745
469.834 4.02990
470.003 4.05617
470.172 4.11041
470.342 4.22711
470.426 4.33436
470.511 4.50563
470.596 4.79435
470.681 5.31965
470.765 6.38817
470.808 7.37098
470.850 8.97618
470.892 11.8285
470.935 17.4473
470.956 22.4548
470.977 30.3126
470.998 43.1384
471.019 64.2112
471.032 82.1862
471.045 103.118
471.070 131.230
471.095 108.564
471.121 71.2225
471.141 50.5584
471.161 37.2832
471.181 28.7206
471.201 23.0410
471.241 16.2691
471.281 12.6153
471.322 10.4229
471.362 9.01102
471.442 7.35335
471.522 6.44706
471.602 5.89465
471.683 5.52965
471.763 5.27480
471.923 4.94734
472.084 4.74984
472.244 4.61961
472.405 4.52802
472.726 4.40846
473.047 4.33402
473.689 4.24516
474.331 4.19158
474.973 4.15311
476.257 4.09346
476.899 4.06605
477.541 4.03806
478.183 4.00893
478.825 3.98058
479.146 3.96955
479.467 3.96551
479.788 3.97889
480.109 4.03785
480.270 4.10692
480.430 4.23201
480.591 4.46680
480.751 4.93904
480.832 5.35698
480.912 6.00703
480.992 7.07730
481.072 8.97036
481.153 12.7029
481.193 16.0288
481.233 21.3240
481.273 30.3918
481.313 47.3105
481.333 61.5944
481.353 82.7334
481.373 115.140
481.393 164.417
481.422 268.101
481.450 343.020
481.478 282.427
481.507 182.804
481.524 137.550
481.542 105.531
481.577 67.0474
481.613 46.5645
481.648 34.7197
481.684 27.2825
481.719 22.3467
481.789 16.3872
481.860 13.0488
481.931 10.9869
482.072 8.65235
482.213 7.41398
482.355 6.66971
482.496 6.18191
482.637 5.84180
482.920 5.40489
483.203 5.14057
483.485 4.96545
483.768 4.84177
484.333 4.67977
484.898 4.57901
485.464 4.51056
486.029 4.46116
487.160 4.39515
488.290 4.35578
488.855 4.34547
489.421 4.34919
489.703 4.36712
489.845 4.38769
489.986 4.42637
490.127 4.50737
490.198 4.58410
490.268 4.71437
490.339 4.96102
490.374 5.17473
490.410 5.50853
490.445 6.07007
490.480 7.10006
490.498 7.96083
490.516 9.22545
490.533 11.1536
490.551 14.0631
490.576 19.9338
490.600 23.8510
490.625 19.9333
490.649 14.0618
490.667 11.0588
490.686 9.11074
490.704 7.84302
490.722 6.99798
490.759 5.98787
490.795 5.44508
490.832 5.12210
490.868 4.91647
490.941 4.67925
491.014 4.55288
491.087 4.47778
491.234 4.39610
491.380 4.35446
491.526 4.32990
491.818 4.30251
492.402 4.27721
492.987 4.26359
494.156 4.24594
495.325 4.23301
497.662 4.21294
500.000 4.19692
504.925 4.16956
509.851 4.14599
512.313 4.13470
514.776 4.12393
516.007 4.11958
517.238 4.11876
517.854 4.12341
518.470 4.14248
518.778 4.17121
518.931 4.19996
519.085 4.25150
519.239 4.35682
519.316 4.45594
519.393 4.62442
519.470 4.94553
519.509 5.22683
519.547 5.66979
519.586 6.42623
519.624 7.85279
519.643 9.07665
519.663 10.9225
519.682 13.8098
519.701 18.3527
519.726 26.9281
519.750 32.6147
519.775 26.8920
519.799 18.3539
519.824 12.7623
519.850 9.67777
519.875 7.92061
519.900 6.85563
519.925 6.17101
519.950 5.70833
520.001 5.14482
520.051 4.82961
520.102 4.63632
520.202 4.42205
520.303 4.31207
520.404 4.24826
520.605 4.18052
520.807 4.14680
521.008 4.12724
521.411 4.10574
522.217 4.08573
523.023 4.07388
524.635 4.05409
526.247 4.03198
527.054 4.01858
527.860 4.00276
528.666 3.98372
529.472 3.96075
529.875 3.94797
530.278 3.93527
530.681 3.92534
531.084 3.92669
531.285 3.93901
531.487 3.96951
531.688 4.03797
531.890 4.19357
531.990 4.34103
532.091 4.58082
532.192 4.99311
532.293 5.75707
532.393 7.34751
532.444 8.83667
532.494 11.3121
532.545 15.8113
532.595 25.0084
532.620 33.4778
532.645 47.2329
532.671 70.7271
532.683 88.4537
532.696 111.553
532.723 181.202
532.750 231.961
532.777 191.615
532.804 124.572
532.822 93.6465
532.839 72.0008
532.873 46.0026
532.908 32.3007
532.942 24.4056
532.977 19.4584
533.011 16.1715
533.080 12.2152
533.149 10.0006
533.218 8.63291
533.356 7.08412
533.494 6.26108
533.632 5.76522
533.770 5.43971
533.907 5.21253
534.183 4.91987
534.459 4.74226
534.735 4.62423
535.010 4.54063
535.562 4.43062
536.113 4.36171
536.665 4.31446
537.216 4.27992
538.319 4.23236
539.422 4.20053
541.628 4.15875
543.834 4.13044
546.039 4.10847
548.245 4.09289
548.797 4.09283
549.348 4.10139
549.624 4.11699
549.900 4.16269
550.037 4.22317
550.175 4.37560
550.244 4.55597
550.279 4.71181
550.313 4.95351
550.348 5.35755
550.382 6.09167
550.399 6.70157
550.417 7.59058
550.434 8.92345
550.451 10.9208
550.476 15.0360
550.500 17.7621
550.525 15.0183
550.549 10.9206
550.569 8.69343
550.589 7.29390
550.608 6.40794
550.628 5.82740
550.667 5.15294
550.707 4.79737
550.746 4.58940
550.786 4.45794
550.864 4.30784
551.022 4.18196
551.179 4.13142
551.495 4.09058
551.810 4.07355
552.440 4.05716
553.070 4.04732
555.591 4.01727
558.113 3.98489
560.634 3.94336
561.894 3.91673
563.155 3.88400
564.415 3.84240
565.676 3.78757
566.306 3.75330
566.937 3.71343
567.567 3.66820
568.197 3.62231
568.512 3.60502
568.827 3.60131
569.143 3.63200
569.458 3.75287
569.615 3.89155
569.773 4.14062
569.930 4.60505
570.088 5.53215
570.246 7.61165
570.324 9.67599
570.403 13.2919
570.482 20.3170
570.521 26.4908
570.561 36.1727
570.600 52.3466
570.620 64.6777
570.639 81.6175
570.659 105.471
570.679 139.885
570.699 190.447
570.718 264.115
570.749 433.926
570.780 557.813
570.811 459.984
570.842 297.393
570.869 199.482
570.896 139.817
570.924 102.846
570.951 78.9510
571.005 51.4372
571.060 36.9480
571.114 28.4134
571.168 22.9582
571.277 16.6088
571.386 13.1632
571.495 11.0654
571.604 9.68211
571.712 8.71485
571.930 7.47191
572.148 6.72150
572.365 6.22661
572.583 5.87901
573.018 5.42759
573.453 5.15030
573.889 4.96399
574.324 4.83071
575.194 4.65318
576.065 4.54038
576.935 4.46213
577.805 4.40437
579.546 4.32383
581.287 4.26900
583.028 4.22783
584.769 4.19442
588.251 4.13843
589.992 4.11155
591.732 4.08243
593.473 4.04756
594.344 4.02613
595.214 4.00064
595.649 3.98615
596.085 3.97086
596.520 3.95624
596.955 3.94766
597.173 3.95060
597.390 3.96557
597.608 4.00661
597.825 4.10930
597.934 4.21083
598.043 4.38012
598.152 4.67701
598.261 5.23853
598.369 6.42997
598.424 7.56301
598.478 9.47722
598.533 13.0137
598.560 15.9804
598.587 20.4318
598.614 27.4439
598.641 39.1403
598.669 59.8555
598.682 75.9943
598.696 97.7329
598.723 158.756
598.750 203.173
598.777 167.975
598.804 109.551
598.832 69.8112
598.860 47.5663
598.888 34.6826
598.916 26.7526
598.944 21.5786
598.972 18.0313
599.028 13.6247
599.085 11.0887
599.141 9.49631
599.253 7.66731
599.365 6.68445
599.477 6.08967
599.589 5.69823
599.701 5.42460
599.925 5.07236
600.149 4.85889
600.373 4.71736
600.597 4.61736
601.045 4.48609
601.493 4.40407
601.941 4.34787
602.390 4.30680
603.286 4.25010
604.182 4.21194
605.975 4.16123
607.767 4.12606
609.560 4.09750
613.145 4.04625
616.730 3.98948
618.523 3.95361
620.315 3.90768
621.211 3.87878
622.108 3.84412
623.004 3.80184
623.900 3.75022
624.348 3.72123
624.796 3.69215
625.245 3.66899
625.693 3.67074
625.917 3.69762
626.141 3.76523
626.365 3.91803
626.589 4.26601
626.701 4.59599
626.813 5.13225
626.925 6.05148
627.037 7.75036
627.149 11.2652
627.205 14.5297
627.261 19.9253
627.317 29.5985
627.345 37.4815
627.373 48.9881
627.401 66.4736
627.429 94.2644
627.457 140.376
627.485 218.133
627.518 357.985
627.550 460.691
627.582 380.564
627.615 246.348
627.647 157.886
627.679 107.070
627.711 77.1539
627.744 58.5250
627.776 46.2688
627.808 37.8141
627.872 27.2452
627.937 21.1341
628.001 17.2731
628.130 12.8224
628.259 10.4246
628.388 8.96922
628.516 8.01041
628.645 7.33982
628.903 6.47677
629.160 5.95405
629.418 5.60802
629.676 5.36403
630.191 5.04541
630.706 4.84809
631.221 4.71450
631.736 4.61821
632.767 4.48852
633.797 4.40480
634.827 4.34574
635.858 4.30141
637.919 4.23819
639.979 4.19516
641.010 4.18032
642.040 4.17522
642.555 4.18411
642.813 4.19705
643.070 4.22363
643.328 4.28332
643.457 4.34270
643.586 4.44835
643.714 4.66144
643.779 4.85903
643.843 5.19011
643.908 5.80535
643.940 6.33065
643.972 7.13876
644.004 8.46482
644.036 10.8266
644.069 15.4653
644.085 19.4574
644.101 25.2251
644.125 37.8733
644.150 46.2992
644.175 37.8730
644.199 25.2241
644.228 16.2060
644.257 11.5834
644.285 9.09141
644.314 7.63781
644.342 6.72826
644.371 6.12556
644.428 5.40575
644.485 5.01058
644.543 4.77117
644.657 4.50830
644.771 4.37458
644.886 4.29711
645.115 4.21459
645.343 4.17288
645.572 4.14807
646.030 4.11937
646.945 4.08933
647.860 4.06908
649.691 4.03318
651.521 3.99335
652.436 3.96952
653.351 3.94140
654.267 3.90710
655.182 3.86406
655.639 3.83849
656.097 3.81035
656.555 3.78159
657.012 3.76016
657.241 3.75996
657.470 3.77840
657.699 3.83850
657.927 3.99929
658.042 4.16275
658.156 4.43930
658.271 4.93011
658.385 5.86755
658.499 7.87298
658.557 9.78933
658.614 13.0365
658.671 19.0503
658.700 24.1024
658.728 31.6878
658.757 43.6419
658.785 63.5812
658.800 78.6184
658.814 98.8765
658.828 126.356
658.843 163.357
658.871 267.769
658.900 344.726
658.914 329.710
658.929 285.306
658.957 185.272
658.989 114.225
659.020 75.7232
659.052 53.9158
659.083 40.7684
659.115 32.2644
659.146 26.5010
659.209 19.3912
659.272 15.3237
659.335 12.7766
659.460 9.85353
659.586 8.28317
659.712 7.33155
659.838 6.70412
659.963 6.26465
660.215 5.69737
660.466 5.35251
660.718 5.12324
660.969 4.96090
661.472 4.74765
661.975 4.61463
662.478 4.52392
662.980 4.45811
663.986 4.36871
664.992 4.31033
665.997 4.26873
667.003 4.23720
669.015 4.19159
671.026 4.15908
675.049 4.11291
679.072 4.07879
683.094 4.05085
685.106 4.03919
687.117 4.03165
688.123 4.03314
689.129 4.04932
689.632 4.07717
689.883 4.10617
690.134 4.15954
690.386 4.27212
690.512 4.38115
690.637 4.57259
690.763 4.95481
690.826 5.30729
690.889 5.89401
690.952 6.97920
690.983 7.89878
691.014 9.30462
691.046 11.6012
691.077 15.6324
691.109 23.4056
691.124 29.9786
691.140 39.4114
691.165 60.6346
691.190 74.7733
691.215 60.6392
691.240 39.4170
691.262 27.0084
691.284 19.5748
691.306 15.0533
691.328 12.1792
691.373 8.93931
691.417 7.28000
691.461 6.32750
691.505 5.73335
691.594 5.06451
691.682 4.71664
691.770 4.51338
691.859 4.38443
691.947 4.29757
692.124 4.19104
692.301 4.13056
692.654 4.06731
693.007 4.03591
693.361 4.01748
694.068 3.99649
695.482 3.97508
696.895 3.96122
698.309 3.94975
699.723 3.94038
700.430 3.93785
701.137 3.94130
701.491 3.95102
701.844 3.98245
702.021 4.02596
702.197 4.13995
702.286 4.28020
702.374 4.60611
702.418 4.95802
702.463 5.64920
702.485 6.26597
702.507 7.24195
702.529 8.85899
702.551 11.5681
702.575 16.1685
702.600 19.2385
702.625 16.1690
702.649 11.5683
702.664 9.58723
702.679 8.19700
702.709 6.51715
702.738 5.62969
702.768 5.11897
702.827 4.59389
702.887 4.34679
703.006 4.12994
703.124 4.04048
703.362 3.96827
703.599 3.93955
704.074 3.91517
704.549 3.90342
706.449 3.87728
708.349 3.85478
710.248 3.82983
712.148 3.79969
713.098 3.78138
714.048 3.75978
714.998 3.73387
715.473 3.71957
715.948 3.70642
716.423 3.70287
716.660 3.71451
716.898 3.75360
717.016 3.79629
717.135 3.87086
717.254 4.00661
717.372 4.27169
717.491 4.85239
717.551 5.41789
717.610 6.39084
717.669 8.23837
717.699 9.82653
717.729 12.2543
717.758 16.2048
717.788 23.0675
717.818 35.9322
717.833 46.4396
717.847 61.1430
717.861 78.4284
717.874 98.6089
717.900 125.941
717.926 104.421
717.953 68.5932
717.981 43.8533
718.008 30.1481
718.036 22.2509
718.064 17.4375
718.092 14.2988
718.119 12.1610
718.175 9.50704
718.230 7.98536
718.286 7.02893
718.397 5.93103
718.508 5.34121
718.619 4.98341
718.730 4.74748
718.841 4.58227
719.063 4.36852
719.285 4.23801
719.728 4.08813
720.172 4.00445
720.616 3.95033
721.504 3.88197
722.392 3.83750
723.280 3.80356
725.056 3.74882
728.607 3.64992
732.158 3.53460
733.934 3.46273
735.710 3.37606
737.485 3.26920
739.261 3.13647
740.149 3.06034
741.037 2.98176
741.925 2.91399
742.813 2.90063
743.257 2.95318
743.700 3.10015
744.144 3.44645
744.588 4.25269
744.810 5.02363
745.032 6.28282
745.254 8.44683
745.476 12.4460
745.587 15.7696
745.698 20.6927
745.809 28.3233
745.920 40.8498
746.031 63.1171
746.087 81.0881
746.142 107.069
746.198 146.047
746.253 206.936
746.309 305.663
746.364 467.193
746.432 772.336
746.500 997.853
746.568 825.998
746.636 534.898
746.692 369.152
746.747 263.754
746.803 196.360
746.859 151.752
746.970 99.1551
747.081 70.8377
747.192 53.8899
747.303 42.9443
747.526 30.0782
747.748 23.0218
747.970 18.6977
748.193 15.8312
748.415 13.8185
748.860 11.2198
749.304 9.64356
749.749 8.60001
750.193 7.86523
751.083 6.90903
751.972 6.32381
752.861 5.95513
753.084 5.90391
753.306 5.90533
753.417 5.96481
753.528 6.15865
753.584 6.39946
753.640 6.92032
753.667 7.42472
753.695 8.28786
753.723 9.87595
753.751 12.9145
753.775 17.2855
753.800 20.2001
753.825 17.2727
753.849 12.8885
753.865 10.9533
753.880 9.60088
753.911 7.99403
753.942 7.15446
753.973 6.67416
754.034 6.17554
754.096 5.93504
754.219 5.70944
754.342 5.60083
754.588 5.48316
754.834 5.40837
755.326 5.29823
755.818 5.21043
757.787 4.95655
759.756 4.78677
761.725 4.66337
765.663 4.49331
769.600 4.37844
773.538 4.29253
777.476 4.22322
781.413 4.16487
783.382 4.14382
783.874 4.14385
784.367 4.15589
784.613 4.17755
784.859 4.24036
784.982 4.32260
785.105 4.52660
785.167 4.76340
785.228 5.27172
785.259 5.77313
785.290 6.65257
785.320 8.35416
785.336 9.79405
785.351 11.8453
785.376 16.4832
785.400 19.5732
785.425 16.4822
785.449 11.8435
785.467 9.54155
785.484 8.02169
785.502 7.01739
785.519 6.33673
785.555 5.51814
785.590 5.07282
785.660 4.63459
785.730 4.43602
785.871 4.26654
786.012 4.19764
786.293 4.14164
786.574 4.11834
787.137 4.09631
787.699 4.08366
789.950 4.04988
791.075 4.03654
792.200 4.02819
792.763 4.03063
793.325 4.05149
793.607 4.08624
793.747 4.12177
793.888 4.18583
794.029 4.31685
794.099 4.43950
794.169 4.64687
794.240 5.03790
794.275 5.37637
794.310 5.90242
794.345 6.78435
794.380 8.39430
794.398 9.73352
794.416 11.7061
794.433 14.6844
794.451 19.1522
794.475 28.2701
794.500 34.3561
794.525 28.2737
794.549 19.1563
794.569 14.1847
794.589 11.0891
794.609 9.13360
794.629 7.85407
794.669 6.36951
794.709 5.58785
794.749 5.13103
794.788 4.84245
794.868 4.51323
794.948 4.33980
795.027 4.23754
795.186 4.12737
795.505 4.03928
795.823 4.00344
796.460 3.97052
797.097 3.95209
798.371 3.92498
799.645 3.90048
802.193 3.84882
804.741 3.78698
807.288 3.70523
808.562 3.65111
809.836 3.58206
810.473 3.53951
811.110 3.48994
811.747 3.43235
812.384 3.36853
812.703 3.33797
813.021 3.31534
813.340 3.31642
813.658 3.38504
813.817 3.48027
813.976 3.66316
814.136 4.01922
814.295 4.75097
814.454 6.42148
814.534 8.08876
814.613 11.0135
814.693 16.6596
814.733 21.5791
814.773 29.2133
814.812 41.7633
814.852 63.9175
814.872 81.5222
814.892 106.334
814.912 141.780
814.932 192.189
814.966 317.377
815.000 410.478
815.034 340.942
815.068 222.123
815.092 163.270
815.115 122.870
815.139 95.2542
815.162 75.9904
815.209 52.0202
815.255 38.4428
815.302 30.0293
815.349 24.4814
815.442 17.8085
815.536 14.0802
815.629 11.7682
815.723 10.2242
815.816 9.13484
816.003 7.72209
816.190 6.86145
816.377 6.29025
816.564 5.88703
816.939 5.36013
817.313 5.03380
817.687 4.81260
818.061 4.65274
818.809 4.43600
819.557 4.29395
821.053 4.11215
822.549 3.99189
824.045 3.89781
827.037 3.73501
828.533 3.65219
830.029 3.56100
831.525 3.45514
833.021 3.32672
833.769 3.25150
834.517 3.16888
835.265 3.08317
836.013 3.01355
836.388 3.00395
836.762 3.04009
837.136 3.17976
837.510 3.57148
837.697 3.97623
837.884 4.66613
838.071 5.89726
838.258 8.25809
838.351 10.2732
838.445 13.3227
838.538 18.1685
838.632 26.3834
838.725 41.5970
838.772 54.3883
838.819 73.5389
838.865 103.751
838.912 153.945
838.959 242.751
839.006 404.048
839.053 667.293
839.100 861.277
839.147 712.209
839.195 460.924
839.226 339.123
839.258 255.208
839.321 156.938
839.384 106.246
839.447 77.3444
839.511 59.4122
839.574 47.5729
839.700 33.3489
839.827 25.4048
839.953 20.4920
840.080 17.2183
840.206 14.9137
840.459 11.9340
840.712 10.1276
840.965 8.93414
841.218 8.09566
841.723 7.00626
842.229 6.33682
842.735 5.88642
843.241 5.56345
844.252 5.13046
845.264 4.85127
846.275 4.65338
847.286 4.50309
849.309 4.28175
851.332 4.11549
855.378 3.84240
857.401 3.70878
859.424 3.56398
861.447 3.39751
863.470 3.19661
864.482 3.07916
865.493 2.95008
866.505 2.81565
867.516 2.70422
868.022 2.68551
868.528 2.73428
869.033 2.93584
869.539 3.50865
869.792 4.10199
870.045 5.11291
870.298 6.91325
870.551 10.3500
870.677 13.2727
870.804 17.6722
870.930 24.6194
871.056 36.2914
871.183 57.6435
871.246 75.3218
871.309 101.496
871.372 141.970
871.436 207.734
871.499 319.996
871.562 515.875
871.631 854.421
871.700 1106.30
871.769 917.415
871.838 594.659
871.888 426.845
871.939 314.542
871.989 239.497
872.039 188.091
872.140 125.328
872.240 90.3716
872.341 69.0251
872.442 55.0383
872.643 38.3701
872.844 29.1225
873.045 23.4111
873.246 19.6062
873.448 16.9249
873.850 13.4493
874.252 11.3296
874.655 9.91854
875.057 8.91798
875.862 7.59657
876.667 6.75887
877.472 6.16991
878.276 5.72013
879.886 5.02462
880.691 4.71756
881.495 4.41155
882.300 4.10829
882.703 3.98312
883.105 3.94273
883.306 4.00720
883.507 4.20131
883.708 4.66182
883.910 5.71995
884.111 8.31255
884.211 10.9976
884.312 15.8111
884.362 19.6929
884.413 25.2852
884.463 33.6456
884.513 46.7345
884.564 68.4455
884.614 107.137
884.639 138.182
884.664 182.008
884.689 244.957
884.714 335.009
884.757 559.244
884.800 730.004
884.843 611.006
884.886 400.401
884.919 283.277
884.953 206.806
884.986 156.803
885.020 123.197
885.087 82.7132
885.153 60.4498
885.220 46.9217
885.287 38.0953
885.421 27.5744
885.555 21.7129
885.689 18.0759
885.823 15.6375
885.956 13.9079
886.224 11.6444
886.492 10.2477
886.759 9.30767
887.027 8.63536
887.562 7.74012
888.098 7.17175
888.633 6.77773
889.168 6.48727
890.239 6.08453
891.310 5.81660
891.845 5.71530
892.380 5.63626
892.648 5.61204
892.916 5.61957
893.049 5.66067
893.183 5.79105
893.250 5.95601
893.317 6.32748
893.351 6.70620
893.384 7.39101
893.417 8.77271
893.434 9.98474
893.451 11.7798
893.475 15.5725
893.500 18.1013
893.525 15.5670
893.549 11.7683
893.566 9.95138
893.583 8.72905
893.617 7.34269
893.651 6.65252
893.684 6.27025
893.752 5.88558
893.819 5.70595
893.955 5.54344
894.090 5.46890
894.360 5.39276
894.630 5.34681
895.170 5.28019
895.711 5.22603
897.872 5.05402
900.033 4.91649
902.195 4.79323
904.356 4.66814
905.437 4.59787
906.517 4.51576
907.598 4.41248
908.138 4.34875
908.678 4.27592
908.949 4.23796
909.219 4.20354
909.489 4.18391
909.759 4.21169
909.894 4.27051
910.029 4.39586
910.164 4.65479
910.299 5.20664
910.435 6.49718
910.502 7.80181
910.570 10.0989
910.637 14.5503
910.671 18.4274
910.705 24.4086
910.739 34.2180
910.755 41.5373
910.772 51.3225
910.789 64.8204
910.806 83.6817
910.823 110.349
910.840 147.599
910.870 244.222
910.900 317.237
910.915 305.024
910.930 265.117
910.960 174.121
910.982 126.773
911.004 94.8792
911.026 73.4458
911.047 58.7493
911.091 40.6390
911.134 30.4769
911.178 24.2226
911.222 20.1150
911.309 15.1894
911.396 12.4337
911.483 10.7234
911.570 9.57661
911.657 8.76573
911.831 7.70814
912.005 7.05927
912.179 6.62565
912.353 6.31756
912.701 5.91154
913.050 5.65724
913.398 5.48322
913.746 5.35642
914.442 5.18295
915.139 5.06834
916.531 4.92185
917.924 4.82747
919.317 4.75776
922.102 4.65244
924.888 4.56394
926.281 4.51894
927.674 4.46887
929.066 4.40739
929.763 4.36878
930.459 4.32174
931.155 4.26388
931.504 4.23232
931.852 4.20610
932.026 4.20158
932.200 4.21270
932.374 4.25912
932.548 4.39092
932.635 4.52706
932.722 4.75772
932.809 5.16634
932.896 5.93813
932.984 7.55758
933.027 9.06641
933.071 11.5535
933.114 15.9718
933.158 24.6537
933.179 32.3191
933.201 44.1359
933.223 63.1574
933.245 93.7646
933.258 121.427
933.272 153.978
933.300 199.382
933.314 191.742
933.328 166.858
933.356 110.145
933.373 84.3024
933.390 65.8912
933.424 43.2960
933.458 31.1032
933.492 23.9540
933.526 19.4123
933.560 16.3604
933.628 12.6376
933.696 10.5205
933.764 9.19540
933.901 7.67038
934.037 6.84370
934.173 6.33733
934.309 5.99954
934.446 5.76050
934.718 5.44711
934.991 5.25245
935.263 5.12040
935.536 5.02503
936.081 4.89620
936.626 4.81261
937.171 4.75330
937.716 4.70847
938.806 4.64374
939.896 4.59765
942.076 4.53213
944.256 4.48357
946.436 4.44284
950.796 4.37034
955.156 4.29663
957.336 4.25453
959.516 4.20474
961.696 4.14068
962.786 4.09931
963.876 4.04770
964.421 4.01660
964.966 3.98115
965.511 3.94136
966.056 3.90026
966.329 3.88317
966.601 3.87505
966.874 3.89005
967.146 3.96609
967.283 4.05706
967.419 4.22236
967.555 4.53222
967.691 5.14959
967.828 6.52148
967.896 7.86461
967.964 10.1838
968.032 14.5827
968.066 18.3509
968.100 24.0861
968.134 33.3412
968.168 49.1560
968.202 78.2831
968.219 101.643
968.236 133.866
968.268 219.729
968.300 283.706
968.332 235.925
968.364 154.115
968.398 96.8086
968.432 65.1532
968.465 47.0113
968.499 35.9180
968.533 28.6908
968.567 23.7630
968.635 17.6461
968.703 14.1234
968.771 11.9054
968.906 9.34523
969.042 7.96105
969.178 7.11644
969.314 6.55654
969.449 6.16232
969.721 5.64979
969.992 5.33463
970.263 5.12254
970.535 4.97034
971.078 4.76560
971.620 4.63248
972.706 4.46231
973.791 4.34696
974.877 4.25087
975.420 4.20717
975.691 4.18943
975.962 4.18155
976.234 4.20533
976.369 4.25096
976.505 4.35641
976.641 4.61438
976.709 4.88170
976.776 5.36135
976.844 6.31377
976.878 7.16151
976.912 8.50403
976.946 10.7704
976.980 14.9213
977.014 23.3086
977.031 30.7090
977.048 41.6090
977.074 66.4756
977.100 84.9471
977.126 71.1061
977.152 47.5168
977.174 34.0760
977.195 25.5387
977.216 20.0566
977.237 16.4151
977.280 12.1041
977.322 9.77084
977.364 8.37068
977.407 7.46325
977.492 6.39127
977.576 5.79966
977.661 5.43426
977.831 5.01686
978.000 4.78966
978.170 4.64792
978.509 4.47965
978.849 4.38020
979.188 4.31143
979.866 4.21452
981.223 4.07423
982.580 3.94181
983.258 3.86891
983.937 3.78885
984.615 3.70223
985.294 3.61891
985.633 3.59014
985.972 3.58880
986.311 3.65379
986.651 3.88728
986.820 4.14702
986.990 4.60419
987.160 5.43902
987.329 7.06549
987.499 10.5866
987.584 13.9616
987.668 19.6690
987.753 30.1627
987.796 38.8917
987.838 51.8530
987.880 71.9534
987.923 104.711
987.965 160.808
988.008 259.038
988.054 429.641
988.100 557.760
988.146 464.684
988.193 303.334
988.239 195.302
988.285 133.087
988.331 96.2975
988.377 73.2960
988.423 58.0774
988.469 47.5668
988.562 34.3600
988.654 26.6644
988.746 21.7771
988.931 16.0928
989.115 12.9971
989.300 11.0996
989.484 9.83820
989.669 8.94872
990.038 7.79169
990.407 7.08149
990.776 6.60582
991.144 6.26695
991.882 5.81839
992.620 5.53604
993.358 5.34215
994.096 5.20061
995.572 5.00688
997.048 4.87925
998.524 4.78757
1000.00 4.71750
1003.14 4.60911
1006.29 4.53035
1009.43 4.46551
1012.57 4.40554
1015.71 4.34194
1017.29 4.30477
1018.86 4.25988
1020.43 4.20036
1021.22 4.16097
1022.00 4.11123
1022.39 4.08114
1022.79 4.04709
1023.18 4.00993
1023.57 3.97514
1023.77 3.96443
1023.96 3.96753
1024.16 4.00344
1024.36 4.12079
1024.46 4.24942
1024.55 4.47117
1024.65 4.87137
1024.75 5.64200
1024.85 7.28780
1024.90 8.84634
1024.95 11.4513
1025.00 16.1637
1025.04 25.6683
1025.07 34.4750
1025.09 47.9006
1025.12 71.0861
1025.14 108.476
1025.16 142.056
1025.17 178.935
1025.20 232.449
1025.22 222.705
1025.23 194.246
1025.26 127.577
1025.28 90.3598
1025.30 67.1441
1025.33 51.8176
1025.35 41.4063
1025.39 28.7860
1025.44 21.7933
1025.48 17.5308
1025.52 14.7378
1025.61 11.4040
1025.70 9.53137
1025.79 8.38569
1025.88 7.61865
1025.96 7.07565
1026.14 6.36470
1026.32 5.93129
1026.49 5.64142
1026.67 5.43532
1027.02 5.16298
1027.37 4.99290
1027.73 4.87618
1028.08 4.79139
1028.79 4.67502
1029.49 4.59805
1030.90 4.49860
1032.31 4.43246
1033.72 4.38094
1036.54 4.29279
1039.36 4.19906
1040.77 4.14081
1042.18 4.06706
1042.89 4.02112
1043.59 3.96681
1044.30 3.90206
1045.00 3.82660
1045.36 3.78726
1045.71 3.75276
1046.06 3.73687
1046.41 3.77998
1046.59 3.85760
1046.77 4.01703
1046.94 4.34100
1047.12 5.02624
1047.30 6.63508
1047.38 8.25391
1047.47 11.1124
1047.56 16.6604
1047.60 21.5088
1047.65 29.0437
1047.69 41.4398
1047.74 63.3140
1047.76 80.6749
1047.78 105.103
1047.80 139.917
1047.82 189.273
1047.86 312.116
1047.90 404.317
1047.94 338.123
1047.98 221.905
1048.01 153.330
1048.04 110.021
1048.07 82.5095
1048.10 64.3883
1048.17 43.1091
1048.23 31.6744
1048.30 24.8399
1048.36 20.4209
1048.49 15.2107
1048.62 12.3410
1048.74 10.5726
1048.87 9.39437
1049.00 8.56296
1049.26 7.48235
1049.51 6.82084
1049.77 6.37935
1050.02 6.06705
1050.54 5.65442
1051.05 5.39689
1051.56 5.22150
1052.07 5.09471
1053.09 4.92283
1054.12 4.81153
1055.14 4.73287
1056.16 4.67393
1058.21 4.59022
1060.26 4.53299
1062.31 4.49709
1062.82 4.49663
1063.33 4.51310
1063.58 4.54317
1063.84 4.63074
1063.97 4.74584
1064.10 5.03369
1064.16 5.37017
1064.22 6.10198
1064.26 6.83180
1064.29 8.13452
1064.32 10.6974
1064.34 12.9018
1064.35 15.8645
1064.38 22.7830
1064.40 27.1195
1064.43 22.4902
1064.45 15.8648
1064.47 12.2691
1064.49 10.0632
1064.51 8.54843
1064.52 7.58944
1064.56 6.41440
1064.60 5.79573
1064.67 5.17559
1064.74 4.90115
1064.89 4.66648
1065.04 4.57166
1065.33 4.49518
1065.62 4.46384
1066.21 4.43484
1066.80 4.41888
1069.15 4.37838
1071.50 4.34448
1073.85 4.30963
1076.20 4.26899
1077.37 4.24393
1078.55 4.21294
1079.72 4.17169
1080.31 4.14501
1080.89 4.11295
1081.48 4.07698
1081.78 4.06211
1082.07 4.06084
1082.22 4.07436
1082.36 4.10995
1082.51 4.19140
1082.66 4.37492
1082.80 4.82778
1082.88 5.30456
1082.95 6.15580
1083.02 7.88239
1083.06 9.43785
1083.10 11.8391
1083.13 16.0176
1083.17 23.4681
1083.19 29.9693
1083.21 38.9740
1083.23 52.2642
1083.24 71.8614
1083.26 94.1553
1083.27 118.678
1083.30 152.736
1083.33 126.822
1083.36 84.0902
1083.38 57.0907
1083.41 41.2972
1083.43 31.1446
1083.46 24.8476
1083.51 17.4176
1083.56 13.5511
1083.61 11.2069
1083.66 9.72665
1083.76 7.96480
1083.86 6.99572
1083.96 6.39845
1084.07 6.00009
1084.17 5.71861
1084.37 5.35046
1084.57 5.12552
1084.98 4.86702
1085.38 4.72397
1085.78 4.63378
1086.59 4.52536
1087.40 4.46136
1088.21 4.41789
1089.83 4.35961
1091.45 4.31880
1093.06 4.28557
1096.30 4.22650
1099.54 4.16377
1101.15 4.12631
1102.77 4.08084
1104.39 4.02151
1105.20 3.98340
1106.01 3.93678
1106.82 3.87940
1107.22 3.84758
1107.62 3.81924
1107.83 3.81151
1108.03 3.81600
1108.23 3.84831
1108.43 3.94856
1108.53 4.05483
1108.64 4.23740
1108.74 4.56381
1108.84 5.18734
1108.94 6.51012
1108.99 7.77374
1109.04 9.83977
1109.09 13.6521
1109.14 21.1883
1109.17 28.3070
1109.19 39.2516
1109.22 57.3424
1109.24 87.6934
1109.27 144.559
1109.30 185.421
1109.33 153.809
1109.36 101.715
1109.39 67.6656
1109.42 47.5040
1109.44 35.3452
1109.47 27.6365
1109.53 18.9095
1109.58 14.3739
1109.64 11.7168
1109.70 10.0209
1109.81 8.04296
1109.92 6.96238
1110.03 6.29835
1110.14 5.85565
1110.26 5.54232
1110.48 5.13172
1110.70 4.87587
1111.15 4.57231
1111.60 4.39225
1112.05 4.26574
1112.94 4.07766
1113.39 3.99570
1113.84 3.91613
1114.29 3.84008
1114.73 3.78047
1114.96 3.77064
1115.18 3.79500
1115.41 3.89486
1115.63 4.17501
1115.74 4.46208
1115.85 4.94665
1115.97 5.79963
1116.08 7.40331
1116.19 10.7395
1116.25 13.8296
1116.30 18.8897
1116.36 27.7958
1116.39 34.9013
1116.41 45.0482
1116.44 60.0128
1116.47 82.8410
1116.50 118.680
1116.53 172.679
1116.56 287.064
1116.60 370.701
1116.64 309.400
1116.68 204.594
1116.71 141.073
1116.74 102.130
1116.77 77.1588
1116.80 60.5800
1116.86 40.9440
1116.92 30.2982
1116.99 23.8950
1117.05 19.7353
1117.17 14.8059
1117.30 12.0593
1117.42 10.3762
1117.55 9.25040
1117.67 8.45344
1117.92 7.41048
1118.17 6.77253
1118.42 6.34416
1118.66 6.04139
1119.16 5.64582
1119.66 5.41619
1119.91 5.35426
1120.15 5.36105
1120.28 5.43496
1120.40 5.66947
1120.46 5.96141
1120.53 6.60388
1120.56 7.24100
1120.59 8.36303
1120.62 10.5201
1120.64 12.4061
1120.65 14.9306
1120.68 20.8347
1120.70 24.7664
1120.73 20.8244
1120.75 14.9098
1120.77 12.2385
1120.78 10.3895
1120.81 8.26700
1120.84 7.15336
1120.88 6.51356
1120.94 5.84636
1121.00 5.53407
1121.13 5.24801
1121.25 5.11956
1121.50 4.99658
1121.75 4.93063
1122.25 4.84949
1122.75 4.79618
1123.25 4.76114
1123.75 4.75386
1124.00 4.77855
1124.25 4.87330
1124.38 5.00603
1124.50 5.34282
1124.56 5.74035
1124.63 6.58318
1124.66 7.44407
1124.69 8.91966
1124.72 11.7560
1124.74 14.2405
1124.75 17.5753
1124.78 25.4199
1124.80 30.6834
1124.83 25.4174
1124.85 17.5701
1124.87 13.3533
1124.89 10.8148
1124.91 9.10581
1124.93 8.03454
1124.97 6.73999
1125.01 6.05187
1125.05 5.64689
1125.08 5.38958
1125.16 5.09645
1125.32 4.84304
1125.47 4.73904
1125.78 4.64992
1126.09 4.60896
1126.71 4.56425
1127.34 4.53532
1128.58 4.49271
1129.82 4.45927
1132.30 4.40589
1134.79 4.36238
1139.76 4.28768
1144.73 4.21379
1149.70 4.12313
1152.18 4.06253
1154.66 3.98182
1155.91 3.92924
1157.15 3.86430
1158.39 3.78171
1159.63 3.67370
1160.25 3.60724
1160.88 3.53167
1161.50 3.44980
1162.12 3.37683
1162.43 3.35964
1162.74 3.37995
1163.05 3.48751
1163.36 3.80867
1163.52 4.14926
1163.67 4.72973
1163.83 5.76456
1163.98 7.73312
1164.14 11.9167
1164.21 15.8456
1164.29 22.2512
1164.37 33.8067
1164.41 43.1521
1164.45 56.2448
1164.49 76.2542
1164.52 107.336
1164.56 157.271
1164.60 235.540
1164.65 392.960
1164.70 509.442
1164.75 425.349
1164.80 280.202
1164.85 173.203
1164.91 114.815
1164.96 81.7649
1165.02 62.0025
1165.07 48.9331
1165.13 40.1569
1165.24 29.1326
1165.35 22.7738
1165.45 18.7490
1165.67 14.0811
1165.89 11.5288
1166.11 9.96922
1166.33 8.92886
1166.55 8.19258
1166.98 7.22845
1167.42 6.63465
1167.85 6.23482
1168.29 5.94870
1169.16 5.56804
1170.04 5.32757
1170.91 5.16222
1171.78 5.04166
1173.53 4.87697
1175.27 4.76941
1177.02 4.69306
1178.76 4.63561
1182.25 4.55377
1185.74 4.49694
1192.73 4.41949
1199.71 4.36490
1206.69 4.32035
1213.67 4.28008
1217.16 4.26277
1218.91 4.26512
1219.34 4.27546
1219.78 4.30837
1220.00 4.35415
1220.22 4.47625
1220.32 4.63009
1220.43 5.00141
1220.49 5.42547
1220.54 6.29103
1220.57 7.14695
1220.60 8.54905
1220.62 11.0837
1220.65 15.8509
1220.68 22.8640
1220.70 27.2504
1220.73 22.5683
1220.75 15.8525
1220.78 11.2128
1220.80 8.68861
1220.83 7.26760
1220.85 6.41387
1220.91 5.50180
1220.96 5.06351
1221.06 4.66325
1221.16 4.49459
1221.37 4.35750
1221.58 4.30432
1221.99 4.26218
1222.40 4.24503
1224.05 4.21942
1227.35 4.19172
1230.65 4.16556
1232.30 4.16085
1232.71 4.16840
1233.13 4.19654
1233.33 4.23763
1233.54 4.34809
1233.64 4.48720
1233.75 4.82059
1233.80 5.19756
1233.85 5.95491
1233.87 6.67551
1233.90 7.87817
1233.93 10.0195
1233.95 13.7560
1233.98 19.5663
1234.00 23.1980
1234.03 19.3187
1234.05 13.7538
1234.08 9.69812
1234.10 7.64411
1234.13 6.50469
1234.16 5.82652
1234.21 5.10772
1234.27 4.75964
1234.38 4.44680
1234.48 4.31715
1234.70 4.21110
1234.92 4.16880
1235.35 4.13307
1235.79 4.11598
1237.52 4.07708
1239.26 4.03970
1240.99 3.99186
1241.86 3.96113
1242.73 3.92342
1243.60 3.87569
1244.47 3.81329
1244.90 3.77463
1245.33 3.73009
1245.77 3.68030
1246.20 3.63138
1246.42 3.61435
1246.64 3.61370
1246.85 3.65304
1247.07 3.79425
1247.18 3.95208
1247.29 4.22712
1247.40 4.73325
1247.50 5.70664
1247.61 7.82180
1247.67 9.81810
1247.72 13.1595
1247.77 19.2100
1247.80 24.1660
1247.83 31.4150
1247.86 42.4347
1247.88 59.9162
1247.91 88.7831
1247.94 137.102
1247.97 226.201
1248.00 293.640
1248.03 246.403
1248.06 162.446
1248.09 114.155
1248.12 84.0496
1248.14 64.3182
1248.17 50.9950
1248.22 34.7166
1248.27 25.9715
1248.32 20.5664
1248.37 17.1103
1248.47 12.9806
1248.57 10.6595
1248.67 9.22304
1248.77 8.26312
1248.87 7.59000
1249.07 6.70322
1249.27 6.16150
1249.47 5.79880
1249.68 5.54073
1250.08 5.19957
1250.48 4.98599
1250.88 4.84003
1251.29 4.73412
1252.09 4.58933
1252.90 4.49419
1253.70 4.42558
1254.51 4.37270
1256.12 4.29350
1257.73 4.23438
1258.54 4.21122
1259.34 4.19840
1259.74 4.20472
1260.15 4.24542
1260.35 4.31052
1260.55 4.48994
1260.65 4.71865
1260.70 4.92427
1260.75 5.25946
1260.80 5.87283
1260.85 7.09753
1260.88 8.22661
1260.90 10.0751
1260.93 13.2839
1260.95 19.0174
1260.98 27.9694
1261.00 33.9426
1261.03 27.9697
1261.05 19.0165
1261.07 13.8076
1261.09 10.6824
1261.12 8.77862
1261.14 7.61164
1261.18 6.24228
1261.22 5.53266
1261.27 5.11442
1261.31 4.85888
1261.40 4.56789
1261.57 4.32235
1261.74 4.22233
1262.09 4.13740
1262.43 4.09734
1263.13 4.04928
1263.82 4.01134
1265.20 3.93381
1266.59 3.83740
1267.28 3.77674
1267.97 3.70396
1268.66 3.61549
1269.35 3.50901
1269.70 3.45084
1270.05 3.39522
1270.39 3.35752
1270.74 3.38389
1270.91 3.46013
1271.08 3.63153
1271.26 3.99614
1271.43 4.78893
1271.60 6.66643
1271.69 8.58940
1271.78 11.9519
1271.82 14.7027
1271.86 18.5515
1271.91 24.2381
1271.95 33.0116
1271.99 47.2885
1272.04 72.0696
1272.06 91.9487
1272.08 118.255
1272.10 156.890
1272.12 208.240
1272.16 348.654
1272.20 452.576
1272.24 377.953
1272.28 249.444
1272.32 167.615
1272.35 118.919
1272.39 88.5426
1272.42 68.7825
1272.49 45.5993
1272.56 33.4661
1272.63 26.1490
1272.70 21.4982
1272.84 15.9723
1272.98 12.9250
1273.13 11.0420
1273.27 9.78316
1273.41 8.89718
1273.69 7.73065
1273.97 7.01216
1274.25 6.52998
1274.53 6.18709
1275.10 5.73148
1275.66 5.44554
1276.22 5.24964
1276.79 5.10711
1277.91 4.91322
1279.04 4.78708
1280.17 4.69764
1281.29 4.63041
1283.55 4.53423
1285.80 4.46658
1290.31 4.36983
1294.81 4.29067
1297.07 4.24925
1299.32 4.20091
1301.57 4.13711
1302.70 4.09405
1303.83 4.03775
1304.39 4.00211
1304.95 3.95968
1305.52 3.90881
1306.08 3.84931
1306.36 3.81821
1306.64 3.79077
1306.92 3.77796
1307.21 3.81113
1307.35 3.87104
1307.49 3.99473
1307.63 4.24578
1307.77 4.76951
1307.91 5.98485
1307.98 7.21124
1308.05 9.32224
1308.12 13.4118
1308.16 16.8779
1308.19 22.1548
1308.23 30.5961
1308.26 44.9169
1308.30 70.7885
1308.31 91.9699
1308.33 119.267
1308.37 199.636
1308.40 259.278
1308.42 248.545
1308.44 215.963
1308.47 142.562
1308.51 87.0294
1308.55 57.6611
1308.59 41.3906
1308.63 31.8461
1308.67 25.5378
1308.71 21.3530
1308.79 16.0977
1308.87 13.0473
1308.95 11.1484
1309.10 8.94459
1309.26 7.73567
1309.42 6.99669
1309.58 6.49981
1309.74 6.14975
1310.05 5.68912
1310.37 5.40337
1310.69 5.21007
1311.00 5.07143
1311.64 4.88503
1312.27 4.76592
1312.91 4.68263
1313.54 4.62089
1314.81 4.53391
1316.07 4.47397
1318.61 4.39044
1321.14 4.32442
1322.41 4.29081
1323.68 4.25240
1324.94 4.20321
1325.58 4.17118
1326.21 4.13125
1326.84 4.08103
1327.16 4.05336
1327.48 4.03057
1327.79 4.03771
1327.95 4.08098
1328.11 4.20171
1328.19 4.32746
1328.27 4.53764
1328.35 4.90716
1328.43 5.59985
1328.51 7.03226
1328.55 8.37055
1328.59 10.4899
1328.63 14.2763
1328.67 21.2979
1328.69 27.4260
1328.71 36.6669
1328.73 50.9620
1328.74 71.7643
1328.76 92.7917
1328.77 117.573
1328.80 152.639
1328.83 128.669
1328.86 85.6587
1328.88 59.8405
1328.90 43.6389
1328.93 33.3990
1328.95 26.6762
1329.00 18.7998
1329.05 14.6373
1329.10 12.0823
1329.14 10.4580
1329.24 8.50747
1329.33 7.41689
1329.43 6.74916
1329.52 6.30148
1329.62 5.98384
1329.81 5.56646
1330.00 5.31043
1330.38 5.01535
1330.76 4.85215
1331.14 4.74973
1331.90 4.63003
1332.66 4.56596
1333.43 4.53939
1333.81 4.54902
1334.19 4.60878
1334.38 4.70083
1334.57 4.94808
1334.66 5.25523
1334.71 5.53395
1334.76 5.97432
1334.81 6.76516
1334.85 8.29413
1334.88 9.69477
1334.90 11.9376
1334.93 15.7113
1334.95 21.8403
1334.97 32.3992
1335.00 39.4878
1335.03 32.3912
1335.05 21.8292
1335.08 15.6994
1335.10 12.1685
1335.12 9.90606
1335.14 8.52405
1335.19 6.91405
1335.23 6.09859
1335.28 5.61527
1335.32 5.31321
1335.41 4.97451
1335.59 4.69045
1335.77 4.57668
1336.13 4.48445
1336.48 4.44585
1337.20 4.40920
1337.91 4.38906
1340.78 4.34439
1343.64 4.31626
1346.50 4.29432
1352.22 4.26020
1355.09 4.25212
1355.80 4.25640
1356.52 4.27534
1356.88 4.30433
1357.23 4.38611
1357.41 4.49435
1357.59 4.77293
1357.68 5.11499
1357.73 5.41976
1357.77 5.89594
1357.82 6.74125
1357.86 8.34169
1357.88 9.81982
1357.90 12.0366
1357.93 15.6248
1357.95 21.5089
1357.97 31.9946
1358.00 39.0355
1358.03 32.0012
1358.05 21.5169
1358.08 14.8398
1358.10 11.1153
1358.13 8.97336
1358.16 7.66600
1358.21 6.24802
1358.26 5.55700
1358.31 5.15940
1358.36 4.91909
1358.47 4.64800
1358.67 4.42738
1358.88 4.34138
1359.29 4.27434
1359.70 4.24830
1360.53 4.22615
1361.35 4.21523
1364.65 4.18978
1367.95 4.16722
1371.25 4.14119
1374.54 4.10678
1376.19 4.08339
1377.84 4.05220
1379.49 4.00683
1380.32 3.97479
1381.14 3.93246
1381.97 3.87491
1382.38 3.83960
1382.79 3.80317
1383.20 3.78364
1383.41 3.80272
1383.61 3.88455
1383.72 3.97924
1383.82 4.14862
1383.92 4.46085
1384.03 5.07165
1384.13 6.39130
1384.18 7.66374
1384.23 9.75469
1384.28 13.6200
1384.34 21.2515
1384.36 28.2521
1384.39 39.3757
1384.41 57.7595
1384.44 87.0142
1384.47 143.095
1384.50 185.923
1384.53 156.611
1384.56 103.959
1384.60 65.7712
1384.63 44.7221
1384.66 32.7184
1384.70 25.5686
1384.73 20.7563
1384.76 17.5479
1384.83 13.4709
1384.90 11.0805
1384.97 9.58885
1385.10 7.85065
1385.24 6.89342
1385.37 6.30840
1385.50 5.91698
1385.64 5.63928
1385.91 5.27417
1386.18 5.04824
1386.71 4.78694
1387.25 4.64117
1387.79 4.54881
1388.86 4.43806
1389.94 4.37346
1391.01 4.33064
1393.16 4.27600
1395.31 4.24112
1397.46 4.21572
1401.76 4.17847
1406.05 4.14976
1410.35 4.12519
1414.65 4.10602
1415.72 4.10513
1416.80 4.11341
1417.34 4.12997
1417.87 4.18077
1418.14 4.25122
1418.41 4.43957
1418.55 4.68202
1418.61 4.90452
1418.68 5.27585
1418.75 5.96237
1418.78 6.55632
1418.81 7.43884
1418.85 8.92324
1418.88 11.4647
1418.91 16.5472
1418.93 20.9005
1418.95 26.7676
1418.97 40.7358
1419.00 49.6232
1419.03 40.1940
1419.05 26.7804
1419.07 20.0198
1419.09 15.7515
1419.11 12.8732
1419.13 10.8884
1419.16 8.40745
1419.20 7.07576
1419.24 6.24998
1419.27 5.73176
1419.34 5.12467
1419.42 4.79397
1419.49 4.59721
1419.64 4.38583
1419.93 4.21853
1420.22 4.15475
1420.80 4.10479
1421.38 4.08450
1422.54 4.06536
1423.70 4.05411
1428.35 4.02128
1433.00 3.98931
1437.65 3.95412
1442.30 3.91395
1446.95 3.86717
1449.28 3.84116
1451.60 3.81519
1452.76 3.80518
1453.92 3.80661
1454.51 3.82377
1455.09 3.88743
1455.38 3.98097
1455.52 4.07337
1455.67 4.23766
1455.81 4.57303
1455.89 4.88668
1455.96 5.40776
1456.03 6.39894
1456.07 7.24231
1456.10 8.54835
1456.14 10.7911
1456.18 14.7719
1456.19 18.0397
1456.21 22.8011
1456.23 29.8913
1456.25 40.4264
1456.27 62.1550
1456.30 76.5230
1456.33 62.1567
1456.35 40.4280
1456.38 26.7899
1456.40 18.9440
1456.43 14.3295
1456.45 11.4691
1456.48 9.60032
1456.50 8.32229
1456.55 6.74697
1456.60 5.85544
1456.65 5.30452
1456.75 4.69326
1456.85 4.37379
1456.95 4.18776
1457.15 3.99064
1457.35 3.89183
1457.55 3.83486
1457.95 3.77244
1458.74 3.71547
1459.54 3.68333
1461.14 3.63429
1462.73 3.58701
1465.92 3.47725
1469.11 3.32960
1470.70 3.23314
1472.29 3.11431
1473.89 2.96448
1475.48 2.77136
1476.28 2.65426
1477.08 2.52278
1477.87 2.38254
1478.67 2.26029
1479.07 2.23298
1479.47 2.26906
1479.87 2.44970
1480.26 2.97861
1480.46 3.53174
1480.66 4.46659
1480.86 6.11530
1481.06 9.21011
1481.16 11.8069
1481.26 15.6547
1481.36 21.5947
1481.46 31.1358
1481.56 47.8764
1481.66 79.3038
1481.71 106.245
1481.76 146.607
1481.81 208.590
1481.86 301.645
1481.93 507.274
1482.00 662.670
1482.07 554.403
1482.14 364.233
1482.20 251.461
1482.26 181.029
1482.32 135.859
1482.38 105.859
1482.50 70.2955
1482.62 50.9825
1482.73 39.3435
1482.85 31.7663
1483.09 22.7583
1483.32 17.7454
1483.56 14.6267
1483.80 12.5289
1484.03 11.0340
1484.51 9.05660
1484.98 7.81631
1485.45 6.95933
1485.92 6.32356
1486.87 5.41711
1487.34 5.08227
1487.81 4.83255
1488.28 4.77089
1488.52 4.92760
1488.75 5.41602
1488.99 6.75469
1489.11 8.19436
1489.23 10.8158
1489.34 16.0249
1489.40 20.6396
1489.46 27.8734
1489.52 39.8726
1489.58 61.2241
1489.61 78.6214
1489.64 102.402
1489.67 137.691
1489.70 186.396
1489.75 311.299
1489.80 407.757
1489.85 342.129
1489.90 224.824
1489.95 149.509
1490.00 105.249
1490.05 77.6463
1490.09 60.3481
1490.19 40.2921
1490.28 29.8188
1490.38 23.5359
1490.47 19.4882
1490.66 14.7233
1490.85 12.0503
1491.04 10.3788
1491.42 8.40422
1491.80 7.29474
1491.99 6.95093
1492.18 6.79432
1492.37 7.03738
1492.46 7.52139
1492.55 8.56993
1492.65 10.9604
1492.70 13.2231
1492.74 16.9626
1492.79 23.7356
1492.84 36.5473
1492.86 47.7935
1492.89 63.9822
1492.91 90.0218
1492.93 128.555
1492.97 215.222
1493.00 284.130
1493.02 275.220
1493.03 240.995
1493.07 160.617
1493.11 102.557
1493.14 70.9939
1493.18 52.6224
1493.21 41.2274
1493.25 33.7234
1493.29 28.5258
1493.36 21.9681
1493.43 18.0709
1493.50 15.6019
1493.65 12.6677
1493.79 11.0052
1493.94 9.95747
1494.22 8.70459
1494.51 7.97498
1494.80 7.49435
1495.38 6.88411
1495.96 6.50197
1496.53 6.23416
1497.69 5.87264
1498.84 5.63265
1500.00 5.45820
1502.30 5.21607
1504.61 5.05243
1506.92 4.93257
1511.54 4.76582
1516.16 4.65286
1520.77 4.56952
1530.01 4.45061
1539.24 4.36479
1548.48 4.29466
1557.71 4.23182
1562.33 4.20552
1563.49 4.20333
1564.64 4.21194
1565.22 4.23090
1565.79 4.29059
1566.08 4.37425
1566.23 4.45582
1566.37 4.59995
1566.52 4.89294
1566.59 5.16401
1566.66 5.62018
1566.73 6.47439
1566.77 7.21001
1566.80 8.35203
1566.84 10.2509
1566.88 13.7012
1566.89 16.5428
1566.91 20.6979
1566.93 26.9186
1566.95 36.2358
1566.97 55.7373
1567.00 68.8488
1567.03 55.7418
1567.05 36.2412
1567.07 27.7859
1567.08 22.1828
1567.11 15.1541
1567.15 11.4283
1567.18 9.27891
1567.21 7.94406
1567.24 7.06430
1567.30 6.01930
1567.36 5.44871
1567.42 5.10442
1567.55 4.72817
1567.67 4.53802
1567.80 4.42865
1568.04 4.31406
1568.54 4.22507
1569.03 4.19015
1570.02 4.15956
1571.01 4.14347
1574.97 4.10162
1578.93 4.06137
1582.89 4.01403
1586.86 3.95236
1588.84 3.91173
1590.82 3.85930
1592.80 3.78577
1593.79 3.73499
1594.78 3.66806
1595.77 3.57485
1596.26 3.51356
1596.76 3.44055
1597.25 3.36379
1597.50 3.33915
1597.75 3.35833
1597.87 3.41044
1597.99 3.52611
1598.12 3.76963
1598.24 4.28715
1598.36 5.50047
1598.43 6.71537
1598.49 8.83099
1598.55 12.8380
1598.58 16.2465
1598.61 21.3966
1598.64 29.5426
1598.67 43.1291
1598.69 53.7254
1598.71 67.0471
1598.72 84.8399
1598.74 108.427
1598.77 181.906
1598.80 236.825
1598.82 227.836
1598.83 198.892
1598.87 132.538
1598.90 81.2376
1598.94 53.9868
1598.98 38.8521
1599.02 29.9651
1599.05 24.0701
1599.09 20.1564
1599.17 15.2231
1599.24 12.3761
1599.32 10.5699
1599.47 8.46520
1599.62 7.30963
1599.77 6.59398
1599.92 6.11297
1600.07 5.76998
1600.37 5.31560
1600.67 5.03178
1600.97 4.83760
1601.27 4.69625
1601.87 4.50295
1602.47 4.37556
1603.67 4.21137
1604.87 4.10212
1606.07 4.01614
1608.47 3.86524
1609.67 3.78697
1610.87 3.69965
1612.08 3.59735
1613.28 3.47351
1613.88 3.40208
1614.48 3.32629
1615.08 3.25391
1615.68 3.21348
1615.98 3.23123
1616.28 3.31131
1616.58 3.52449
1616.88 4.04526
1617.18 5.37567
1617.33 6.78666
1617.48 9.35774
1617.63 14.5058
1617.70 19.1106
1617.78 26.4023
1617.85 38.6667
1617.93 60.9218
1617.97 79.3195
1618.00 105.071
1618.04 143.737
1618.08 198.576
1618.14 331.064
1618.20 432.804
1618.26 364.021
1618.32 239.859
1618.38 162.178
1618.43 114.565
1618.49 85.0539
1618.54 65.9558
1618.65 43.8844
1618.76 32.1760
1618.87 25.2199
1618.98 20.7333
1619.20 15.4607
1619.42 12.5315
1619.64 10.7256
1619.86 9.50993
1620.08 8.65122
1620.52 7.52134
1620.96 6.82430
1621.40 6.35447
1621.84 6.01790
1622.72 5.56919
1623.59 5.28476
1624.47 5.08780
1625.35 4.94273
1627.11 4.74107
1628.86 4.60457
1630.62 4.50254
1632.38 4.42014
1635.89 4.28215
1637.65 4.21523
1639.40 4.14141
1641.16 4.04968
1642.04 3.99076
1642.91 3.91682
1643.79 3.82046
1644.23 3.76269
1644.67 3.70352
1645.11 3.67031
1645.33 3.69724
1645.55 3.81775
1645.66 3.95844
1645.77 4.21015
1645.88 4.67316
1645.99 5.56329
1646.10 7.48057
1646.15 9.28792
1646.21 12.2830
1646.26 17.6184
1646.29 22.0066
1646.32 28.0899
1646.35 37.4739
1646.37 51.3969
1646.40 73.3078
1646.43 108.007
1646.46 181.049
1646.50 235.913
1646.54 197.884
1646.57 131.563
1646.60 99.0507
1646.62 77.0367
1646.67 50.2930
1646.71 35.9278
1646.76 27.4938
1646.80 22.1499
1646.85 18.5516
1646.94 14.1413
1647.03 11.6231
1647.13 10.0355
1647.31 8.19473
1647.50 7.18324
1647.68 6.56161
1647.86 6.14370
1648.05 5.84552
1648.42 5.45026
1648.78 5.20282
1649.15 5.03338
1649.52 4.91002
1650.26 4.74163
1650.99 4.63129
1651.73 4.55214
1652.47 4.49187
1653.94 4.40359
1655.41 4.33940
1658.36 4.24390
1661.31 4.16489
1664.25 4.08259
1665.73 4.03142
1666.46 3.99987
1667.20 3.96136
1667.94 3.91168
1668.67 3.84704
1669.04 3.81624
1669.23 3.81217
1669.41 3.83641
1669.59 3.94827
1669.69 4.09379
1669.78 4.39095
1669.87 5.05371
1669.92 5.69648
1669.96 6.78619
1670.01 8.78170
1670.05 12.8469
1670.08 16.5403
1670.10 22.4244
1670.12 32.1850
1670.13 39.7150
1670.15 48.6213
1670.16 63.0955
1670.17 80.2682
1670.20 103.864
1670.21 100.273
1670.23 87.4874
1670.26 59.0876
1670.28 40.3232
1670.31 29.0999
1670.33 22.2745
1670.36 17.9157
1670.41 12.9366
1670.46 10.3196
1670.52 8.77139
1670.57 7.77445
1670.67 6.59889
1670.78 5.94792
1670.88 5.54340
1671.09 5.07876
1671.29 4.82198
1671.50 4.66133
1671.92 4.47239
1672.33 4.36377
1672.75 4.29244
1673.58 4.20124
1674.41 4.14187
1675.24 4.09719
1676.90 4.02755
1680.22 3.91074
1683.55 3.78448
1685.21 3.70826
1686.87 3.61721
1688.53 3.50439
1690.19 3.36046
1691.02 3.27352
1691.86 3.17638
1692.69 3.07404
1693.52 2.98943
1693.93 2.97646
1694.35 3.01719
1694.76 3.17851
1695.18 3.62913
1695.59 4.86892
1695.80 6.23144
1696.01 8.75374
1696.11 10.8509
1696.22 13.9335
1696.32 18.6438
1696.42 26.1125
1696.53 38.9698
1696.63 62.7798
1696.68 82.5164
1696.74 111.358
1696.79 154.319
1696.84 216.756
1696.92 364.029
1697.00 478.596
1697.08 403.113
1697.16 265.590
1697.26 161.731
1697.35 106.383
1697.44 75.5647
1697.54 57.2066
1697.63 45.2456
1697.73 37.1128
1697.91 27.0945
1698.10 21.2926
1698.29 17.6374
1698.66 13.3795
1699.04 11.0384
1699.41 9.59447
1699.79 8.62277
1700.16 7.93293
1700.91 7.02178
1701.66 6.45431
1702.41 6.06880
1703.16 5.79072
1704.66 5.41753
1706.15 5.18175
1706.90 5.09747
1707.65 5.03850
1708.03 5.02876
1708.40 5.06365
1708.59 5.13643
1708.78 5.34729
1708.87 5.61799
1708.96 6.25110
1709.01 6.94795
1709.06 8.33434
1709.08 9.62018
1709.10 11.5930
1709.13 14.8764
1709.15 20.6023
1709.18 30.1213
1709.20 36.2938
1709.23 30.1065
1709.25 20.5810
1709.27 15.2297
1709.29 12.0226
1709.32 9.94536
1709.34 8.67165
1709.38 7.17780
1709.42 6.40433
1709.51 5.67536
1709.59 5.35501
1709.77 5.08418
1709.94 4.97150
1710.28 4.87213
1710.63 4.82305
1711.31 4.76383
1712.00 4.72175
1713.38 4.65560
1714.75 4.60184
1717.50 4.51569
1720.25 4.44776
1723.00 4.39182
1725.75 4.34561
1727.12 4.32732
1728.50 4.31779
1729.19 4.32368
1729.87 4.35836
1730.22 4.41365
1730.56 4.57012
1730.73 4.77720
1730.82 4.97273
1730.90 5.30684
1730.99 5.94655
1731.03 6.51023
1731.08 7.40628
1731.12 8.94747
1731.16 11.8957
1731.18 14.5277
1731.21 18.3910
1731.23 24.4883
1731.25 34.5423
1731.27 52.8550
1731.30 64.8086
1731.33 52.8271
1731.35 34.5068
1731.37 26.3798
1731.39 20.6273
1731.42 13.9345
1731.45 10.5234
1731.49 8.65051
1731.52 7.46629
1731.55 6.71597
1731.62 5.81658
1731.69 5.32426
1731.76 5.03413
1731.89 4.71804
1732.16 4.46607
1732.43 4.36916
1732.96 4.29204
1733.50 4.25977
1734.58 4.22824
1735.65 4.21025
1736.73 4.19937
1737.80 4.20179
1738.34 4.21925
1738.87 4.28107
1739.14 4.37030
1739.41 4.61237
1739.55 4.92582
1739.61 5.21410
1739.68 5.69586
1739.75 6.58769
1739.78 7.36009
1739.81 8.50878
1739.85 10.4432
1739.88 13.7611
1739.91 20.4171
1739.93 26.1393
1739.95 34.2246
1739.97 52.4559
1740.00 64.3892
1740.03 52.5072
1740.05 34.2886
1740.07 25.0246
1740.09 18.9182
1740.11 14.9780
1740.13 12.3581
1740.17 9.26954
1740.21 7.61859
1740.25 6.64445
1740.29 6.02512
1740.37 5.31452
1740.45 4.93887
1740.53 4.71669
1740.69 4.47881
1741.01 4.29032
1741.33 4.21705
1741.97 4.15687
1742.61 4.12960
1743.88 4.09872
1745.16 4.07655
1750.27 3.99989
1755.37 3.91873
1760.48 3.82284
1765.59 3.70007
1768.14 3.62168
1770.69 3.52483
1773.25 3.39846
1774.53 3.31794
1775.80 3.22018
1777.08 3.09941
1777.72 3.03060
1778.36 2.96360
1778.68 2.93833
1778.99 2.93071
1779.31 2.96514
1779.63 3.10524
1779.79 3.26472
1779.95 3.54475
1780.11 4.05908
1780.27 5.05053
1780.43 7.19492
1780.51 9.23865
1780.59 12.6183
1780.67 18.8310
1780.71 23.9502
1780.75 31.4823
1780.79 43.0236
1780.83 61.5280
1780.87 92.5133
1780.91 143.545
1780.95 237.440
1781.00 308.236
1781.05 257.339
1781.09 168.438
1781.15 102.278
1781.20 67.5864
1781.25 48.1283
1781.30 36.3927
1781.35 28.7137
1781.41 23.6045
1781.51 17.2841
1781.62 13.6263
1781.72 11.3434
1781.93 8.68898
1782.14 7.24456
1782.35 6.35517
1782.56 5.75902
1782.76 5.33555
1783.18 4.76963
1783.60 4.40907
1784.43 3.96171
1785.27 3.67679
1786.10 3.46126
1787.77 3.11288
1788.61 2.95821
1789.44 2.81958
1790.28 2.72230
1791.11 2.74800
1791.53 2.87632
1791.95 3.17387
1792.37 3.81071
1792.78 5.17705
1792.99 6.41410
1793.20 8.34315
1793.41 11.4768
1793.62 16.8252
1793.83 26.7751
1793.93 35.1027
1794.04 47.3006
1794.14 66.2399
1794.25 96.3513
1794.35 146.603
1794.45 231.777
1794.58 393.034
1794.70 519.375
1794.82 439.801
1794.95 291.916
1795.07 190.254
1795.19 131.401
1795.32 96.2278
1795.44 74.0290
1795.56 59.2424
1795.69 48.9234
1795.93 35.8248
1796.18 28.0979
1796.42 23.1253
1796.92 17.2557
1797.41 13.9960
1797.90 11.9634
1798.39 10.5914
1798.88 9.61041
1799.87 8.31040
1800.85 7.49558
1801.84 6.93900
1802.82 6.53526
1804.79 5.98800
1806.76 5.63268
1808.73 5.38058
1810.70 5.18999
1814.63 4.91128
1818.57 4.69800
1820.54 4.59570
1821.52 4.54063
1822.51 4.47896
1823.49 4.40482
1823.98 4.36005
1824.47 4.30830
1824.97 4.25147
1825.21 4.22697
1825.46 4.21977
1825.70 4.27637
1825.83 4.37588
1825.95 4.60361
1826.07 5.15800
1826.14 5.73375
1826.20 6.73958
1826.26 8.72444
1826.29 10.4576
1826.32 13.0325
1826.35 17.3361
1826.38 24.7992
1826.41 38.6558
1826.43 49.4525
1826.44 64.2588
1826.46 83.7710
1826.47 105.239
1826.50 136.911
1826.53 115.935
1826.56 77.6568
1826.59 49.6800
1826.62 34.6372
1826.65 25.7138
1826.68 20.4173
1826.72 16.8487
1826.75 14.4750
1826.81 11.4548
1826.87 9.70253
1826.94 8.58777
1827.06 7.28634
1827.19 6.57095
1827.31 6.12764
1827.57 5.61811
1827.82 5.33568
1828.07 5.15779
1828.57 4.94589
1829.08 4.82157
1829.58 4.73805
1830.59 4.62774
1831.59 4.55295
1832.60 4.49498
1834.61 4.40233
1838.64 4.24814
1842.66 4.09159
1846.69 3.89852
1848.70 3.77325
1850.72 3.61390
1851.72 3.51536
1852.73 3.39976
1853.74 3.26297
1854.74 3.10444
1855.25 3.02097
1855.75 2.94491
1856.25 2.90019
1856.76 2.95604
1857.01 3.07900
1857.26 3.34177
1857.51 3.88309
1857.76 5.02337
1857.89 6.05302
1858.02 7.66095
1858.14 10.2867
1858.27 14.7961
1858.39 23.3596
1858.46 30.6304
1858.52 41.6060
1858.58 58.9580
1858.64 87.9055
1858.71 138.941
1858.77 229.507
1858.84 385.753
1858.90 504.023
1858.97 422.249
1859.03 278.167
1859.07 212.241
1859.11 165.757
1859.19 107.383
1859.27 75.4850
1859.35 56.7530
1859.43 44.6258
1859.50 36.5198
1859.66 26.4600
1859.82 20.6939
1859.97 17.0513
1860.29 12.8202
1860.60 10.4934
1860.92 9.05406
1861.23 8.08061
1861.55 7.37975
1862.17 6.43259
1862.80 5.81216
1863.43 5.35753
1864.06 4.99295
1865.32 4.38214
1865.94 4.09381
1866.57 3.80753
1866.89 3.67371
1867.20 3.56663
1867.51 3.53101
1867.83 3.69033
1868.14 4.43070
1868.30 5.37919
1868.46 7.28008
1868.54 8.93548
1868.61 11.4019
1868.69 15.3175
1868.77 21.6787
1868.85 32.9940
1868.89 41.8442
1868.93 54.3270
1868.97 72.9813
1869.01 100.225
1869.05 141.774
1869.08 205.252
1869.14 348.833
1869.20 464.077
1869.26 395.281
1869.32 263.253
1869.38 170.466
1869.44 117.838
1869.50 86.1721
1869.55 66.6635
1869.61 53.5029
1869.67 44.4987
1869.79 32.9795
1869.91 26.1910
1870.03 21.8203
1870.27 16.6509
1870.51 13.7686
1870.74 11.9633
1870.98 10.7388
1871.22 9.85898
1871.70 8.68588
1872.17 7.94266
1872.65 7.43041
1873.12 7.05640
1874.08 6.54317
1875.03 6.20621
1875.98 5.96617
1876.93 5.78540
1878.83 5.52794
1880.74 5.35099
1884.54 5.11745
1888.35 4.96500
1892.16 4.85366
1899.77 4.69217
1907.39 4.56609
1911.19 4.50552
1915.00 4.44018
1918.81 4.36081
1920.71 4.30974
1922.61 4.24372
1923.57 4.20145
1924.52 4.14947
1925.47 4.08306
1926.42 3.99428
1926.90 3.93738
1927.37 3.86903
1927.85 3.78659
1928.32 3.68989
1928.80 3.59398
1929.04 3.57185
1929.28 3.62219
1929.39 3.71494
1929.51 3.90610
1929.63 4.29121
1929.75 5.09170
1929.87 6.89776
1929.93 8.67678
1929.99 11.6458
1930.05 17.1740
1930.08 21.7421
1930.11 28.1849
1930.14 38.2726
1930.17 53.5954
1930.20 79.4399
1930.23 120.551
1930.26 202.339
1930.30 267.007
1930.34 226.830
1930.37 151.184
1930.41 103.858
1930.44 74.5456
1930.47 56.2175
1930.51 44.2701
1930.57 30.3472
1930.64 22.9754
1930.70 18.4780
1930.77 15.5970
1930.90 12.1346
1931.03 10.1887
1931.16 8.98408
1931.29 8.17066
1931.42 7.58960
1931.69 6.82009
1931.95 6.34194
1932.21 6.01735
1932.47 5.78353
1933.00 5.46981
1933.52 5.27014
1934.05 5.13137
1934.57 5.02946
1935.62 4.88846
1936.67 4.79475
1937.72 4.72691
1938.77 4.67478
1940.87 4.59791
1942.97 4.54176
1947.16 4.45905
1951.36 4.39449
1955.55 4.33778
1959.75 4.28923
1960.80 4.28337
1961.85 4.29290
1962.37 4.31859
1962.90 4.40197
1963.16 4.51974
1963.29 4.63438
1963.42 4.83627
1963.55 5.23978
1963.62 5.61499
1963.69 6.23035
1963.75 7.38301
1963.78 8.36364
1963.82 9.81000
1963.85 12.2236
1963.88 16.4725
1963.92 24.6631
1963.93 31.3287
1963.95 40.8385
1963.97 63.2220
1964.00 77.4858
1964.03 63.2214
1964.05 40.8373
1964.07 30.8374
1964.09 23.9825
1964.12 15.9655
1964.16 11.7666
1964.19 9.48225
1964.23 8.04955
1964.26 7.14585
1964.33 6.08003
1964.40 5.49538
1964.47 5.14617
1964.60 4.76967
1964.74 4.57882
1964.88 4.46992
1965.15 4.35439
1965.70 4.26254
1966.25 4.22369
1967.35 4.18396
1968.45 4.15782
1972.85 4.06859
1977.25 3.96539
1981.65 3.82900
1983.85 3.74052
1986.05 3.63165
1988.25 3.49427
1990.45 3.31738
1991.55 3.21062
1992.65 3.09223
1993.75 2.97014
1994.85 2.87697
1995.40 2.87245
1995.95 2.94185
1996.50 3.17382
1997.05 3.78785
1997.60 5.41425
1997.87 7.15774
1998.15 10.3352
1998.42 16.6478
1998.56 22.2501
1998.70 30.9271
1998.84 45.3077
1998.97 70.3443
1999.11 117.380
1999.18 156.221
1999.25 209.778
1999.37 355.209
1999.50 469.147
1999.63 397.627
1999.75 264.316
1999.89 168.262
2000.02 114.424
2000.16 82.8821
2000.29 63.5050
2000.43 50.6760
2000.56 41.8771
2000.83 30.7969
2001.10 24.2883
2001.37 20.1235
2001.90 15.2372
2002.44 12.5277
2002.98 10.8446
2003.52 9.70775
2004.05 8.89722
2005.13 7.82442
2006.20 7.15284
2007.28 6.69557
2008.35 6.36543
2010.50 5.92088
2012.65 5.63599
2014.80 5.43747
2016.95 5.29096
2021.25 5.08805
2025.55 4.95367
2027.70 4.90315
2029.85 4.86436
2030.92 4.85355
2032.00 4.86221
2032.54 4.89162
2033.07 4.98918
2033.34 5.12727
2033.48 5.26174
2033.61 5.49849
2033.74 5.97654
2033.81 6.41482
2033.88 7.14514
2033.95 8.49184
2033.98 9.65362
2034.01 11.3747
2034.05 14.2574
2034.08 19.1619
2034.11 28.8753
2034.13 37.1150
2034.15 48.2140
2034.17 74.2084
2034.20 91.6204
2034.23 74.2260
2034.25 48.2355
2034.28 32.8755
2034.30 23.7581
2034.33 18.2288
2034.35 14.7215
2034.40 10.7755
2034.45 8.75797
2034.50 7.58238
2034.54 6.86752
2034.64 6.06112
2034.74 5.63827
2034.83 5.39383
2035.02 5.13300
2035.41 4.92869
2035.79 4.84953
2036.56 4.78399
2037.33 4.75360
2038.88 4.71872
2040.42 4.69426
2043.50 4.65484
2046.58 4.62107
2052.74 4.56223
2058.90 4.51003
2071.22 4.41251
2077.39 4.36337
2080.47 4.34629
2081.24 4.35045
2082.01 4.37533
2082.39 4.41553
2082.78 4.53120
2082.97 4.68624
2083.16 5.08568
2083.26 5.58139
2083.31 6.02022
2083.36 6.72653
2083.40 7.96357
2083.45 10.3988
2083.48 12.5778
2083.50 16.0366
2083.52 21.7935
2083.55 31.7133
2083.57 48.3758
2083.60 59.0907
2083.63 48.3821
2083.65 31.7209
2083.67 22.7600
2083.70 17.2111
2083.72 13.6877
2083.74 11.3730
2083.78 8.63167
2083.82 7.22591
2083.87 6.38544
2083.91 5.86785
2083.99 5.27494
2084.16 4.77360
2084.33 4.57600
2084.67 4.42049
2085.01 4.36034
2085.68 4.31047
2086.36 4.28709
2089.07 4.23569
2091.78 4.18864
2094.49 4.13049
2097.20 4.04901
2098.55 3.99196
2099.91 3.91544
2100.58 3.86578
2101.26 3.80508
2101.94 3.72909
2102.62 3.63227
2103.29 3.51122
2103.63 3.44719
2103.97 3.40162
2104.14 3.40359
2104.31 3.44796
2104.48 3.58428
2104.65 3.93473
2104.82 4.85723
2104.90 5.84369
2104.99 7.61371
2105.07 11.1659
2105.11 14.2671
2105.15 19.0924
2105.20 27.2506
2105.24 41.2859
2105.26 52.3169
2105.28 67.6854
2105.30 89.3255
2105.32 119.631
2105.36 201.447
2105.40 263.650
2105.44 222.758
2105.48 149.011
2105.51 105.894
2105.54 77.8829
2105.57 59.6576
2105.60 47.7470
2105.66 32.9148
2105.72 24.8793
2105.79 19.9042
2105.85 16.6935
2105.97 12.8073
2106.09 10.6264
2106.22 9.26183
2106.34 8.34073
2106.46 7.68784
2106.71 6.81892
2106.95 6.27743
2107.20 5.91009
2107.44 5.64614
2107.94 5.28913
2108.43 5.05845
2108.92 4.89371
2109.41 4.76740
2110.39 4.57284
2111.38 4.40356
2111.87 4.31501
2112.36 4.23440
2112.60 4.23477
2112.73 4.28034
2112.85 4.41039
2112.97 4.76610
2113.03 5.15356
2113.10 5.84730
2113.16 7.24261
2113.19 8.47381
2113.22 10.3134
2113.25 13.4009
2113.28 18.5402
2113.31 28.2983
2113.33 35.8874
2113.34 46.9453
2113.36 60.0858
2113.37 76.6504
2113.40 101.148
2113.43 86.1776
2113.46 58.7591
2113.49 39.1439
2113.52 28.1364
2113.55 21.4204
2113.58 17.3582
2113.61 14.5775
2113.64 12.7081
2113.70 10.2977
2113.76 8.87989
2113.83 7.96821
2113.95 6.89753
2114.07 6.29482
2114.19 5.91742
2114.43 5.47813
2114.68 5.23070
2114.92 5.07323
2115.41 4.88163
2115.89 4.76741
2116.38 4.68966
2117.36 4.58662
2118.33 4.51771
2119.30 4.46569
2121.25 4.38693
2125.15 4.26958
2129.04 4.16374
2132.94 4.04376
2134.89 3.96968
2136.84 3.87807
2138.78 3.75654
2139.76 3.67728
2140.73 3.57853
2141.71 3.45147
2142.19 3.37466
2142.68 3.29152
2143.17 3.22222
2143.41 3.21941
2143.65 3.29079
2143.78 3.39193
2143.90 3.58526
2144.02 3.95665
2144.14 4.69493
2144.26 6.33003
2144.32 7.90409
2144.38 10.5602
2144.45 15.4032
2144.48 19.4653
2144.51 25.2287
2144.54 34.3097
2144.57 48.2657
2144.60 71.1286
2144.63 109.029
2144.66 181.819
2144.70 235.794
2144.74 197.889
2144.77 131.716
2144.80 97.9744
2144.82 75.3757
2144.87 47.9867
2144.92 33.7007
2144.97 25.6078
2145.02 20.4210
2145.07 17.0240
2145.16 12.8349
2145.26 10.4362
2145.36 8.94538
2145.55 7.21318
2145.75 6.25370
2145.94 5.65526
2146.33 4.94193
2146.72 4.52115
2147.11 4.22915
2147.88 3.80817
2148.27 3.63368
2148.66 3.47354
2149.05 3.33630
2149.44 3.26403
2149.63 3.29123
2149.83 3.41512
2150.02 3.73960
2150.22 4.50548
2150.41 6.40052
2150.51 8.33273
2150.61 11.7276
2150.70 18.1810
2150.75 23.7328
2150.80 31.9193
2150.85 45.0589
2150.90 66.2924
2150.95 103.887
2150.99 169.121
2151.05 285.312
2151.10 377.506
2151.15 321.564
2151.21 214.555
2151.25 146.389
2151.30 105.020
2151.35 78.5730
2151.40 61.6883
2151.49 41.7433
2151.59 31.0485
2151.68 24.6361
2151.78 20.4662
2151.97 15.5178
2152.16 12.7299
2152.34 10.9918
2152.53 9.80805
2152.72 8.96387
2153.10 7.83904
2153.48 7.13011
2153.86 6.64355
2154.24 6.28858
2155.00 5.80202
2155.76 5.48013
2156.51 5.24550
2157.27 5.06128
2158.79 4.76942
2160.31 4.50583
2161.06 4.35833
2161.44 4.27492
2161.82 4.18385
2162.20 4.09345
2162.39 4.06258
2162.58 4.07208
2162.77 4.21161
2162.87 4.41665
2162.96 4.84553
2163.05 5.82757
2163.10 6.79736
2163.15 8.40382
2163.20 11.3898
2163.24 17.2487
2163.27 22.5780
2163.29 30.5076
2163.32 43.8052
2163.34 65.4692
2163.35 84.9712
2163.37 108.042
2163.40 143.184
2163.42 138.376
2163.43 121.526
2163.46 82.1726
2163.49 59.6320
2163.51 45.2458
2163.53 35.2941
2163.56 28.8014
2163.60 20.6963
2163.65 16.2517
2163.70 13.4511
2163.74 11.6370
2163.83 9.41276
2163.93 8.15054
2164.02 7.35301
2164.21 6.41734
2164.39 5.88939
2164.58 5.55309
2164.95 5.13936
2165.32 4.88171
2165.70 4.69357
2166.44 4.39837
2167.19 4.12565
2167.56 3.98445
2167.93 3.84786
2168.12 3.79351
2168.30 3.76964
2168.49 3.81843
2168.67 4.04935
2168.86 4.78737
2168.95 5.63740
2169.05 7.24692
2169.14 10.5519
2169.19 13.5775
2169.23 18.2739
2169.28 26.3208
2169.33 40.4375
2169.35 52.2816
2169.37 68.4175
2169.40 91.4848
2169.42 124.332
2169.46 210.794
2169.50 280.686
2169.54 239.846
2169.58 160.595
2169.63 103.231
2169.67 71.4560
2169.71 52.4639
2169.76 40.9383
2169.80 33.1591
2169.84 27.8906
2169.93 21.2071
2170.02 17.2229
2170.10 14.6869
2170.28 11.6636
2170.45 9.96766
2170.62 8.91085
2170.80 8.19266
2170.97 7.67577
2171.32 6.98358
2171.66 6.54551
2172.01 6.24290
2172.35 6.02110
2173.05 5.71620
2173.74 5.51540
2175.12 5.26219
2176.51 5.10491
2177.89 4.99459
2180.66 4.84388
2183.43 4.74008
2186.20 4.66151
2187.59 4.63106
2188.97 4.61418
2189.67 4.62175
2190.36 4.67167
2190.71 4.75178
2191.05 4.97689
2191.22 5.27081
2191.31 5.54786
2191.40 6.01158
2191.48 6.89937
2191.53 7.66402
2191.57 8.86195
2191.61 10.9434
2191.66 14.7522
2191.68 18.0593
2191.70 22.7871
2191.72 30.4393
2191.74 41.9480
2191.77 64.5755
2191.80 79.0657
2191.83 64.3205
2191.86 41.6263
2191.89 27.3199
2191.91 19.3762
2191.94 14.7759
2191.97 11.9551
2192.00 10.1267
2192.03 8.88384
2192.08 7.36169
2192.14 6.50614
2192.19 5.98022
2192.31 5.39616
2192.42 5.09705
2192.53 4.92398
2192.75 4.74212
2193.20 4.60612
2193.65 4.56667
2194.10 4.57883
2194.55 4.68751
2194.77 4.85629
2194.88 5.02327
2195.00 5.31700
2195.11 5.89739
2195.16 6.42287
2195.22 7.27998
2195.28 8.80770
2195.30 10.0562
2195.33 11.8937
2195.36 14.7292
2195.39 19.3538
2195.42 27.3384
2195.44 41.6459
2195.47 64.4919
2195.50 79.2795
2195.53 64.7496
2195.56 41.9689
2195.58 28.4027
2195.61 20.4967
2195.64 15.7538
2195.66 12.7680
2195.71 9.43157
2195.77 7.73474
2195.82 6.74932
2195.87 6.14911
2195.97 5.47079
2196.08 5.11323
2196.18 4.90439
2196.39 4.67720
2196.81 4.48787
2197.23 4.40240
2198.06 4.30354
2198.89 4.22124
2199.73 4.12540
2200.15 4.06674
2200.56 3.99975
2200.98 3.93423
2201.19 3.91813
2201.40 3.94795
2201.61 4.12504
2201.71 4.36453
2201.81 4.85955
2201.92 5.98161
2201.97 7.05851
2202.02 8.86914
2202.08 12.1361
2202.13 18.6219
2202.15 24.3509
2202.18 33.2193
2202.21 47.3882
2202.23 70.7723
2202.27 118.306
2202.30 155.498
2202.33 133.021
2202.37 89.2509
2202.40 61.3419
2202.43 44.5017
2202.46 34.0153
2202.49 27.1963
2202.56 19.1735
2202.62 14.9656
2202.68 12.4089
2202.74 10.7766
2202.87 8.81742
2202.99 7.72312
2203.12 7.03874
2203.37 6.24483
2203.62 5.80605
2203.87 5.53061
2204.37 5.20592
2204.87 5.02084
2205.37 4.90049
2206.37 4.75066
2207.37 4.65784
2208.37 4.59180
2210.37 4.49723
2212.37 4.42486
2214.37 4.36064
2218.37 4.23127
2220.37 4.15670
2222.37 4.06817
2224.37 3.95686
2226.37 3.80780
2227.37 3.71107
2228.37 3.59263
2229.37 3.44480
2230.36 3.25893
2230.86 3.15045
2231.36 3.03565
2231.86 2.92937
2232.36 2.88143
2232.61 2.92362
2232.86 3.07170
2233.11 3.44097
2233.36 4.30810
2233.49 5.12730
2233.61 6.43943
2233.74 8.62508
2233.86 12.4746
2233.93 15.5459
2233.99 19.8122
2234.05 26.1199
2234.11 35.4790
2234.18 50.4539
2234.24 74.8087
2234.30 116.904
2234.36 191.296
2234.43 325.625
2234.50 431.069
2234.57 366.373
2234.64 244.758
2234.71 157.441
2234.78 107.666
2234.85 78.5218
2234.93 60.3879
2235.00 48.4253
2235.07 40.1325
2235.21 29.6688
2235.36 23.5257
2235.50 19.5812
2235.79 14.9410
2236.08 12.3518
2236.36 10.7404
2236.65 9.64710
2236.94 8.86704
2237.51 7.83068
2238.09 7.17986
2238.66 6.73560
2239.24 6.41392
2240.39 5.98012
2241.54 5.70119
2242.69 5.50639
2243.84 5.36217
2246.14 5.16140
2248.44 5.02624
2250.74 4.92694
2253.04 4.84892
2257.64 4.72685
2262.24 4.61909
2264.54 4.55719
2265.69 4.51918
2266.84 4.47161
2267.99 4.40613
2268.56 4.36142
2269.14 4.30339
2269.71 4.22566
2270.00 4.17796
2270.29 4.12826
2270.58 4.09732
2270.72 4.11511
2270.86 4.20404
2271.01 4.49764
2271.08 4.84126
2271.15 5.49973
2271.22 6.87064
2271.26 8.12395
2271.30 10.1337
2271.33 13.5484
2271.37 19.7886
2271.39 24.8808
2271.40 32.2069
2271.42 42.9103
2271.44 58.4022
2271.46 76.1236
2271.47 97.1504
2271.50 128.200
2271.52 124.727
2271.53 109.973
2271.56 74.4500
2271.59 48.3516
2271.63 34.0945
2271.66 25.7713
2271.69 20.5981
2271.72 17.1861
2271.75 14.8203
2271.82 11.8328
2271.88 10.0549
2271.95 8.93251
2272.07 7.60449
2272.20 6.85915
2272.33 6.39650
2272.59 5.85561
2272.85 5.55501
2273.10 5.36526
2273.62 5.14043
2274.13 5.01107
2274.64 4.92661
2275.67 4.82140
2276.70 4.75644
2277.73 4.71080
2279.78 4.64729
2281.83 4.60142
2283.89 4.56365
2288.00 4.49705
2292.11 4.42813
2294.16 4.38738
2296.22 4.33740
2298.27 4.26962
2299.30 4.22343
2300.33 4.16259
2301.36 4.07626
2301.87 4.01725
2302.38 3.94219
2302.90 3.84672
2303.15 3.79391
2303.41 3.75005
2303.67 3.76068
2303.80 3.83712
2303.92 4.04875
2304.05 4.62498
2304.12 5.24066
2304.18 6.35802
2304.24 8.55648
2304.28 10.4769
2304.31 13.4369
2304.34 18.2233
2304.37 26.4174
2304.39 32.7169
2304.40 41.3257
2304.42 53.1846
2304.44 69.8998
2304.45 90.8999
2304.47 116.638
2304.50 154.809
2304.52 150.458
2304.53 132.239
2304.56 89.3326
2304.60 59.9292
2304.63 42.7399
2304.66 32.3368
2304.69 25.7086
2304.72 21.2612
2304.75 18.1396
2304.81 14.1514
2304.88 11.7522
2304.94 10.2290
2305.06 8.41799
2305.19 7.39774
2305.31 6.76351
2305.56 6.02068
2305.81 5.60653
2306.06 5.34366
2306.55 5.02781
2307.05 4.83969
2307.55 4.70968
2308.55 4.52399
2309.54 4.36779
2310.04 4.28603
2310.54 4.19674
2311.03 4.10314
2311.28 4.06598
2311.53 4.06269
2311.78 4.17784
2311.91 4.36498
2312.03 4.77554
2312.16 5.75168
2312.22 6.72077
2312.28 8.39308
2312.34 11.5072
2312.40 17.9597
2312.43 23.8977
2312.47 33.4564
2312.50 49.5025
2312.53 77.0058
2312.56 129.174
2312.60 169.452
2312.64 145.059
2312.67 97.0064
2312.71 62.7897
2312.75 43.2232
2312.79 32.0102
2312.83 25.1395
2312.87 20.6566
2312.91 17.5738
2312.99 13.7509
2313.07 11.4887
2313.15 10.0443
2313.31 8.35686
2313.47 7.41535
2313.63 6.83156
2313.95 6.15096
2314.27 5.77290
2314.59 5.53397
2315.22 5.24948
2315.86 5.08514
2316.50 4.97709
2317.78 4.84129
2319.05 4.75672
2320.33 4.69707
2322.88 4.61406
2325.43 4.55441
2327.98 4.50532
2333.08 4.41721
2338.18 4.32021
2340.74 4.25877
2343.29 4.17907
2344.56 4.12788
2345.84 4.06493
2347.11 3.98453
2348.39 3.87749
2349.03 3.80935
2349.66 3.72811
2350.30 3.63130
2350.94 3.52025
2351.58 3.41741
2351.90 3.40313
2352.22 3.48456
2352.38 3.61247
2352.53 3.86304
2352.69 4.35655
2352.85 5.35178
2353.01 7.55914
2353.09 9.67371
2353.17 13.1501
2353.25 19.4305
2353.29 24.4905
2353.33 31.5397
2353.37 42.1959
2353.41 58.4925
2353.45 84.1205
2353.49 123.369
2353.55 208.300
2353.60 276.164
2353.66 235.075
2353.71 156.811
2353.76 110.222
2353.80 80.4572
2353.85 61.3544
2353.89 48.6539
2353.99 33.5623
2354.08 25.3976
2354.17 20.3853
2354.26 17.1364
2354.44 13.2151
2354.63 11.0098
2354.81 9.62608
2354.99 8.68912
2355.18 8.01826
2355.54 7.12784
2355.91 6.57139
2356.27 6.19170
2356.64 5.91643
2357.37 5.54253
2358.11 5.29808
2358.84 5.12127
2359.57 4.98316
2361.04 4.76168
2361.77 4.65847
2362.50 4.54801
2363.23 4.41753
2363.60 4.34020
2363.97 4.25441
2364.33 4.17336
2364.52 4.15544
2364.70 4.19561
2364.88 4.41554
2364.97 4.70932
2365.06 5.29966
2365.16 6.60585
2365.20 7.84514
2365.25 9.83473
2365.29 13.3891
2365.34 20.1687
2365.36 25.9204
2365.39 34.4841
2365.41 47.5113
2365.43 67.0324
2365.47 111.777
2365.50 149.052
2365.52 144.726
2365.54 127.649
2365.57 86.7474
2365.61 56.9873
2365.64 40.2853
2365.68 30.2101
2365.72 24.1038
2365.75 19.9541
2365.79 17.1512
2365.86 13.5482
2365.93 11.4261
2366.01 10.0591
2366.15 8.43964
2366.30 7.53408
2366.45 6.96511
2366.74 6.30075
2367.03 5.92665
2367.32 5.68835
2367.90 5.40192
2368.49 5.23359
2369.07 5.12134
2370.24 4.97660
2371.40 4.88319
2372.57 4.81445
2374.90 4.71106
2377.24 4.62250
2378.41 4.57537
2379.57 4.52025
2380.74 4.44783
2381.32 4.39955
2381.91 4.33781
2382.49 4.25604
2382.78 4.20664
2383.07 4.15628
2383.36 4.12859
2383.51 4.15240
2383.66 4.25527
2383.80 4.58347
2383.87 4.96304
2383.95 5.68594
2384.02 7.18314
2384.06 8.57042
2384.09 10.7286
2384.13 14.4903
2384.17 21.1495
2384.18 26.5291
2384.20 34.2018
2384.22 45.3021
2384.24 61.6320
2384.25 80.6379
2384.27 102.295
2384.30 135.363
2384.32 131.214
2384.33 115.772
2384.36 78.4336
2384.39 54.9716
2384.42 40.0451
2384.45 30.7598
2384.47 24.7306
2384.53 17.7275
2384.58 14.0348
2384.64 11.7749
2384.70 10.3081
2384.81 8.57462
2384.92 7.59460
2385.03 6.98608
2385.25 6.27507
2385.48 5.88164
2385.70 5.63466
2386.15 5.34407
2386.59 5.17934
2387.04 5.07317
2387.93 4.94344
2388.82 4.86595
2389.71 4.81341
2391.50 4.74465
2393.28 4.69958
2395.06 4.66633
2398.63 4.61780
2402.20 4.58151
2405.77 4.55144
2412.90 4.49990
2420.04 4.45067
2423.60 4.42379
2427.17 4.39270
2430.74 4.35290
2432.52 4.32664
2434.30 4.29232
2436.09 4.24293
2436.98 4.20783
2437.87 4.16031
2438.76 4.09135
2439.21 4.04385
2439.66 3.98387
2440.10 3.91112
2440.32 3.87548
2440.55 3.85667
2440.77 3.90903
2440.88 4.01880
2440.99 4.27836
2441.11 4.92835
2441.16 5.59983
2441.22 6.76026
2441.27 9.01014
2441.33 13.7047
2441.36 18.2006
2441.38 25.6286
2441.41 38.5070
2441.43 48.3176
2441.44 60.3630
2441.45 79.2728
2441.47 100.559
2441.50 133.034
2441.52 128.991
2441.53 113.857
2441.56 76.9629
2441.59 54.7368
2441.62 40.1768
2441.64 30.9792
2441.67 25.1237
2441.72 17.9430
2441.78 14.1319
2441.83 11.7888
2441.88 10.2880
2441.99 8.47381
2442.10 7.45570
2442.20 6.81730
2442.42 6.07555
2442.63 5.66556
2442.85 5.40865
2443.27 5.10726
2443.70 4.93720
2444.13 4.82809
2444.98 4.69566
2445.84 4.61686
2446.70 4.56352
2448.41 4.49273
2450.12 4.44426
2451.83 4.40555
2455.25 4.33786
2458.67 4.26584
2460.38 4.22209
2462.09 4.16782
2463.81 4.09447
2464.66 4.04518
2465.52 3.98149
2466.37 3.89379
2466.80 3.83584
2467.23 3.76496
2467.66 3.68142
2467.87 3.64154
2468.08 3.62126
2468.30 3.68017
2468.40 3.80013
2468.51 4.08339
2468.62 4.77822
2468.67 5.49594
2468.73 6.72891
2468.78 9.10467
2468.83 14.0090
2468.86 18.6604
2468.89 25.9052
2468.91 38.6245
2468.93 47.7727
2468.94 59.7490
2468.95 78.5462
2468.97 99.7009
2469.00 132.015
2469.02 128.071
2469.03 113.103
2469.06 76.4911
2469.10 48.7708
2469.13 33.3331
2469.17 24.6840
2469.20 19.5770
2469.24 16.1634
2469.28 13.8335
2469.35 10.9662
2469.42 9.27467
2469.49 8.20891
2469.63 6.95006
2469.78 6.24297
2469.92 5.80172
2470.20 5.28071
2470.49 4.98413
2470.77 4.79213
2471.34 4.55052
2471.91 4.39461
2472.48 4.27582
2473.63 4.07582
2474.77 3.87105
2475.34 3.75513
2475.91 3.63269
2476.48 3.53677
2476.76 3.54413
2477.05 3.67795
2477.33 4.18342
2477.48 4.80441
2477.62 6.01380
2477.76 8.60699
2477.83 11.0018
2477.90 14.8899
2477.98 21.7233
2478.05 34.3548
2478.08 45.0538
2478.12 60.2934
2478.15 83.7168
2478.19 117.709
2478.24 199.584
2478.30 265.713
2478.36 226.729
2478.41 151.560
2478.47 99.4029
2478.53 69.1847
2478.58 51.2570
2478.64 39.9945
2478.70 32.5127
2478.75 27.2989
2478.87 20.7277
2478.98 16.8069
2479.10 14.2815
2479.32 11.3036
2479.55 9.63491
2479.78 8.59485
2480.01 7.88710
2480.23 7.38171
2480.69 6.70840
2481.14 6.28431
2481.60 5.99402
2482.05 5.78328
2482.96 5.49812
2483.87 5.31402
2484.78 5.18508
2485.69 5.08954
2487.51 4.95645
2489.33 4.86749
2491.15 4.80307
2492.97 4.75384
2496.61 4.68221
2500.25 4.63116
2507.53 4.55861
2514.80 4.50243
2522.08 4.44550
2525.72 4.40873
2527.54 4.38466
2529.36 4.35306
2531.18 4.30701
2532.09 4.27387
2533.00 4.22854
2533.91 4.16190
2534.36 4.11548
2534.82 4.05620
2535.27 3.98276
2535.50 3.94517
2535.73 3.92173
2535.96 3.96230
2536.07 4.05918
2536.18 4.29480
2536.30 4.89373
2536.35 5.51665
2536.41 6.59747
2536.47 8.69857
2536.52 13.2130
2536.55 17.5996
2536.58 24.6232
2536.61 36.7530
2536.62 45.9785
2536.64 59.1102
2536.65 76.4965
2536.67 98.5483
2536.70 130.206
2536.73 111.722
2536.76 75.5969
2536.79 54.7174
2536.81 41.0342
2536.84 32.1030
2536.86 26.0883
2536.91 18.8484
2536.96 14.9110
2537.01 12.4469
2537.06 10.8539
2537.16 8.90775
2537.26 7.80667
2537.36 7.11317
2537.56 6.30502
2537.75 5.85776
2537.95 5.57764
2538.35 5.24983
2538.74 5.06547
2539.14 4.94837
2539.93 4.80794
2540.73 4.72646
2541.52 4.67316
2543.10 4.60746
2544.69 4.57026
2546.27 4.55580
2547.06 4.56570
2547.86 4.61723
2548.25 4.69699
2548.65 4.92128
2548.85 5.21646
2548.94 5.49476
2549.04 5.96977
2549.14 6.87799
2549.19 7.68719
2549.24 8.94599
2549.29 11.1538
2549.34 15.2817
2549.37 18.9271
2549.39 24.5535
2549.42 33.5707
2549.44 48.0161
2549.47 74.2075
2549.50 91.5068
2549.53 74.2162
2549.56 48.0268
2549.59 30.2053
2549.63 20.6737
2549.66 15.4053
2549.69 12.3541
2549.72 10.3492
2549.76 9.04493
2549.82 7.43822
2549.89 6.53520
2549.95 5.99419
2550.08 5.39592
2550.21 5.08845
2550.34 4.91205
2550.60 4.72540
2551.12 4.57979
2551.65 4.52258
2552.69 4.47278
2553.73 4.44696
2557.90 4.37507
2559.98 4.32910
2561.03 4.29736
2562.07 4.25435
2563.11 4.19091
2563.63 4.14606
2564.15 4.08718
2564.67 4.00932
2565.20 3.92180
2565.46 3.91555
2565.59 3.96254
2565.72 4.10918
2565.85 4.52992
2565.91 4.99056
2565.98 5.83924
2566.04 7.53427
2566.08 9.06037
2566.11 11.3625
2566.14 15.2499
2566.17 21.7945
2566.19 27.2308
2566.21 34.3347
2566.22 44.1975
2566.24 58.6233
2566.25 75.9980
2566.27 97.9028
2566.30 129.388
2566.33 111.171
2566.36 75.2425
2566.38 58.0977
2566.40 45.7171
2566.44 30.9509
2566.48 22.9174
2566.52 18.1525
2566.56 15.1072
2566.60 13.0410
2566.68 10.4843
2566.75 9.00725
2566.83 8.06663
2566.99 6.96261
2567.14 6.34975
2567.30 5.96627
2567.61 5.51926
2567.92 5.26946
2568.24 5.11206
2568.86 4.92511
2569.49 4.81797
2570.11 4.74864
2571.36 4.66365
2572.61 4.61294
2573.86 4.57884
2576.35 4.53516
2578.85 4.50844
2581.35 4.49370
2582.60 4.49386
2583.85 4.51114
2584.47 4.54201
2585.09 4.63366
2585.41 4.75912
2585.72 5.09537
2585.87 5.52560
2585.95 5.92411
2586.03 6.59259
2586.11 7.83869
2586.15 8.90688
2586.19 10.5575
2586.23 13.2842
2586.26 18.1904
2586.28 22.3140
2586.30 27.9865
2586.32 36.8286
2586.34 49.4626
2586.37 76.2981
2586.40 94.4256
2586.43 76.2832
2586.46 49.4440
2586.48 36.2778
2586.50 27.6152
2586.52 21.8144
2586.54 17.8400
2586.58 13.0050
2586.62 10.3392
2586.66 8.70244
2586.70 7.67803
2586.78 6.48532
2586.86 5.84047
2586.94 5.46207
2587.10 5.05121
2587.42 4.72966
2587.75 4.60817
2588.39 4.51561
2589.03 4.48025
2590.32 4.45080
2591.61 4.43685
2596.75 4.40829
2607.05 4.36979
2617.35 4.33355
2622.50 4.31819
2625.07 4.32926
2625.71 4.34934
2626.36 4.41031
2626.68 4.49500
2627.00 4.72447
2627.16 5.02100
2627.24 5.29991
2627.32 5.76552
2627.40 6.65515
2627.44 7.41806
2627.48 8.60794
2627.52 10.5994
2627.56 14.2537
2627.58 17.2931
2627.60 21.7797
2627.62 28.5757
2627.64 39.2032
2627.67 59.9414
2627.70 74.1042
2627.73 59.9714
2627.76 39.2404
2627.78 28.1983
2627.80 21.0164
2627.82 16.4505
2627.84 13.5623
2627.89 10.0113
2627.93 8.17233
2627.97 7.06688
2628.02 6.38293
2628.10 5.59664
2628.19 5.17671
2628.28 4.92955
2628.45 4.66640
2628.80 4.46061
2629.14 4.38279
2629.84 4.32212
2630.53 4.29743
2633.30 4.25855
2636.07 4.23192
2638.85 4.20070
2641.62 4.15673
2643.00 4.12532
2644.39 4.08205
2645.78 4.01707
2646.47 3.97002
2647.16 3.90636
2647.85 3.81661
2648.20 3.75823
2648.55 3.69180
2648.89 3.63261
2649.07 3.62826
2649.24 3.68628
2649.41 3.93609
2649.50 4.25362
2649.59 4.87955
2649.67 6.24739
2649.72 7.51716
2649.76 9.59082
2649.80 13.3038
2649.85 20.1828
2649.87 26.1204
2649.89 34.4825
2649.91 47.6949
2649.93 67.7079
2649.95 88.0048
2649.97 113.686
2650.00 150.734
2650.02 146.356
2650.03 129.306
2650.07 87.2471
2650.10 55.2360
2650.14 37.8140
2650.18 27.9847
2650.22 22.0182
2650.26 18.1466
2650.29 15.4927
2650.37 12.1778
2650.45 10.2475
2650.52 9.01286
2650.67 7.55962
2650.83 6.75178
2650.98 6.24637
2651.28 5.65929
2651.59 5.33140
2651.89 5.12449
2652.50 4.87974
2653.10 4.73973
2653.71 4.64918
2654.93 4.53795
2656.14 4.47102
2657.36 4.42524
2659.78 4.36395
2662.21 4.32152
2664.64 4.28740
2669.50 4.22743
2674.36 4.16397
2676.79 4.12591
2679.22 4.07933
2681.65 4.01733
2682.87 3.97608
2684.08 3.92283
2685.29 3.84861
2685.90 3.79808
2686.51 3.73277
2687.12 3.64514
2687.72 3.53183
2688.03 3.48600
2688.18 3.49158
2688.33 3.56141
2688.48 3.82037
2688.56 4.13442
2688.63 4.74672
2688.71 6.03977
2688.75 7.23286
2688.79 9.15911
2688.82 12.4563
2688.86 18.5351
2688.88 23.5328
2688.90 30.7671
2688.92 41.4077
2688.94 56.5274
2688.95 73.6827
2688.97 94.8907
2689.00 125.327
2689.02 121.791
2689.03 107.884
2689.06 72.8501
2689.09 52.4101
2689.11 39.3552
2689.14 30.8019
2689.16 25.0219
2689.21 17.9371
2689.26 14.1040
2689.32 11.7143
2689.37 10.1720
2689.47 8.29102
2689.57 7.22717
2689.67 6.55651
2689.87 5.77549
2690.07 5.33783
2690.27 5.06144
2690.68 4.73314
2691.08 4.54213
2691.48 4.41517
2692.29 4.24892
2693.90 4.04264
2695.52 3.87316
2696.32 3.78239
2697.13 3.68025
2697.94 3.56122
2698.74 3.42155
2699.55 3.27158
2699.95 3.21675
2700.36 3.23100
2700.56 3.30610
2700.76 3.48285
2700.96 3.86284
2701.16 4.67654
2701.36 6.55786
2701.47 8.40610
2701.57 11.5089
2701.67 17.2105
2701.72 21.9305
2701.77 28.6599
2701.82 38.9873
2701.87 54.7645
2701.92 80.0323
2701.97 120.820
2702.03 204.788
2702.10 272.534
2702.17 233.174
2702.23 156.325
2702.28 112.413
2702.34 83.4848
2702.39 64.4372
2702.44 51.7288
2702.54 36.0883
2702.65 27.3619
2702.75 21.9566
2702.85 18.4238
2703.06 14.1495
2703.27 11.7162
2703.47 10.1898
2703.68 9.15210
2703.88 8.40692
2704.30 7.41531
2704.71 6.79273
2705.12 6.36791
2705.53 6.06085
2706.36 5.64446
2707.19 5.37440
2708.01 5.18201
2708.84 5.03469
2710.49 4.80960
2712.14 4.61162
2712.96 4.49746
2713.79 4.35059
2714.20 4.26125
2714.41 4.21977
2714.61 4.19921
2714.82 4.26089
2714.92 4.38417
2715.03 4.67254
2715.13 5.37265
2715.18 6.08960
2715.23 7.30954
2715.28 9.63343
2715.33 14.3410
2715.36 18.7287
2715.39 25.7744
2715.41 37.5430
2715.44 56.8881
2715.45 74.0557
2715.47 95.1518
2715.50 125.448
2715.53 108.207
2715.56 73.3022
2715.59 54.3527
2715.61 41.7599
2715.63 33.2470
2715.66 27.3530
2715.70 20.0541
2715.75 15.9120
2715.79 13.3382
2715.84 11.6240
2715.93 9.53713
2716.02 8.34678
2716.12 7.59305
2716.30 6.70989
2716.48 6.21588
2716.67 5.90649
2717.04 5.54052
2717.41 5.33098
2717.77 5.19512
2718.51 5.02651
2719.25 4.92321
2719.98 4.85143
2721.46 4.75417
2722.93 4.68742
2724.40 4.63594
2727.35 4.55453
2730.30 4.48182
2733.24 4.39576
2734.72 4.33346
2735.46 4.29100
2736.19 4.23498
2736.93 4.15604
2737.66 4.03996
2738.03 3.97038
2738.22 3.94485
2738.40 3.95185
2738.59 4.07060
2738.68 4.24899
2738.77 4.63211
2738.86 5.50952
2738.91 6.36585
2738.95 7.81216
2739.00 10.4259
2739.05 15.6021
2739.07 20.1507
2739.09 27.1467
2739.11 38.2235
2739.14 56.1688
2739.15 73.3279
2739.17 94.3006
2739.20 124.472
2739.23 107.459
2739.26 72.7211
2739.29 50.8164
2739.32 36.9930
2739.35 28.4426
2739.38 22.9114
2739.44 16.5054
2739.49 13.0868
2739.55 11.0402
2739.61 9.70913
2739.73 8.12117
2739.84 7.22984
2739.96 6.66994
2740.19 6.01716
2740.42 5.65447
2740.65 5.42607
2741.12 5.15689
2741.58 5.00349
2742.05 4.90454
2742.97 4.78381
2743.90 4.71183
2744.83 4.66330
2746.68 4.60020
2748.54 4.55935
2750.39 4.52955
2754.10 4.48686
2757.81 4.45622
2761.52 4.43378
2765.23 4.42894
2766.16 4.44087
2767.09 4.48234
2767.55 4.54210
2768.01 4.70697
2768.24 4.92478
2768.36 5.13176
2768.48 5.48877
2768.59 6.18345
2768.65 6.80658
2768.71 7.81631
2768.77 9.60287
2768.80 11.0538
2768.82 13.1772
2768.85 16.4305
2768.88 21.6850
2768.91 30.6314
2768.94 45.7204
2768.97 70.8309
2769.00 87.0716
2769.03 70.8491
2769.06 45.7437
2769.10 28.3732
2769.13 19.3916
2769.16 14.4726
2769.20 11.5716
2769.23 9.69930
2769.27 8.49403
2769.33 7.04461
2769.40 6.23491
2769.47 5.75139
2769.61 5.21653
2769.88 4.79121
2770.16 4.63072
2770.70 4.51590
2771.25 4.48803
2771.80 4.50598
2772.35 4.60683
2772.62 4.75485
2772.90 5.15498
2773.03 5.66441
2773.10 6.13723
2773.17 6.91210
2773.24 8.35943
2773.27 9.56617
2773.31 11.3981
2773.34 14.3497
2773.38 19.4701
2773.41 29.1425
2773.43 37.1695
2773.44 49.0049
2773.47 76.0052
2773.50 93.6755
2773.53 76.0015
2773.56 49.0000
2773.58 36.6094
2773.59 28.3667
2773.63 18.5063
2773.67 13.5069
2773.70 10.7656
2773.74 9.04121
2773.78 7.92323
2773.85 6.62930
2773.92 5.92180
2774.00 5.50436
2774.14 5.04998
2774.44 4.68849
2774.73 4.55137
2775.32 4.44602
2775.90 4.40578
2777.08 4.37343
2778.25 4.36106
2779.42 4.35931
2780.60 4.37738
2781.18 4.41065
2781.77 4.50960
2782.06 4.64549
2782.36 5.00744
2782.50 5.46994
2782.58 5.89324
2782.65 6.59753
2782.72 7.91882
2782.76 9.04638
2782.80 10.7217
2782.83 13.5231
2782.87 18.3093
2782.91 27.7972
2782.92 35.6176
2782.94 47.4682
2782.97 73.4403
2783.00 90.6939
2783.03 73.4663
2783.06 47.5007
2783.08 35.1354
2783.10 27.1197
2783.12 21.4002
2783.14 17.6454
2783.18 12.8901
2783.21 10.2442
2783.25 8.64117
2783.29 7.60318
2783.37 6.39144
2783.45 5.74071
2783.53 5.35231
2783.68 4.93387
2783.99 4.60240
2784.30 4.47620
2784.93 4.37907
2785.55 4.34137
2786.79 4.30883
2788.04 4.29218
2793.02 4.25063
2798.00 4.21072
2802.98 4.16167
2807.96 4.09305
2810.45 4.04475
2812.94 3.97912
2814.18 3.93588
2815.43 3.88190
2816.67 3.81206
2817.92 3.71758
2819.16 3.58275
2819.79 3.49244
2820.41 3.38351
2821.03 3.26547
2821.34 3.22361
2821.65 3.24009
2821.96 3.45512
2822.12 3.77494
2822.27 4.45441
2822.43 6.01940
2822.51 7.55151
2822.59 10.1059
2822.66 14.7905
2822.70 18.6083
2822.74 24.1409
2822.78 32.4232
2822.82 45.2571
2822.86 65.7558
2822.90 97.6653
2822.95 165.372
2823.00 220.169
2823.05 188.506
2823.10 126.576
2823.15 88.4504
2823.19 64.8076
2823.24 49.6491
2823.28 39.5717
2823.37 27.4901
2823.46 20.9798
2823.55 16.9870
2823.64 14.4003
2823.81 11.2745
2823.99 9.51262
2824.17 8.40401
2824.34 7.65116
2824.52 7.11054
2824.87 6.39150
2825.23 5.93804
2825.58 5.62685
2825.94 5.40039
2826.64 5.08904
2827.35 4.88161
2828.06 4.72832
2828.77 4.60494
2830.18 4.39483
2830.89 4.28957
2831.60 4.17132
2832.31 4.02631
2832.66 3.93949
2833.01 3.84554
2833.37 3.76748
2833.54 3.76644
2833.72 3.85433
2833.90 4.20519
2833.99 4.64263
2834.07 5.49328
2834.16 7.32402
2834.21 9.00261
2834.25 11.7127
2834.30 16.3480
2834.34 24.8787
2834.36 31.8787
2834.38 41.9947
2834.41 56.8503
2834.43 78.8614
2834.46 133.630
2834.50 176.967
2834.54 152.597
2834.57 102.734
2834.60 73.2765
2834.63 53.8849
2834.67 41.4828
2834.70 33.4793
2834.76 23.6247
2834.82 18.3311
2834.88 15.0633
2834.94 12.9546
2835.06 10.4106
2835.19 8.95998
2835.31 8.05273
2835.55 6.98657
2835.80 6.39276
2836.04 6.01810
2836.53 5.57461
2837.02 5.32086
2837.51 5.15656
2838.49 4.95404
2839.48 4.83176
2840.46 4.74843
2842.42 4.63888
2844.38 4.56724
2846.34 4.51473
2850.26 4.43882
2854.18 4.38233
2858.10 4.33579
2862.02 4.30270
2863.00 4.30448
2863.98 4.33012
2864.47 4.37504
2864.96 4.50801
2865.21 4.68864
2865.45 5.16530
2865.58 5.76568
2865.64 6.30712
2865.70 7.19447
2865.76 8.82721
2865.79 10.1896
2865.82 12.1557
2865.85 15.3542
2865.88 20.5381
2865.91 30.1678
2865.94 47.9534
2865.97 74.4510
2866.00 91.7144
2866.03 74.4623
2866.06 47.9673
2866.08 32.3906
2866.11 23.3045
2866.13 17.7782
2866.16 14.2640
2866.21 10.2457
2866.26 8.23780
2866.31 7.06425
2866.36 6.34804
2866.46 5.53255
2866.56 5.10951
2866.66 4.86237
2866.86 4.60042
2867.27 4.39556
2867.67 4.31640
2868.48 4.25082
2869.28 4.21996
2872.51 4.15112
2875.73 4.08663
2878.96 4.00468
2880.57 3.95166
2882.18 3.88579
2883.80 3.80068
2885.41 3.68546
2886.22 3.61086
2887.02 3.52057
2887.83 3.41031
2888.63 3.27769
2889.44 3.13690
2889.84 3.09109
2890.25 3.12358
2890.45 3.21528
2890.65 3.41693
2890.85 3.83898
2891.05 4.72477
2891.26 6.73738
2891.36 8.68880
2891.46 11.9272
2891.56 17.7891
2891.61 22.5740
2891.66 29.3099
2891.71 39.4838
2891.76 54.7181
2891.81 78.5205
2891.86 115.885
2891.93 197.973
2892.00 263.616
2892.07 225.295
2892.14 151.470
2892.19 112.506
2892.24 86.1480
2892.29 67.6791
2892.34 54.9981
2892.44 38.9098
2892.54 29.6742
2892.64 23.8944
2892.74 20.0274
2892.93 15.3188
2893.13 12.6089
2893.33 10.8994
2893.53 9.72843
2893.72 8.89101
2894.12 7.77561
2894.51 7.07602
2894.91 6.59998
2895.30 6.25665
2896.09 5.79591
2896.88 5.50238
2897.67 5.29872
2898.46 5.14876
2900.04 4.94094
2901.62 4.80137
2903.21 4.69811
2904.79 4.61563
2907.95 4.47940
2909.53 4.41372
2911.11 4.34083
2912.69 4.24851
2913.48 4.18763
2914.27 4.10879
2915.06 3.99977
2915.45 3.92834
2915.85 3.84331
2916.24 3.75366
2916.44 3.72411
2916.64 3.74314
2916.84 3.92398
2916.94 4.18430
2917.03 4.72608
2917.13 5.95784
2917.18 7.16366
2917.23 9.14309
2917.28 12.7612
2917.33 19.6851
2917.36 25.8067
2917.38 34.6884
2917.41 49.0470
2917.43 71.2706
2917.47 120.258
2917.50 159.749
2917.54 137.549
2917.57 92.9395
2917.59 71.3514
2917.62 56.3471
2917.66 37.5675
2917.71 27.4481
2917.75 21.5887
2917.79 17.7575
2917.84 15.1681
2917.93 12.0010
2918.02 10.1507
2918.11 8.98519
2918.29 7.61173
2918.46 6.84215
2918.64 6.35948
2919.00 5.79571
2919.36 5.47829
2919.72 5.27650
2920.43 5.03372
2921.14 4.89161
2921.86 4.79734
2923.29 4.67674
2924.72 4.59946
2926.15 4.54273
2929.00 4.45671
2931.86 4.38143
2934.72 4.29219
2936.15 4.22754
2936.86 4.18350
2937.58 4.12553
2938.29 4.04404
2939.01 3.92464
2939.37 3.85328
2939.54 3.82709
2939.72 3.83419
2939.90 3.95537
2939.99 4.13591
2940.08 4.52144
2940.17 5.41225
2940.21 6.28204
2940.26 7.70837
2940.30 10.3232
2940.35 15.3144
2940.37 19.8549
2940.39 26.4798
2940.41 36.7583
2940.44 53.5964
2940.45 69.1986
2940.47 89.0535
2940.50 119.097
2940.52 116.078
2940.53 102.265
2940.56 69.9790
2940.60 46.5566
2940.63 33.0361
2940.66 25.0675
2940.70 20.0831
2940.73 16.7803
2940.76 14.4818
2940.83 11.5675
2940.89 9.84640
2940.96 8.73553
2941.09 7.41716
2941.22 6.67897
2941.36 6.21505
2941.62 5.67415
2941.88 5.37059
2942.15 5.17839
2942.67 4.94999
2943.20 4.81833
2943.73 4.73249
2944.78 4.62553
2945.84 4.55993
2946.89 4.51420
2949.00 4.45172
2951.11 4.40877
2953.22 4.37908
2954.28 4.37295
2955.33 4.38777
2955.86 4.42292
2956.39 4.53399
2956.65 4.68880
2956.92 5.10345
2957.05 5.62913
2957.11 6.11105
2957.18 6.90972
2957.25 8.37031
2957.28 9.59710
2957.31 11.4533
2957.35 14.4291
2957.38 19.5515
2957.41 29.1019
2957.44 47.3662
2957.47 73.4937
2957.50 90.4279
2957.53 73.5171
2957.56 47.3951
2957.58 32.5835
2957.61 23.7122
2957.63 18.2191
2957.65 14.6789
2957.70 10.5746
2957.75 8.50035
2957.80 7.27753
2957.85 6.52790
2957.94 5.67572
2958.04 5.22554
2958.14 4.96188
2958.33 4.68168
2958.72 4.46129
2959.10 4.37535
2959.88 4.30215
2960.65 4.26566
2962.20 4.21541
2963.74 4.16609
2965.29 4.10249
2966.06 4.05946
2966.84 4.00301
2967.61 3.92467
2968.38 3.81440
2968.77 3.75616
2968.96 3.74294
2969.16 3.77298
2969.35 3.94119
2969.45 4.16718
2969.54 4.62484
2969.64 5.64566
2969.69 6.60870
2969.74 8.20084
2969.79 11.0852
2969.83 16.5416
2969.86 21.2029
2969.88 28.1904
2969.91 38.9143
2969.93 55.8452
2969.97 93.5430
2970.00 123.553
2970.04 106.362
2970.07 71.9333
2970.10 51.9880
2970.13 38.8157
2970.16 30.2855
2970.19 24.7393
2970.24 17.8293
2970.30 14.0907
2970.36 11.7693
2970.42 10.2689
2970.53 8.45506
2970.64 7.41933
2970.76 6.76769
2970.99 6.01064
2971.22 5.58877
2971.45 5.32492
2971.91 5.01421
2972.36 4.83778
2972.82 4.72417
2973.74 4.58543
2974.66 4.50208
2975.58 4.44502
2977.41 4.36811
2979.24 4.31435
2981.08 4.27085
2984.75 4.19432
2988.42 4.11410
2990.25 4.06641
2992.09 4.00823
2993.92 3.93073
2994.84 3.87918
2995.76 3.81298
2996.67 3.72306
2997.59 3.59691
2998.05 3.52581
2998.28 3.50274
2998.51 3.51796
2998.74 3.66086
2998.85 3.86684
2998.97 4.29817
2999.08 5.28615
2999.14 6.23979
2999.20 7.84677
2999.25 10.8188
2999.31 16.6540
2999.34 21.9213
2999.37 29.7879
2999.40 42.8048
2999.42 63.3750
2999.46 105.686
2999.50 140.115
2999.54 119.665
2999.58 80.7947
2999.61 56.9769
2999.64 42.0436
2999.67 32.4848
2999.70 26.1403
2999.77 18.5268
2999.83 14.4559
2999.90 11.9549
2999.96 10.3450
3000.09 8.41020
3000.22 7.31177
3000.35 6.62657
3000.60 5.82369
3000.86 5.37585
3001.12 5.09426
3001.63 4.75863
3002.15 4.56294
3002.66 4.43223
3003.69 4.25968
3004.72 4.13988
3005.75 4.04129
3007.80 3.85676
3008.83 3.75603
3009.86 3.64118
3010.89 3.50468
3011.92 3.33943
3012.95 3.14799
3013.46 3.06093
3013.98 3.02842
3014.23 3.07133
3014.49 3.20617
3014.75 3.52933
3015.00 4.26709
3015.26 6.02737
3015.39 7.79497
3015.52 10.8056
3015.65 16.3883
3015.71 20.9464
3015.78 27.5880
3015.84 37.7827
3015.90 53.4999
3015.97 78.8273
3016.03 119.992
3016.12 204.875
3016.20 274.429
3016.28 236.107
3016.37 159.052
3016.44 113.773
3016.50 84.1968
3016.57 64.8676
3016.64 51.9920
3016.77 36.2784
3016.91 27.5492
3017.04 22.1929
3017.18 18.6528
3017.45 14.3689
3017.72 11.9354
3017.99 10.3967
3018.26 9.34858
3018.53 8.59446
3019.07 7.59038
3019.61 6.95775
3020.15 6.52519
3020.69 6.21170
3021.77 5.78835
3022.85 5.51627
3023.93 5.32614
3025.01 5.18528
3027.17 4.98885
3029.33 4.85633
3031.49 4.75855
3033.65 4.68136
3037.97 4.55911
3042.29 4.44828
3044.46 4.38294
3046.62 4.29113
3047.70 4.22025
3048.78 4.10922
3049.32 4.02594
3049.86 3.92433
3050.13 3.89678
3050.26 3.92144
3050.40 4.02692
3050.53 4.35715
3050.60 4.73801
3050.67 5.44325
3050.73 6.89955
3050.77 8.20772
3050.80 10.1938
3050.84 13.5633
3050.87 19.5075
3050.89 24.1975
3050.90 30.7445
3050.92 39.9770
3050.94 52.5701
3050.95 68.0690
3050.97 87.3971
3051.00 116.515
3051.02 113.564
3051.03 100.137
3051.06 68.4070
3051.09 49.6624
3051.11 37.6513
3051.14 29.7278
3051.16 24.3441
3051.22 17.7063
3051.27 14.0938
3051.32 11.8324
3051.37 10.3686
3051.47 8.59072
3051.57 7.56987
3051.67 6.93097
3051.87 6.17838
3052.07 5.75772
3052.27 5.49431
3052.67 5.18338
3053.08 5.00629
3053.48 4.89225
3054.28 4.75225
3055.09 4.66808
3055.89 4.61046
3057.50 4.53376
3059.11 4.48327
3060.72 4.45215
3061.53 4.45063
3062.33 4.48351
3062.74 4.54514
3063.14 4.72829
3063.34 4.97679
3063.54 5.61920
3063.64 6.41039
3063.69 7.10787
3063.74 8.22485
3063.79 10.2191
3063.84 14.0537
3063.87 17.4519
3063.89 22.7924
3063.92 31.5621
3063.94 46.4137
3063.97 71.9765
3064.00 88.4692
3064.03 72.0094
3064.06 46.4544
3064.08 31.5989
3064.11 22.8233
3064.13 17.4772
3064.16 14.0740
3064.21 10.1788
3064.26 8.23068
3064.31 7.09121
3064.36 6.39533
3064.46 5.60759
3064.66 4.95221
3064.86 4.69298
3065.26 4.48768
3065.67 4.40502
3066.47 4.32982
3067.27 4.28737
3068.88 4.22016
3070.49 4.14666
3072.10 4.04629
3072.90 3.97625
3073.71 3.88275
3074.51 3.75119
3074.91 3.66474
3075.31 3.56326
3075.72 3.46260
3075.92 3.43830
3076.12 3.48625
3076.32 3.76270
3076.42 4.13628
3076.52 4.89169
3076.62 6.56563
3076.67 8.13341
3076.72 10.7035
3076.77 15.2958
3076.80 18.8470
3076.82 23.8221
3076.85 30.9668
3076.87 41.4837
3076.90 57.2693
3076.92 81.7856
3076.96 138.974
3077.00 185.435
3077.04 159.916
3077.08 108.024
3077.12 71.8136
3077.16 50.5123
3077.20 37.8323
3077.24 29.8456
3077.28 24.5275
3077.32 20.8135
3077.40 16.1324
3077.48 13.3158
3077.56 11.4959
3077.72 9.34406
3077.88 8.12928
3078.04 7.37017
3078.35 6.48115
3078.67 5.98296
3078.99 5.66868
3079.63 5.29470
3080.26 5.08047
3080.90 4.94124
3082.18 4.76945
3083.45 4.66533
3084.72 4.59364
3087.27 4.49658
3089.82 4.42845
3092.37 4.37296
3097.47 4.27289
3102.56 4.15994
3105.11 4.08656
3107.66 3.98968
3108.93 3.92669
3110.21 3.84874
3111.48 3.74897
3112.76 3.61662
3114.03 3.43610
3114.67 3.32433
3115.30 3.20679
3115.94 3.13317
3116.26 3.17420
3116.58 3.38281
3116.90 4.06735
3117.06 4.85979
3117.22 6.36213
3117.38 9.46653
3117.46 12.2680
3117.53 16.6294
3117.61 23.9636
3117.69 36.7605
3117.77 61.3346
3117.81 81.6419
3117.85 109.422
3117.93 186.955
3118.00 250.655
3118.07 215.378
3118.15 144.890
3118.20 108.727
3118.25 83.9540
3118.30 66.4123
3118.35 54.2553
3118.45 38.6881
3118.55 29.7350
3118.65 24.0270
3118.75 20.1921
3118.95 15.5026
3119.16 12.7929
3119.36 11.0786
3119.56 9.90192
3119.76 9.05905
3120.16 7.93459
3120.57 7.22818
3120.97 6.74706
3121.37 6.39990
3122.18 5.93453
3122.98 5.63803
3123.79 5.43295
3124.60 5.28265
3126.21 5.07673
3127.82 4.94161
3129.43 4.84548
3131.04 4.77313
3134.27 4.67040
3137.49 4.60161
3140.72 4.56710
3141.52 4.57600
3142.33 4.62214
3142.73 4.69377
3143.13 4.89525
3143.34 5.16119
3143.54 5.83615
3143.64 6.65411
3143.69 7.36665
3143.74 8.49446
3143.79 10.4747
3143.84 14.1868
3143.86 17.3917
3143.89 22.2987
3143.91 30.0871
3143.94 42.8764
3143.97 65.6640
3144.00 81.1513
3144.03 65.5736
3144.06 42.7637
3144.09 29.2123
3144.12 21.2635
3144.14 16.4151
3144.17 13.3256
3144.22 9.83429
3144.28 8.04184
3144.33 6.99668
3144.39 6.35845
3144.50 5.63788
3144.71 5.04170
3144.93 4.80805
3145.36 4.62644
3145.80 4.55660
3146.66 4.49900
3147.53 4.47257
3151.00 4.42240
3154.47 4.40163
3155.34 4.40981
3156.20 4.44856
3156.64 4.50885
3157.07 4.67988
3157.29 4.90789
3157.51 5.49774
3157.61 6.22415
3157.67 6.86552
3157.72 7.89375
3157.78 9.68371
3157.83 13.1722
3157.86 16.2599
3157.88 21.1060
3157.91 29.0506
3157.94 42.5294
3157.97 65.3733
3158.00 80.9363
3158.03 65.5085
3158.06 42.6975
3158.08 32.4661
3158.10 25.4673
3158.14 16.9659
3158.18 12.5789
3158.22 10.0937
3158.26 8.56969
3158.30 7.57419
3158.37 6.40184
3158.53 5.38528
3158.68 4.97166
3159.00 4.64081
3159.31 4.51322
3159.93 4.41304
3160.55 4.37265
3163.04 4.31444
3168.02 4.25714
3173.00 4.20200
3177.98 4.13697
3182.96 4.04969
3185.45 3.98973
3187.94 3.90917
3189.18 3.85628
3190.43 3.79019
3191.67 3.70433
3192.92 3.58723
3194.16 3.41697
3194.79 3.30018
3195.41 3.15458
3196.03 2.98323
3196.34 2.90567
3196.65 2.87958
3196.96 3.05055
3197.12 3.35672
3197.27 4.04674
3197.43 5.69661
3197.51 7.34300
3197.59 10.1187
3197.66 15.2596
3197.70 19.4761
3197.74 25.6129
3197.78 34.8381
3197.82 49.1938
3197.86 72.2250
3197.90 108.252
3197.95 185.276
3198.00 248.725
3198.05 214.071
3198.10 144.208
3198.14 110.684
3198.17 86.5939
3198.24 57.0771
3198.30 41.0738
3198.37 31.5986
3198.43 25.5462
3198.50 21.4388
3198.63 16.3505
3198.76 13.4039
3198.90 11.5224
3199.16 9.30534
3199.42 8.06796
3199.69 7.28983
3199.95 6.75962
3200.22 6.37819
3200.74 5.86455
3201.27 5.53713
3201.80 5.31039
3202.33 5.14418
3203.38 4.91495
3204.44 4.76323
3205.49 4.65363
3206.55 4.56951
3208.66 4.44478
3210.77 4.35155
3214.99 4.20306
3219.21 4.06059
3221.33 3.97826
3223.44 3.87812
3225.55 3.74454
3226.60 3.65593
3227.66 3.54409
3228.71 3.39998
3229.24 3.31606
3229.77 3.23545
3230.30 3.20673
3230.56 3.26828
3230.83 3.48410
3231.09 4.12274
3231.22 4.83866
3231.35 6.17497
3231.49 8.88369
3231.55 11.3080
3231.62 15.1248
3231.68 21.4618
3231.75 32.6905
3231.82 54.0852
3231.85 71.7987
3231.88 95.8991
3231.94 161.849
3232.00 214.873
3232.06 183.710
3232.12 123.242
3232.16 92.5455
3232.20 71.5685
3232.24 56.6096
3232.28 46.2791
3232.36 33.0015
3232.44 25.3813
3232.52 20.5138
3232.61 17.2490
3232.77 13.2703
3232.93 10.9758
3233.09 9.53015
3233.41 7.83508
3233.73 6.89009
3234.06 6.29673
3234.38 5.89181
3234.70 5.59916
3235.35 5.20127
3235.99 4.94229
3237.28 4.61527
3238.58 4.40445
3239.87 4.24385
3242.45 3.97452
3243.74 3.84041
3245.03 3.69427
3246.32 3.52699
3247.61 3.33009
3248.90 3.10789
3249.55 3.00910
3250.19 2.97549
3250.52 3.02724
3250.84 3.18480
3251.16 3.55721
3251.49 4.39482
3251.81 6.37559
3251.97 8.32835
3252.13 11.6442
3252.29 17.7035
3252.37 22.6331
3252.45 29.6483
3252.53 40.1970
3252.61 56.1572
3252.70 81.6017
3252.78 121.361
3252.89 208.795
3253.00 280.381
3253.11 241.467
3253.23 163.152
3253.32 113.667
3253.42 82.5287
3253.52 62.8033
3253.62 49.8057
3253.82 34.4693
3254.02 26.1668
3254.21 21.1047
3254.41 17.7987
3254.81 13.8052
3255.20 11.5422
3255.60 10.1109
3255.99 9.13420
3256.39 8.42985
3257.18 7.48725
3257.97 6.89044
3258.76 6.47953
3259.55 6.17958
3261.13 5.77012
3262.71 5.50249
3264.29 5.31189
3265.87 5.16785
3269.03 4.95984
3272.19 4.81075
3278.51 4.58859
3284.84 4.39018
3288.00 4.27737
3291.16 4.13793
3292.74 4.05062
3294.32 3.94468
3295.90 3.81113
3297.48 3.63612
3298.27 3.52658
3299.06 3.39877
3299.85 3.25176
3300.64 3.09537
3301.43 2.98893
3301.83 3.02805
3302.22 3.26815
3302.62 4.07411
3302.81 5.01519
3303.01 6.78426
3303.21 10.3942
3303.31 13.6083
3303.41 18.5571
3303.50 26.7029
3303.60 40.7609
3303.70 66.4940
3303.80 114.534
3303.90 197.409
3304.00 266.699
3304.10 230.783
3304.20 156.199
3304.29 109.985
3304.37 80.8096
3304.46 61.8663
3304.54 49.4110
3304.71 34.4666
3304.88 26.2698
3305.06 21.2728
3305.23 17.9808
3305.57 14.0110
3305.91 11.7459
3306.25 10.3109
3306.59 9.33070
3306.93 8.62528
3307.62 7.67918
3308.30 7.08073
3308.99 6.66895
3309.67 6.36969
3311.04 5.96333
3312.40 5.70023
3313.77 5.51540
3315.14 5.37786
3317.87 5.18519
3320.60 5.05465
3326.07 4.88334
3331.54 4.76907
3337.01 4.68085
3342.48 4.60774
3345.21 4.59282
3345.89 4.60770
3346.58 4.66669
3346.92 4.75477
3347.26 4.99865
3347.43 5.31767
3347.60 6.12386
3347.69 7.09191
3347.73 7.93802
3347.77 9.23217
3347.82 11.4655
3347.86 15.5035
3347.88 19.0690
3347.90 24.1638
3347.92 31.9397
3347.94 44.4797
3347.97 68.0660
3348.00 84.4745
3348.03 68.0909
3348.06 44.5101
3348.08 33.8703
3348.09 26.7647
3348.13 17.9721
3348.16 13.3604
3348.20 10.7195
3348.27 8.01669
3348.34 6.76179
3348.48 5.64800
3348.62 5.19403
3348.89 4.83006
3349.17 4.68913
3349.73 4.57711
3350.29 4.52999
3351.41 4.48217
3352.52 4.45045
3354.75 4.39281
3356.98 4.32543
3359.22 4.23191
3360.33 4.16620
3361.45 4.07746
3362.56 3.94848
3363.12 3.85916
3363.68 3.74540
3364.24 3.60321
3364.51 3.52852
3364.79 3.47565
3365.07 3.52820
3365.21 3.68160
3365.35 4.06468
3365.49 5.03691
3365.56 6.03617
3365.63 7.74791
3365.70 10.9756
3365.74 13.6548
3365.77 17.4530
3365.80 23.3501
3365.84 32.6134
3365.87 47.6336
3365.91 71.4877
3365.95 121.845
3366.00 164.191
3366.05 142.417
3366.09 97.1658
3366.12 75.8255
3366.15 60.3504
3366.20 40.9816
3366.26 30.2436
3366.32 23.7888
3366.37 19.5607
3366.43 16.7278
3366.54 13.1856
3366.65 11.1005
3366.77 9.77411
3366.99 8.19430
3367.22 7.30758
3367.44 6.74757
3367.67 6.36464
3367.89 6.08741
3368.34 5.71425
3368.79 5.47518
3369.69 5.18639
3370.59 5.01627
3371.49 4.90251
3373.29 4.75467
3375.09 4.65652
3376.89 4.58043
3380.49 4.45052
3382.29 4.38432
3384.08 4.30998
3385.88 4.21993
3387.68 4.10162
3388.58 4.02505
3389.48 3.93067
3390.38 3.81084
3391.28 3.65442
3392.18 3.44783
3392.63 3.32715
3393.08 3.21463
3393.53 3.19190
3393.76 3.30686
3393.98 3.67252
3394.21 4.70916
3394.32 5.84844
3394.43 7.90897
3394.54 11.9990
3394.60 15.5241
3394.66 20.9064
3394.71 29.4851
3394.77 43.8559
3394.82 69.1821
3394.88 114.949
3394.94 197.357
3395.00 263.935
3395.06 227.140
3395.12 153.920
3395.16 117.869
3395.20 92.6056
3395.28 61.1455
3395.35 44.0771
3395.43 34.0694
3395.51 27.5730
3395.58 23.1655
3395.74 17.7325
3395.89 14.5613
3396.04 12.5477
3396.35 10.1636
3396.66 8.83181
3396.96 7.99395
3397.27 7.42299
3397.58 7.01216
3398.19 6.45988
3398.80 6.10888
3399.42 5.86715
3400.03 5.69153
3401.26 5.45624
3402.49 5.32043
3403.10 5.29152
3403.71 5.32710
3404.02 5.42056
3404.33 5.70816
3404.48 6.09281
3404.63 7.04990
3404.71 8.17409
3404.79 10.5714
3404.83 13.0172
3404.86 17.2608
3404.90 25.5229
3404.92 32.5838
3404.94 43.4047
3404.97 66.0378
3405.00 81.7493
3405.03 66.0037
3405.06 43.3601
3405.09 28.8604
3405.12 20.8350
3405.14 16.0926
3405.17 13.1394
3405.23 9.83430
3405.29 8.20825
3405.40 6.69914
3405.51 6.05295
3405.74 5.52082
3405.96 5.30871
3406.41 5.13327
3406.87 5.05675
3407.77 4.97880
3408.67 4.93200
3410.48 4.86732
3412.28 4.81924
3415.89 4.74609
3419.50 4.68867
3426.72 4.59021
3430.33 4.54618
3431.23 4.54359
3432.14 4.56561
3432.59 4.61124
3433.04 4.75249
3433.26 4.94729
3433.49 5.45713
3433.60 6.09075
3433.72 7.58328
3433.77 9.23644
3433.83 12.4831
3433.86 15.4212
3433.88 20.1407
3433.91 28.1279
3433.94 42.5566
3433.97 65.0791
3434.00 80.7385
3434.03 65.1336
3434.06 42.6230
3434.09 27.4590
3434.12 19.1623
3434.15 14.4816
3434.18 11.7360
3434.24 8.68007
3434.31 7.20833
3434.43 5.86745
3434.55 5.30167
3434.80 4.84062
3435.04 4.65764
3435.54 4.50619
3436.03 4.43620
3437.01 4.34789
3437.99 4.26317
3438.98 4.15096
3439.47 4.07448
3439.96 3.97672
3440.45 3.85225
3440.70 3.78434
3440.94 3.73086
3441.19 3.75674
3441.31 3.86922
3441.43 4.16864
3441.56 4.94888
3441.62 5.77408
3441.68 7.21113
3441.74 9.98840
3441.77 12.3425
3441.80 15.7262
3441.83 21.1172
3441.86 29.4800
3441.90 43.8878
3441.93 67.6201
3441.96 115.260
3442.00 153.787
3442.04 133.650
3442.07 90.7548
3442.11 61.9078
3442.15 44.2671
3442.19 33.6034
3442.22 26.9623
3442.26 22.3589
3442.29 19.2027
3442.37 15.0827
3442.44 12.6185
3442.51 11.0144
3442.66 9.09547
3442.81 8.00739
3442.95 7.32611
3443.24 6.52627
3443.54 6.07706
3443.83 5.79354
3444.41 5.45667
3445.00 5.26381
3445.58 5.13928
3446.75 4.98705
3447.92 4.89676
3449.09 4.83628
3451.43 4.75869
3453.77 4.70938
3456.10 4.67397
3460.78 4.62373
3465.46 4.58699
3470.13 4.55665
3479.48 4.50331
3488.84 4.44793
3493.51 4.41442
3498.19 4.37179
3502.86 4.31046
3505.20 4.26603
3507.54 4.20397
3509.88 4.10892
3511.05 4.03870
3512.22 3.94161
3513.38 3.79950
3513.97 3.70218
3514.55 3.58215
3515.14 3.44582
3515.43 3.39028
3515.72 3.38790
3516.01 3.57438
3516.16 3.87037
3516.31 4.51450
3516.45 5.99172
3516.53 7.42516
3516.60 9.82352
3516.67 14.0898
3516.74 22.3195
3516.78 29.4708
3516.82 39.8827
3516.85 56.2619
3516.89 80.8388
3516.95 137.909
3517.00 185.642
3517.06 160.749
3517.11 109.365
3517.17 72.7824
3517.22 51.4559
3517.28 38.5248
3517.34 30.5212
3517.39 25.0900
3517.45 21.3603
3517.56 16.5575
3517.67 13.7053
3517.79 11.8563
3518.01 9.65140
3518.24 8.41043
3518.47 7.62760
3518.69 7.09391
3518.92 6.70909
3519.37 6.19462
3519.82 5.86855
3520.27 5.64443
3520.72 5.48160
3521.63 5.26032
3522.53 5.11745
3523.44 5.01756
3524.34 4.94376
3526.15 4.84146
3527.95 4.77358
3529.76 4.72484
3531.57 4.68784
3535.18 4.63458
3538.80 4.59725
3546.03 4.54605
3553.26 4.51028
3560.48 4.48230
3567.71 4.46106
3571.33 4.46339
3572.23 4.47472
3573.14 4.51144
3573.59 4.56378
3574.04 4.70881
3574.27 4.90075
3574.49 5.39956
3574.60 6.01632
3574.72 7.47345
3574.77 9.09667
3574.83 12.3110
3574.86 15.2464
3574.89 20.0070
3574.91 28.1696
3574.94 42.9524
3574.97 65.8237
3575.00 81.5142
3575.03 65.8470
3575.06 42.9813
3575.08 32.9128
3575.09 26.0385
3575.13 17.6877
3575.16 13.2289
3575.19 10.6437
3575.26 7.96809
3575.33 6.70047
3575.47 5.58262
3575.60 5.12660
3575.88 4.76240
3576.15 4.62386
3576.69 4.51806
3577.24 4.47836
3579.42 4.43380
3583.78 4.41089
3592.50 4.38203
3601.22 4.35452
3605.58 4.34547
3607.76 4.36435
3608.31 4.38985
3608.85 4.46382
3609.13 4.56438
3609.40 4.83040
3609.54 5.17008
3609.67 5.99442
3609.74 6.93724
3609.81 8.93634
3609.84 10.8769
3609.88 14.2401
3609.91 20.5818
3609.93 25.8331
3609.94 33.4023
3609.97 51.0912
3610.00 62.5080
3610.03 51.1072
3610.06 33.4225
3610.08 22.5408
3610.11 16.3670
3610.14 12.7290
3610.17 10.4692
3610.22 7.94645
3610.27 6.71042
3610.38 5.56736
3610.49 5.08100
3610.71 4.68539
3610.93 4.53170
3611.36 4.41329
3611.80 4.36846
3613.54 4.31701
3617.03 4.28715
3620.51 4.26265
3623.99 4.23324
3627.48 4.19233
3629.22 4.16348
3630.96 4.12398
3632.70 4.06454
3633.57 4.02100
3634.45 3.96081
3635.32 3.87190
3636.19 3.73049
3636.62 3.63209
3637.06 3.54965
3637.28 3.59946
3637.39 3.72110
3637.49 4.01875
3637.60 4.75865
3637.66 5.52251
3637.71 6.82640
3637.77 9.30207
3637.82 14.2798
3637.85 18.7573
3637.88 25.7844
3637.90 37.1830
3637.93 56.5739
3637.95 73.8790
3637.97 95.7234
3638.00 127.977
3638.02 124.922
3638.04 110.937
3638.07 75.6180
3638.11 51.2592
3638.14 36.7370
3638.18 27.9842
3638.21 22.4207
3638.25 18.6910
3638.28 16.0726
3638.35 12.7226
3638.42 10.7263
3638.49 9.42982
3638.63 7.89006
3638.77 7.01539
3638.91 6.46411
3639.19 5.81975
3639.47 5.45774
3639.75 5.22923
3640.31 4.95755
3640.86 4.80178
3641.42 4.70101
3642.54 4.57729
3643.66 4.50320
3644.77 4.45287
3647.01 4.38647
3649.24 4.34229
3651.48 4.31075
3653.71 4.30408
3654.27 4.32198
3654.83 4.38472
3655.11 4.47521
3655.39 4.72054
3655.53 5.03625
3655.67 5.80810
3655.74 6.70580
3655.81 8.63916
3655.84 10.5481
3655.88 13.9194
3655.91 20.4546
3655.93 25.8174
3655.94 33.8382
3655.97 51.3830
3656.00 63.4988
3656.03 51.4168
3656.06 33.8796
3656.08 23.7376
3656.10 17.7105
3656.13 13.8193
3656.15 11.4217
3656.20 8.61489
3656.24 7.18460
3656.34 5.81292
3656.43 5.21169
3656.61 4.71168
3656.80 4.51339
3657.17 4.35732
3657.54 4.29605
3659.03 4.21820
3662.01 4.15736
3664.99 4.09916
3667.97 4.02542
3669.45 3.97780
3670.94 3.91864
3672.43 3.84203
3673.92 3.73764
3675.41 3.58538
3676.15 3.48006
3676.90 3.34661
3677.64 3.18238
3678.02 3.09901
3678.39 3.04623
3678.76 3.12934
3678.95 3.32956
3679.13 3.81638
3679.32 5.01762
3679.41 6.23504
3679.50 8.33837
3679.60 12.2196
3679.64 15.4534
3679.69 20.0652
3679.74 27.1573
3679.78 37.9570
3679.83 55.6657
3679.88 83.6723
3679.94 144.125
3680.00 193.666
3680.06 167.249
3680.13 113.751
3680.17 83.7785
3680.22 63.8825
3680.26 50.3856
3680.31 41.0104
3680.40 29.3495
3680.49 22.6937
3680.59 18.4999
3680.68 15.7291
3680.86 12.3330
3681.05 10.3719
3681.23 9.12984
3681.42 8.27839
3681.60 7.66273
3681.97 6.83646
3682.34 6.31259
3682.71 5.95202
3683.08 5.68930
3683.81 5.32842
3684.55 5.08951
3685.29 4.91443
3686.03 4.77558
3687.50 4.54624
3688.98 4.31247
3689.71 4.16258
3690.45 3.96711
3690.82 3.86291
3691.00 3.83250
3691.19 3.86268
3691.37 4.08722
3691.46 4.39588
3691.56 5.03007
3691.65 6.41917
3691.69 7.72612
3691.74 9.86043
3691.79 13.5499
3691.83 20.4104
3691.86 26.0819
3691.88 34.3237
3691.90 46.4996
3691.92 64.7450
3691.96 109.384
3692.00 146.801
3692.02 143.574
3692.04 127.021
3692.08 86.7412
3692.10 65.0155
3692.13 50.2210
3692.16 39.7658
3692.19 32.7495
3692.24 23.8191
3692.29 18.7919
3692.35 15.5828
3692.40 13.4716
3692.51 10.8546
3692.62 9.35043
3692.73 8.39228
3692.95 7.26235
3693.17 6.62643
3693.39 6.22594
3693.82 5.75048
3694.26 5.47791
3694.69 5.30140
3695.57 5.08369
3696.44 4.95253
3697.31 4.86319
3699.06 4.74620
3700.80 4.67019
3702.55 4.61510
3706.04 4.53724
3709.53 4.48189
3713.02 4.43827
3720.01 4.36849
3733.97 4.24983
3740.95 4.18962
3744.44 4.17571
3745.32 4.19022
3746.19 4.24878
3746.63 4.33716
3747.06 4.58481
3747.28 4.91147
3747.50 5.74853
3747.61 6.76248
3747.66 7.66832
3747.72 9.08555
3747.77 11.5799
3747.83 16.2900
3747.85 20.5695
3747.88 26.9832
3747.91 37.2636
3747.94 53.9100
3747.97 84.3028
3748.00 103.764
3748.03 83.3666
3748.07 53.9658
3748.10 35.9102
3748.12 25.6083
3748.15 19.3590
3748.18 15.3918
3748.24 10.9230
3748.30 8.63456
3748.36 7.32060
3748.41 6.50058
3748.53 5.57603
3748.76 4.81363
3748.99 4.51356
3749.46 4.27869
3749.92 4.18757
3750.85 4.11080
3751.78 4.07332
3755.50 3.98241
3759.21 3.88906
3762.93 3.76424
3764.78 3.68147
3766.64 3.57749
3768.50 3.44237
3770.36 3.25986
3771.29 3.14289
3772.22 3.00323
3773.14 2.83731
3774.07 2.64939
3775.00 2.48463
3775.47 2.47460
3775.93 2.63998
3776.40 3.32901
3776.63 4.18443
3776.86 5.86065
3776.98 7.28053
3777.09 9.38405
3777.21 12.6017
3777.32 17.7282
3777.44 26.3259
3777.56 41.6891
3777.61 53.9344
3777.67 71.1679
3777.73 95.6951
3777.79 130.456
3777.89 225.781
3778.00 304.387
3778.11 262.798
3778.21 177.819
3778.32 118.953
3778.42 84.1377
3778.53 62.7841
3778.63 49.2647
3778.74 40.0728
3778.84 33.6608
3779.05 25.4124
3779.26 20.4512
3779.47 17.2225
3779.88 13.3666
3780.30 11.1844
3780.72 9.80897
3781.14 8.86990
3781.55 8.19201
3782.39 7.28353
3783.22 6.70722
3784.06 6.30942
3784.89 6.01905
3786.56 5.62160
3788.23 5.36043
3789.90 5.17244
3791.57 5.02706
3794.91 4.80125
3798.24 4.59393
3799.91 4.46515
3800.75 4.38212
3801.58 4.27535
3802.42 4.12652
3802.84 4.02661
3803.25 3.90236
3803.67 3.75363
3803.88 3.68169
3804.09 3.64382
3804.30 3.74326
3804.40 3.94688
3804.50 4.42082
3804.61 5.56673
3804.66 6.69255
3804.71 8.59494
3804.77 12.0055
3804.79 14.7372
3804.82 18.6233
3804.84 24.2965
3804.87 32.7997
3804.90 45.8191
3804.92 65.8815
3804.96 113.397
3805.00 152.560
3805.04 133.637
3805.08 91.3530
3805.11 65.1070
3805.15 48.3785
3805.18 37.6391
3805.22 30.4886
3805.28 21.9574
3805.35 17.2672
3805.42 14.4009
3805.49 12.5080
3805.62 10.2128
3805.76 8.89483
3805.90 8.06360
3806.17 7.08055
3806.44 6.52432
3806.71 6.17141
3807.26 5.74919
3807.80 5.50507
3808.35 5.34585
3809.44 5.14807
3810.52 5.02790
3811.61 4.94538
3813.79 4.83588
3815.97 4.76333
3818.15 4.70962
3822.50 4.63151
3826.86 4.57437
3831.22 4.53002
3835.57 4.50562
3836.66 4.51325
3837.75 4.55209
3838.30 4.61309
3838.84 4.78669
3839.11 5.01947
3839.39 5.62371
3839.52 6.36981
3839.59 7.03994
3839.66 8.12713
3839.73 10.0541
3839.79 13.9205
3839.83 17.4519
3839.86 23.1783
3839.90 32.9893
3839.93 50.2314
3839.97 77.7315
3840.00 96.0757
3840.04 77.7278
3840.07 50.2268
3840.11 31.1724
3840.15 21.1743
3840.19 15.6900
3840.23 12.4527
3840.30 9.04875
3840.38 7.41339
3840.46 6.51089
3840.54 5.96252
3840.69 5.36214
3841.00 4.87803
3841.32 4.69135
3841.94 4.54682
3842.56 4.49078
3843.81 4.44300
3845.05 4.41924
3850.03 4.36386
3855.01 4.31567
3859.99 4.26111
3864.97 4.18980
3867.46 4.14134
3869.95 4.07626
3872.44 3.97950
3873.68 3.90886
3874.93 3.81107
3876.17 3.66508
3876.79 3.56138
3877.42 3.42582
3878.04 3.24792
3878.35 3.14608
3878.66 3.05505
3878.97 3.05168
3879.13 3.16745
3879.28 3.50712
3879.44 4.43874
3879.52 5.43322
3879.59 7.18166
3879.67 10.5578
3879.71 13.4158
3879.75 17.6813
3879.79 24.2810
3879.83 34.9078
3879.87 52.6729
3879.90 81.9732
3879.95 140.805
3880.00 190.569
3880.05 165.591
3880.10 112.919
3880.14 76.3225
3880.19 54.1519
3880.24 40.7794
3880.29 32.4171
3880.33 26.6652
3880.38 22.6270
3880.48 17.4983
3880.57 14.3993
3880.67 12.4025
3880.86 9.99572
3881.05 8.63515
3881.24 7.77421
3881.43 7.18585
3881.62 6.76267
3882.00 6.19222
3882.39 5.83045
3882.77 5.58037
3883.15 5.39829
3883.91 5.15002
3884.67 4.98866
3886.20 4.79017
3887.73 4.67102
3889.25 4.58996
3892.30 4.48287
3895.36 4.41088
3898.41 4.35532
3904.51 4.26524
3910.62 4.18297
3916.72 4.09534
3922.83 3.99487
3925.88 3.96009
3926.64 3.97473
3927.40 4.04791
3927.79 4.16265
3928.17 4.48455
3928.36 4.90518
3928.55 5.95838
3928.64 7.20426
3928.74 9.90571
3928.79 12.6532
3928.83 17.4933
3928.86 21.5209
3928.88 27.3809
3928.91 36.0942
3928.93 48.8997
3928.97 76.0595
3929.00 94.0556
3929.04 76.1115
3929.07 48.9637
3929.11 31.7209
3929.14 21.9744
3929.18 16.3502
3929.21 12.9885
3929.28 9.24487
3929.35 7.37980
3929.49 5.67666
3929.62 4.95032
3929.90 4.35501
3930.18 4.11888
3930.73 3.92675
3931.28 3.84304
3932.38 3.75305
3933.49 3.68852
3935.70 3.56261
3937.90 3.41029
3939.01 3.31724
3940.11 3.20987
3941.22 3.08775
3942.32 2.95967
3943.42 2.87629
3943.98 2.91352
3944.53 3.12083
3945.08 3.80654
3945.36 4.60306
3945.63 6.11146
3945.91 9.19094
3946.05 11.9483
3946.18 16.2763
3946.32 23.4143
3946.46 35.9145
3946.60 59.2891
3946.67 78.3072
3946.74 104.794
3946.87 179.151
3947.00 240.362
3947.13 207.150
3947.26 139.804
3947.38 97.4839
3947.50 71.0165
3947.61 54.1827
3947.73 43.0574
3947.96 29.8939
3948.19 22.7240
3948.42 18.3592
3948.65 15.5086
3949.11 12.0753
3949.57 10.1262
3950.03 8.89622
3950.49 8.05470
3950.95 7.44849
3951.87 6.63476
3952.79 6.11544
3953.71 5.75427
3954.63 5.48680
3956.47 5.11049
3958.32 4.84809
3962.00 4.46544
3965.68 4.12685
3967.53 3.93669
3969.37 3.70942
3970.29 3.57451
3971.21 3.42133
3972.13 3.24956
3973.05 3.07146
3973.97 2.95583
3974.43 3.00459
3974.89 3.27788
3975.36 4.17098
3975.59 5.18830
3975.82 7.07526
3976.05 10.8094
3976.16 14.0491
3976.28 18.9780
3976.39 26.7736
3976.51 39.6629
3976.62 61.9306
3976.74 101.161
3976.87 176.026
3977.00 239.275
3977.13 208.609
3977.27 142.572
3977.35 111.634
3977.42 89.1031
3977.58 60.3966
3977.74 44.3029
3977.90 34.5505
3978.06 28.2150
3978.22 23.8597
3978.54 18.4016
3978.85 15.1817
3979.17 13.1031
3979.81 10.6276
3980.44 9.22503
3981.08 8.33514
3981.71 7.72241
3982.35 7.27746
3983.62 6.67446
3984.89 6.28542
3986.16 6.01323
3987.43 5.81158
3989.98 5.53113
3992.52 5.34341
3997.60 5.10265
4002.69 4.94927
4007.77 4.83833
4012.85 4.75436
4015.40 4.74077
4016.03 4.75906
4016.67 4.82765
4016.98 4.92817
4017.30 5.20224
4017.46 5.55513
4017.62 6.42671
4017.70 7.44434
4017.78 9.60509
4017.82 11.7608
4017.86 15.4484
4017.90 22.7287
4017.92 28.9125
4017.94 37.7114
4017.97 57.3006
4018.00 70.8341
4018.03 57.3702
4018.06 37.7973
4018.09 25.3070
4018.13 18.1715
4018.16 14.0228
4018.19 11.4717
4018.25 8.68551
4018.31 7.29957
4018.44 6.03606
4018.56 5.49839
4018.81 5.05942
4019.06 4.88694
4019.55 4.75009
4020.05 4.69432
4022.03 4.61147
4026.00 4.51302
4027.98 4.44845
4029.96 4.34658
4030.95 4.26211
4031.94 4.12530
4032.44 4.02177
4032.93 3.89886
4033.18 3.87219
4033.43 4.05433
4033.55 4.47889
4033.62 4.94658
4033.68 5.79769
4033.74 7.45230
4033.80 11.0023
4033.83 14.3353
4033.86 19.7647
4033.90 28.9712
4033.93 44.7670
4033.96 75.6449
4034.00 101.758
4034.04 89.1111
4034.07 61.6171
4034.12 40.7845
4034.16 29.0190
4034.20 22.1935
4034.24 17.9641
4034.32 13.2397
4034.40 10.8085
4034.48 9.34765
4034.56 8.41142
4034.73 7.28323
4034.89 6.64483
4035.05 6.23980
4035.38 5.76078
4035.71 5.48957
4036.03 5.31589
4036.68 5.10661
4037.34 4.98439
4037.99 4.90382
4039.29 4.80225
4040.60 4.73898
4041.90 4.69437
4044.51 4.63256
4047.12 4.58916
4049.73 4.55665
4052.34 4.54352
4053.64 4.59777
4053.97 4.66203
4054.29 4.83996
4054.46 5.07155
4054.62 5.65453
4054.70 6.35168
4054.78 7.88291
4054.82 9.47076
4054.86 12.4137
4054.88 14.9582
4054.90 18.5649
4054.92 24.0248
4054.94 32.5049
4054.97 49.1741
4055.00 60.5027
4055.03 49.1974
4055.06 32.5336
4055.09 21.3069
4055.11 15.2788
4055.14 11.8655
4055.17 9.80488
4055.23 7.59267
4055.29 6.50932
4055.41 5.52865
4055.52 5.12055
4055.75 4.78890
4055.99 4.66044
4056.45 4.55965
4056.92 4.51967
4058.78 4.46602
4062.50 4.42221
4066.22 4.39406
4068.08 4.41439
4068.54 4.44889
4069.01 4.55072
4069.24 4.68827
4069.47 5.04414
4069.59 5.48535
4069.70 6.50640
4069.76 7.60949
4069.82 9.78050
4069.85 11.7223
4069.88 14.8026
4069.91 19.9236
4069.94 28.5910
4069.97 43.1565
4070.00 52.8770
4070.03 43.1723
4070.06 28.6104
4070.10 18.8538
4070.13 13.6953
4070.16 10.7575
4070.20 8.97606
4070.26 7.05509
4070.33 6.11033
4070.46 5.25649
4070.59 4.89578
4070.86 4.60282
4071.12 4.48820
4071.65 4.39747
4072.18 4.36043
4074.29 4.30523
4078.51 4.24490
4082.74 4.18203
4086.96 4.10462
4091.19 3.99850
4093.30 3.92548
4095.41 3.82817
4097.52 3.68753
4098.58 3.58918
4099.64 3.46018
4100.69 3.28665
4101.22 3.18060
4101.75 3.07051
4102.28 3.00408
4102.54 3.04457
4102.80 3.24092
4103.07 3.86835
4103.20 4.58436
4103.33 5.92048
4103.46 8.59557
4103.53 10.9466
4103.60 14.5706
4103.66 20.4058
4103.73 30.2925
4103.79 47.9514
4103.86 80.3662
4103.93 137.776
4104.00 185.809
4104.07 161.291
4104.14 109.775
4104.22 69.1917
4104.30 47.3733
4104.38 34.9799
4104.47 27.4089
4104.55 22.4671
4104.63 19.0608
4104.79 14.7752
4104.95 12.2443
4105.11 10.6241
4105.44 8.69629
4105.76 7.60765
4106.09 6.92112
4106.41 6.45081
4106.74 6.10977
4107.38 5.64905
4108.03 5.35322
4108.68 5.14607
4109.33 4.99253
4110.63 4.77696
4111.92 4.62975
4114.52 4.43084
4117.11 4.28939
4119.71 4.17091
4124.90 3.94540
4130.08 3.67564
4132.68 3.49888
4135.27 3.27209
4136.57 3.13154
4137.87 2.96753
4139.17 2.77702
4140.46 2.56611
4141.76 2.38682
4142.41 2.37782
4143.06 2.55570
4143.71 3.27280
4144.03 4.14299
4144.35 5.81033
4144.68 9.22294
4144.84 12.2416
4145.00 16.9138
4145.16 24.4535
4145.33 37.2313
4145.49 60.0041
4145.65 101.636
4145.83 177.011
4146.00 241.355
4146.18 210.990
4146.35 144.135
4146.46 110.976
4146.58 87.0776
4146.80 57.7367
4147.03 41.7795
4147.25 32.2936
4147.48 26.2059
4147.71 22.0536
4148.16 16.8787
4148.61 13.8397
4149.06 11.8796
4149.96 9.52177
4150.87 8.16067
4151.77 7.26811
4153.58 6.11927
4155.38 5.31770
4156.29 4.95721
4157.19 4.59913
4158.09 4.25804
4158.55 4.13470
4159.00 4.13518
4159.45 4.52559
4159.67 5.11706
4159.90 6.35477
4160.13 9.09817
4160.24 11.6779
4160.35 15.8716
4160.46 23.0577
4160.58 36.2214
4160.63 47.0474
4160.69 62.2734
4160.75 84.2910
4160.80 116.029
4160.90 200.359
4161.00 271.673
4161.10 236.264
4161.20 160.844
4161.31 104.027
4161.42 72.0483
4161.53 53.4884
4161.63 41.9830
4161.74 34.3957
4161.85 29.1263
4162.07 22.4681
4162.29 18.5018
4162.50 15.9396
4162.94 12.8619
4163.38 11.1106
4163.81 9.99661
4164.25 9.22761
4164.68 8.66571
4165.55 7.89852
4166.42 7.39854
4167.29 7.04411
4168.16 6.77868
4169.90 6.40328
4171.64 6.14707
4175.13 5.81235
4178.61 5.59712
4182.09 5.44304
4189.05 5.22832
4196.02 5.07245
4202.98 4.92903
4206.46 4.84276
4208.20 4.78786
4209.94 4.71684
4211.68 4.61474
4212.56 4.54194
4213.43 4.44328
4214.30 4.30054
4214.73 4.20327
4215.17 4.08239
4215.60 3.94134
4216.04 3.85591
4216.25 3.98957
4216.36 4.22530
4216.47 4.74321
4216.58 5.94218
4216.64 7.11003
4216.69 9.00345
4216.74 12.3641
4216.80 18.5110
4216.83 23.5598
4216.85 30.8412
4216.88 41.4937
4216.91 57.6021
4216.95 98.3949
4217.00 134.274
4217.05 117.727
4217.09 81.6456
4217.12 64.2201
4217.15 51.3836
4217.21 35.5545
4217.27 26.6007
4217.32 21.2999
4217.38 17.8057
4217.44 15.4500
4217.55 12.4643
4217.67 10.7108
4217.78 9.57840
4218.01 8.22689
4218.24 7.46173
4218.47 6.97518
4218.93 6.39836
4219.39 6.06910
4219.85 5.85732
4220.77 5.60107
4221.69 5.45073
4222.61 5.35130
4224.45 5.22590
4226.29 5.14824
4228.13 5.09397
4231.80 5.02035
4235.48 4.97016
4239.16 4.93207
4246.51 4.87507
4253.87 4.83214
4261.22 4.79764
4268.58 4.77257
4272.26 4.78029
4273.18 4.79885
4274.10 4.85623
4274.56 4.93647
4275.01 5.15502
4275.24 5.44104
4275.47 6.17295
4275.59 7.06178
4275.70 9.11019
4275.76 11.3258
4275.82 15.5570
4275.85 19.3557
4275.88 25.0709
4275.91 34.7023
4275.93 50.6503
4275.97 78.2067
4276.00 96.4790
4276.03 78.1606
4276.07 50.5928
4276.10 34.2276
4276.13 24.7702
4276.15 18.9953
4276.18 15.3117
4276.24 11.0946
4276.30 8.97402
4276.42 6.97672
4276.53 6.11861
4276.77 5.40618
4277.00 5.12906
4277.47 4.91525
4277.93 4.83545
4278.87 4.77437
4279.80 4.75046
4283.53 4.71761
4291.00 4.68846
4298.47 4.66686
4302.20 4.66982
4304.07 4.72500
4304.54 4.78540
4305.00 4.95232
4305.24 5.17384
4305.47 5.74431
4305.59 6.44772
4305.70 8.07281
4305.76 9.86758
4305.82 13.3621
4305.85 16.4944
4305.88 21.4755
4305.91 29.7896
4305.94 44.3922
4305.97 68.0231
4306.00 84.2921
4306.03 68.1146
4306.06 44.5058
4306.10 27.1396
4306.14 18.3524
4306.18 13.6985
4306.22 11.0162
4306.29 8.25545
4306.37 6.95392
4306.52 5.81513
4306.67 5.34697
4306.98 4.97458
4307.28 4.83246
4307.89 4.72335
4308.49 4.68190
4310.92 4.63337
4315.78 4.60365
4320.64 4.57965
4325.49 4.55211
4330.35 4.51543
4332.78 4.49025
4335.21 4.45627
4337.64 4.40544
4340.06 4.31584
4341.28 4.23631
4342.49 4.09973
4343.10 3.98864
4343.71 3.83363
4344.01 3.75808
4344.31 3.80803
4344.47 4.07397
4344.54 4.40732
4344.62 5.05801
4344.69 6.40878
4344.77 9.52534
4344.81 12.6387
4344.85 18.0089
4344.88 27.7967
4344.90 35.5622
4344.92 45.6508
4344.96 77.9526
4345.00 104.937
4345.04 92.4353
4345.08 63.8681
4345.11 47.6743
4345.14 36.7991
4345.17 29.4718
4345.20 24.4094
4345.26 18.1435
4345.32 14.5791
4345.38 12.3246
4345.44 10.8442
4345.56 9.02526
4345.68 7.96825
4345.80 7.29839
4346.04 6.50072
4346.28 6.05093
4346.52 5.76507
4347.01 5.42512
4347.49 5.23092
4347.97 5.10549
4348.93 4.95280
4349.90 4.86236
4350.86 4.80178
4352.79 4.72355
4356.64 4.63357
4360.50 4.56964
4364.35 4.50341
4366.28 4.46165
4368.21 4.40666
4370.14 4.32526
4371.10 4.26581
4372.06 4.18358
4373.03 4.06138
4373.51 3.97554
4373.99 3.86524
4374.47 3.72602
4374.95 3.59842
4375.19 3.64501
4375.32 3.78973
4375.44 4.15290
4375.56 5.07471
4375.62 6.00840
4375.68 7.62124
4375.74 10.5870
4375.80 16.5315
4375.83 21.7810
4375.86 29.8634
4375.89 42.6455
4375.92 62.9696
4375.96 107.656
4376.00 145.510
4376.04 126.996
4376.08 87.1429
4376.13 55.7008
4376.18 38.5536
4376.23 28.8337
4376.28 22.9994
4376.33 19.0985
4376.38 16.4587
4376.47 13.0871
4376.57 11.0993
4376.67 9.81428
4376.86 8.28200
4377.06 7.41367
4377.25 6.86699
4377.64 6.22128
4378.03 5.85572
4378.42 5.62300
4379.19 5.34405
4379.97 5.18285
4380.74 5.07797
4382.30 4.94886
4383.85 4.87172
4385.40 4.81987
4388.51 4.75334
4391.62 4.71181
4394.72 4.68541
4397.83 4.68790
4398.61 4.71035
4399.38 4.78271
4399.77 4.88509
4400.16 5.16396
4400.35 5.52600
4400.55 6.44009
4400.65 7.53016
4400.74 9.97660
4400.79 12.5455
4400.84 17.2499
4400.86 21.4203
4400.89 27.4689
4400.91 36.8178
4400.94 51.9440
4400.97 79.9904
4401.00 99.3556
4401.03 80.0336
4401.06 51.9975
4401.09 37.8530
4401.11 28.7998
4401.13 22.5218
4401.15 18.4443
4401.20 13.3958
4401.24 10.6846
4401.33 7.94755
4401.42 6.72113
4401.60 5.67043
4401.78 5.24997
4402.14 4.91801
4402.49 4.79242
4403.21 4.69565
4403.92 4.65794
4406.78 4.60872
4412.50 4.57123
4418.22 4.54744
4421.08 4.56435
4421.79 4.59422
4422.50 4.68433
4422.86 4.80924
4423.22 5.14499
4423.40 5.57729
4423.58 6.64408
4423.67 7.90644
4423.76 10.6345
4423.80 13.4043
4423.84 18.2624
4423.87 22.4061
4423.89 28.1564
4423.91 36.6043
4423.93 49.3982
4423.97 76.5220
4424.00 94.3351
4424.03 76.5873
4424.07 49.4802
4424.10 33.6277
4424.13 24.3197
4424.15 18.6246
4424.18 14.9868
4424.24 10.8651
4424.30 8.74324
4424.42 6.74586
4424.53 5.88774
4424.77 5.17625
4425.00 4.89697
4425.46 4.68037
4425.93 4.59796
4426.86 4.53248
4427.79 4.50427
4431.52 4.45192
4435.25 4.40837
4438.98 4.35291
4442.70 4.27004
4444.57 4.20853
4446.43 4.12183
4448.30 3.98873
4449.23 3.89109
4450.16 3.75789
4451.09 3.56861
4451.56 3.44474
4452.02 3.30183
4452.49 3.16908
4452.72 3.14907
4452.96 3.24639
4453.19 3.69692
4453.31 4.27209
4453.42 5.39524
4453.54 7.77575
4453.60 9.92238
4453.65 13.3129
4453.71 18.9259
4453.77 28.7625
4453.80 36.4551
4453.83 47.0994
4453.86 61.9529
4453.89 82.5697
4453.94 142.446
4454.00 193.257
4454.06 168.620
4454.11 115.294
4454.18 75.7639
4454.24 53.3697
4454.30 40.0882
4454.36 31.7298
4454.42 26.0831
4454.48 22.2074
4454.60 17.2547
4454.72 14.2818
4454.84 12.3658
4455.08 10.0676
4455.32 8.76070
4455.56 7.93272
4455.80 7.36605
4456.04 6.95748
4456.52 6.40627
4457.00 6.05571
4457.49 5.81307
4457.97 5.63608
4458.93 5.39451
4459.89 5.23735
4460.86 5.12656
4461.82 5.04387
4463.74 4.92746
4465.67 4.84764
4469.52 4.73839
4473.37 4.65402
4477.22 4.56103
4479.15 4.49379
4481.08 4.38353
4482.04 4.28964
4483.00 4.13432
4483.48 4.01464
4483.97 3.86833
4484.21 3.82976
4484.45 4.01628
4484.57 4.47886
4484.63 4.99042
4484.69 5.92430
4484.75 7.74208
4484.81 11.6383
4484.84 15.2879
4484.87 21.2164
4484.90 31.2319
4484.93 48.7940
4484.95 64.5789
4484.96 83.2121
4485.00 112.113
4485.04 98.5347
4485.07 68.0308
4485.12 43.9271
4485.16 30.6675
4485.20 23.1947
4485.24 18.6522
4485.29 15.6954
4485.33 13.6601
4485.42 11.1007
4485.50 9.59539
4485.59 8.62316
4485.76 7.46882
4485.93 6.81195
4486.10 6.39744
4486.45 5.90491
4486.79 5.62506
4487.13 5.44638
4487.82 5.23124
4488.51 5.10611
4489.19 5.02419
4490.56 4.92239
4491.94 4.86079
4493.31 4.81879
4496.06 4.76382
4498.80 4.72813
4501.55 4.70217
4507.04 4.66521
4512.53 4.63861
4518.02 4.61744
4529.01 4.58357
4550.97 4.52877
4561.96 4.50285
4567.45 4.49369
4570.19 4.50788
4571.57 4.58837
4571.91 4.67077
4572.25 4.89268
4572.43 5.17941
4572.60 5.89140
4572.68 6.73471
4572.77 8.60037
4572.81 10.5003
4572.85 13.9786
4572.88 16.9442
4572.90 21.1071
4572.92 27.3196
4572.94 36.7461
4572.97 56.3470
4573.00 69.0250
4573.03 56.3857
4573.06 36.7948
4573.08 27.7299
4573.10 21.3919
4573.14 14.2391
4573.19 10.7057
4573.23 8.76020
4573.31 6.83615
4573.40 5.96788
4573.56 5.21669
4573.73 4.91607
4574.07 4.67918
4574.40 4.58961
4575.74 4.49455
4578.42 4.46132
4583.77 4.43455
4589.13 4.40824
4594.48 4.37469
4599.84 4.32580
4602.52 4.29010
4605.19 4.23992
4607.87 4.16212
4609.21 4.10368
4610.55 4.02117
4611.89 3.89518
4612.56 3.80377
4613.23 3.68151
4613.90 3.51407
4614.56 3.30466
4614.90 3.24307
4615.07 3.28692
4615.23 3.48615
4615.40 4.11501
4615.49 4.82585
4615.57 6.11909
4615.65 8.69442
4615.69 10.9263
4615.74 14.2201
4615.78 19.5231
4615.82 28.2746
4615.86 43.3576
4615.90 69.7661
4615.95 119.530
4616.00 162.855
4616.03 159.738
4616.05 141.927
4616.10 97.6171
4616.13 73.9816
4616.16 57.8103
4616.20 46.4864
4616.23 38.4177
4616.30 28.1091
4616.36 22.0677
4616.43 18.2271
4616.49 15.6251
4616.63 12.3996
4616.76 10.5143
4616.89 9.31551
4617.16 7.89190
4617.42 7.08694
4617.68 6.57869
4618.21 5.97653
4618.74 5.63419
4619.27 5.41479
4620.33 5.15081
4621.39 4.99741
4622.44 4.89704
4624.56 4.77266
4626.67 4.69748
4628.79 4.64613
4633.02 4.57814
4637.25 4.53251
4641.47 4.49852
4645.70 4.48121
4647.82 4.52468
4648.35 4.58030
4648.88 4.73877
4649.14 4.95193
4649.41 5.50725
4649.54 6.19536
4649.67 7.82253
4649.74 9.61410
4649.80 13.2261
4649.83 16.5415
4649.87 21.9450
4649.90 31.2682
4649.93 47.8673
4649.97 74.3681
4650.00 91.4581
4650.03 74.4652
4650.07 47.9896
4650.10 33.3247
4650.12 24.3384
4650.15 18.7465
4650.18 15.1297
4650.24 10.9305
4650.29 8.79313
4650.41 6.75790
4650.52 5.86976
4650.74 5.13419
4650.97 4.84507
4651.42 4.61915
4651.87 4.53291
4652.77 4.46437
4653.68 4.43514
4657.28 4.38439
4664.50 4.31120
4668.11 4.26736
4671.72 4.21391
4675.33 4.15606
4676.23 4.15207
4677.13 4.18187
4677.58 4.24422
4678.03 4.43749
4678.26 4.70305
4678.49 5.39330
4678.60 6.24353
4678.71 8.22063
4678.77 10.3766
4678.82 14.5276
4678.85 18.2050
4678.88 23.9821
4678.91 33.4643
4678.94 49.5628
4678.97 76.7292
4679.00 95.1661
4679.03 76.7809
4679.06 49.6255
4679.09 36.2732
4679.11 27.1928
4679.13 21.2106
4679.16 17.1676
4679.20 12.3208
4679.25 9.68722
4679.34 7.11020
4679.43 5.94676
4679.62 4.95758
4679.80 4.55702
4680.17 4.23402
4680.54 4.10109
4681.27 3.97527
4682.01 3.89849
4683.48 3.76242
4684.95 3.59802
4686.42 3.36659
4687.16 3.21093
4687.89 3.02170
4688.63 2.81312
4689.00 2.73426
4689.37 2.74728
4689.73 3.07117
4689.92 3.55676
4690.10 4.58227
4690.29 6.85801
4690.38 9.00296
4690.47 12.4927
4690.56 18.4702
4690.65 29.3945
4690.70 38.2562
4690.75 50.8995
4690.79 69.1587
4690.84 94.7473
4690.92 164.616
4691.00 224.322
4691.08 196.314
4691.16 134.408
4691.24 92.2536
4691.32 66.7027
4691.40 50.7967
4691.47 40.4386
4691.63 28.2755
4691.78 21.7576
4691.94 17.7888
4692.09 15.2004
4692.40 12.0633
4692.71 10.2766
4693.02 9.14054
4693.33 8.36152
4693.64 7.79731
4694.25 7.03940
4694.87 6.55667
4695.49 6.22368
4696.11 5.98099
4697.34 5.65047
4698.58 5.43649
4699.82 5.28665
4701.05 5.17589
4703.52 5.02304
4705.99 4.92512
4708.46 4.87861
4709.08 4.89145
4709.70 4.95524
4710.01 5.05285
4710.32 5.32245
4710.47 5.67018
4710.63 6.51826
4710.70 7.48933
4710.78 9.54766
4710.82 11.5772
4710.86 14.9992
4710.90 21.6199
4710.92 26.9635
4710.94 34.7468
4710.97 52.8582
4711.00 64.7485
4711.03 52.8979
4711.06 34.7958
4711.10 23.1551
4711.13 16.7679
4711.16 13.0712
4711.19 10.8043
4711.26 8.33400
4711.32 7.10738
4711.45 5.98500
4711.58 5.51256
4711.84 5.12505
4712.09 4.97288
4712.61 4.85068
4713.12 4.80019
4715.17 4.72557
4719.28 4.66049
4723.39 4.61408
4727.50 4.57473
4735.71 4.50417
4743.93 4.43142
4752.14 4.33912
4756.25 4.27578
4760.36 4.18937
4762.41 4.13175
4764.46 4.05885
4766.52 3.96294
4768.57 3.83041
4769.60 3.74309
4770.63 3.63549
4771.65 3.50084
4772.68 3.33166
4773.71 3.13054
4774.22 3.03637
4774.73 2.99576
4775.25 3.16201
4775.50 3.47329
4775.76 4.17516
4776.02 5.81654
4776.15 7.40358
4776.27 10.0382
4776.40 14.7009
4776.53 23.4114
4776.59 30.6507
4776.66 41.1964
4776.72 56.7984
4776.79 79.8371
4776.89 138.531
4777.00 188.964
4777.11 165.865
4777.21 114.046
4777.30 81.9348
4777.39 61.0595
4777.48 47.4842
4777.57 38.4409
4777.75 27.4475
4777.93 21.3322
4778.11 17.5654
4778.29 15.0637
4778.65 12.0132
4779.01 10.2581
4779.36 9.14121
4779.72 8.37362
4780.08 7.81702
4780.80 7.06800
4781.51 6.59172
4782.23 6.26328
4782.95 6.02370
4784.38 5.69807
4785.81 5.48759
4787.24 5.34012
4788.68 5.23104
4791.54 5.07973
4794.41 4.97909
4797.27 4.90663
4800.14 4.85140
4805.87 4.77123
4811.60 4.71387
4823.06 4.63042
4834.52 4.56115
4840.25 4.52467
4845.98 4.48181
4851.71 4.42412
4854.57 4.38386
4857.44 4.32856
4860.30 4.24434
4861.73 4.18162
4863.17 4.09340
4864.60 3.95897
4865.31 3.86157
4866.03 3.73088
4866.75 3.55093
4867.46 3.32126
4867.82 3.24477
4868.00 3.27991
4868.18 3.47123
4868.36 4.09255
4868.45 4.80587
4868.54 6.11261
4868.63 8.72433
4868.67 10.9927
4868.72 14.3509
4868.76 19.7546
4868.81 28.6748
4868.85 44.0416
4868.90 70.4486
4868.95 122.031
4869.00 165.476
4869.05 145.238
4869.10 99.5761
4869.14 75.6863
4869.18 58.6438
4869.22 46.8621
4869.25 38.7491
4869.32 28.2870
4869.40 22.1956
4869.47 18.3384
4869.54 15.7315
4869.69 12.5060
4869.84 10.6339
4869.98 9.43288
4870.27 8.00677
4870.57 7.20221
4870.86 6.69140
4871.44 6.08546
4872.03 5.74041
4872.61 5.51918
4873.78 5.25203
4874.95 5.09630
4876.12 4.99410
4878.45 4.86692
4880.79 4.78967
4883.13 4.73665
4887.80 4.66593
4892.47 4.61779
4897.15 4.58002
4906.49 4.51615
4915.84 4.45025
4920.52 4.40985
4925.19 4.35800
4929.86 4.28303
4932.20 4.22869
4934.54 4.15295
4936.87 4.03703
4938.04 3.95131
4939.21 3.83259
4940.38 3.65738
4940.96 3.53604
4941.55 3.38295
4942.13 3.19912
4942.42 3.11105
4942.71 3.06787
4943.01 3.20345
4943.15 3.47045
4943.30 4.08452
4943.44 5.53187
4943.52 6.94815
4943.59 9.31834
4943.66 13.5118
4943.70 16.8824
4943.74 21.4944
4943.77 28.3219
4943.81 38.1057
4943.85 53.1920
4943.88 75.4837
4943.94 130.491
4944.00 178.036
4944.06 155.771
4944.12 107.019
4944.19 67.8729
4944.26 46.4573
4944.33 34.3969
4944.40 27.0675
4944.47 22.2966
4944.54 19.0123
4944.68 14.8807
4944.82 12.4495
4944.96 10.8784
4945.24 9.00879
4945.52 7.94695
4945.80 7.27507
4946.08 6.81218
4946.35 6.47740
4946.91 6.02428
4947.47 5.73443
4948.03 5.53312
4948.59 5.38516
4949.71 5.18172
4950.83 5.04798
4953.07 4.88023
4955.30 4.77610
4957.54 4.70183
4962.01 4.59238
4966.49 4.49646
4968.72 4.44261
4970.96 4.37622
4973.20 4.28301
4974.32 4.21672
4975.43 4.12602
4976.55 3.99141
4977.11 3.89599
4977.67 3.77057
4978.23 3.60419
4978.79 3.41264
4979.07 3.38408
4979.21 3.46203
4979.35 3.71814
4979.49 4.44638
4979.56 5.22993
4979.63 6.62951
4979.70 9.28797
4979.77 14.8080
4979.80 19.8258
4979.84 27.7443
4979.87 40.6338
4979.91 61.3329
4979.95 106.081
4980.00 143.997
4980.05 126.728
4980.09 87.2449
4980.14 58.4773
4980.19 41.5370
4980.24 31.4964
4980.29 25.2856
4980.34 21.0456
4980.38 18.1328
4980.48 14.3569
4980.58 12.0992
4980.68 10.6264
4980.87 8.85581
4981.06 7.84915
4981.26 7.20866
4981.65 6.44945
4982.03 6.01820
4982.42 5.74296
4983.20 5.41199
4983.98 5.21982
4984.75 5.09410
4986.30 4.93788
4987.86 4.84287
4989.41 4.77752
4992.51 4.69011
4995.62 4.63092
4998.73 4.58730
5001.83 4.57046
5002.61 4.58664
5003.38 4.64996
5003.77 4.74395
5004.16 5.00490
5004.35 5.34559
5004.55 6.20662
5004.64 7.23226
5004.74 9.52796
5004.79 11.9301
5004.84 16.3098
5004.86 20.1744
5004.89 25.7540
5004.91 34.3293
5004.94 48.1807
5004.97 74.4561
5005.00 91.9217
5005.03 74.5181
5005.06 48.2579
5005.09 33.1116
5005.12 24.1959
5005.15 18.6567
5005.17 15.0765
5005.23 10.9194
5005.28 8.80538
5005.39 6.79148
5005.50 5.91804
5005.72 5.18773
5005.93 4.89868
5006.37 4.67214
5006.80 4.58417
5007.67 4.51113
5008.54 4.47689
5012.01 4.40235
5015.49 4.33488
5018.96 4.25017
5020.70 4.19540
5022.43 4.12703
5024.17 4.03775
5025.91 3.91431
5027.65 3.73015
5028.51 3.59906
5029.38 3.42676
5030.25 3.19763
5031.12 2.93340
5031.55 2.89250
5031.77 2.99752
5031.99 3.34853
5032.21 4.34291
5032.31 5.41880
5032.42 7.32142
5032.53 10.9676
5032.59 13.9963
5032.64 18.4582
5032.69 25.3987
5032.75 36.1676
5032.80 53.6566
5032.86 82.7208
5032.93 143.629
5033.00 196.614
5033.07 172.216
5033.14 118.361
5033.20 88.4521
5033.25 68.0722
5033.30 54.0921
5033.35 44.2944
5033.46 31.9010
5033.56 24.8357
5033.67 20.3483
5033.77 17.3575
5033.98 13.6487
5034.19 11.5011
5034.40 10.1242
5034.61 9.17628
5034.82 8.48841
5035.23 7.56369
5035.65 6.97495
5036.07 6.56917
5036.49 6.27320
5037.32 5.87075
5038.16 5.60947
5039.00 5.42531
5039.83 5.28772
5041.50 5.09235
5043.17 4.95604
5046.52 4.76032
5049.86 4.59266
5051.53 4.49884
5053.20 4.38305
5054.87 4.22111
5055.71 4.10763
5056.55 3.95626
5057.38 3.74338
5057.80 3.60391
5058.22 3.44076
5058.64 3.27925
5058.84 3.23879
5059.05 3.30731
5059.26 3.70946
5059.37 4.24182
5059.47 5.28857
5059.58 7.50402
5059.63 9.48345
5059.68 12.5753
5059.73 17.6086
5059.78 26.2135
5059.84 41.6906
5059.86 53.8306
5059.89 70.4258
5059.94 122.520
5060.00 168.110
5060.06 148.195
5060.11 102.487
5060.15 77.9572
5060.19 60.8115
5060.23 48.6121
5060.27 40.2087
5060.35 29.4041
5060.43 23.1202
5060.51 19.1411
5060.59 16.4500
5060.74 13.1152
5060.90 11.1745
5061.06 9.92608
5061.22 9.06437
5061.37 8.44131
5061.69 7.59609
5062.01 7.05711
5062.32 6.68532
5062.64 6.41483
5063.27 6.04606
5063.90 5.80777
5065.16 5.51704
5066.43 5.34517
5067.69 5.23085
5070.21 5.08604
5072.74 4.99623
5075.26 4.93367
5080.31 4.84952
5085.36 4.79292
5090.41 4.75019
5100.51 4.68458
5110.61 4.62802
5115.66 4.59809
5120.71 4.56312
5125.76 4.51651
5128.29 4.48421
5130.81 4.44004
5133.34 4.37288
5134.60 4.32282
5135.86 4.25216
5137.13 4.14366
5137.76 4.06420
5138.39 3.95601
5139.02 3.80258
5139.65 3.58865
5139.97 3.48450
5140.28 3.55239
5140.44 3.91377
5140.52 4.36427
5140.60 5.23793
5140.68 7.03381
5140.76 11.1113
5140.80 15.1797
5140.84 21.8954
5140.87 33.7444
5140.89 43.1616
5140.91 55.2048
5140.96 95.6355
5141.00 129.800
5141.04 114.738
5141.09 79.2371
5141.12 57.6333
5141.16 43.5302
5141.20 34.2980
5141.23 28.0582
5141.30 20.4984
5141.38 16.2787
5141.45 13.6731
5141.52 11.9394
5141.66 9.82113
5141.81 8.60237
5141.95 7.82297
5142.24 6.89753
5142.53 6.37242
5142.82 6.03899
5143.39 5.64094
5143.97 5.41240
5144.55 5.26486
5145.70 5.08510
5146.85 4.97936
5148.00 4.90929
5150.31 4.82108
5152.62 4.76651
5154.92 4.72834
5159.53 4.67590
5164.14 4.63855
5168.76 4.60784
5177.98 4.55208
5187.20 4.48880
5191.81 4.44737
5196.42 4.39184
5201.03 4.30825
5203.34 4.24606
5205.65 4.15801
5207.95 4.02164
5209.10 3.92034
5210.26 3.78004
5211.41 3.57419
5211.99 3.43304
5212.56 3.25853
5213.14 3.05834
5213.43 2.97337
5213.72 2.95753
5214.00 3.18706
5214.15 3.56150
5214.29 4.37178
5214.44 6.19182
5214.51 7.91309
5214.58 10.7124
5214.65 15.4927
5214.72 24.1726
5214.76 31.1643
5214.80 41.0754
5214.83 55.2860
5214.87 76.0587
5214.93 132.822
5215.00 181.855
5215.07 160.201
5215.13 110.323
5215.19 80.2972
5215.24 60.6595
5215.29 47.4394
5215.35 38.6123
5215.45 27.7268
5215.56 21.6152
5215.67 17.8281
5215.77 15.3025
5215.99 12.2108
5216.20 10.4292
5216.42 9.28890
5216.63 8.50404
5216.84 7.93430
5217.27 7.16759
5217.70 6.67877
5218.13 6.34153
5218.56 6.09598
5219.41 5.76157
5220.27 5.54535
5221.12 5.39409
5221.98 5.28233
5223.69 5.12744
5225.40 5.02470
5227.11 4.95084
5228.82 4.89462
5232.25 4.81293
5235.67 4.75412
5242.51 4.66608
5249.36 4.58684
5252.78 4.54119
5256.20 4.48370
5259.63 4.40091
5261.34 4.34074
5263.05 4.25653
5264.76 4.12747
5265.62 4.03236
5266.47 3.90162
5267.33 3.71194
5267.76 3.58390
5268.18 3.42900
5268.61 3.26036
5269.04 3.21554
5269.25 3.48903
5269.36 3.88817
5269.47 4.71653
5269.57 6.51581
5269.63 8.19760
5269.68 10.8312
5269.73 15.3130
5269.79 23.0650
5269.81 29.2530
5269.84 37.4776
5269.87 49.3647
5269.89 65.2693
5269.95 114.081
5270.00 155.826
5270.05 137.938
5270.11 95.2474
5270.16 67.4112
5270.20 49.5631
5270.25 38.3162
5270.30 31.0521
5270.40 22.2818
5270.50 17.5463
5270.59 14.6289
5270.69 12.7224
5270.89 10.4013
5271.08 9.06256
5271.27 8.21126
5271.66 7.19620
5272.05 6.62031
5272.44 6.25206
5273.22 5.81085
5274.00 5.55642
5274.78 5.39138
5276.33 5.18930
5277.89 5.06940
5279.45 4.98934
5282.56 4.88712
5285.67 4.82234
5288.78 4.77547
5295.01 4.70578
5301.23 4.64535
5307.46 4.57226
5310.57 4.51728
5313.68 4.42564
5315.24 4.34591
5316.80 4.20818
5317.58 4.09285
5318.35 3.91875
5318.74 3.81117
5319.13 3.76579
5319.33 3.90761
5319.52 4.59569
5319.62 5.64957
5319.72 8.22230
5319.76 10.9580
5319.81 15.7888
5319.86 25.3203
5319.89 33.1232
5319.91 44.4954
5319.96 76.1242
5320.00 103.240
5320.05 91.1668
5320.09 63.3433
5320.14 41.2892
5320.20 29.2626
5320.25 22.2616
5320.30 18.0496
5320.41 13.3248
5320.51 10.8994
5320.61 9.44795
5320.72 8.50726
5320.93 7.38537
5321.14 6.74523
5321.35 6.33965
5321.77 5.85641
5322.19 5.58136
5322.60 5.40450
5323.44 5.19047
5324.28 5.06502
5325.12 4.98179
5326.79 4.87589
5328.47 4.80823
5330.15 4.75815
5333.50 4.67881
5336.85 4.60003
5338.52 4.55135
5340.20 4.48779
5341.88 4.39455
5343.55 4.23491
5344.39 4.10091
5345.23 3.89681
5345.65 3.76787
5346.06 3.70223
5346.27 3.84868
5346.48 4.60087
5346.59 5.75873
5346.69 8.58604
5346.75 11.6175
5346.80 16.9866
5346.85 27.2850
5346.88 35.8227
5346.90 47.9949
5346.95 82.8260
5347.00 112.646
5347.05 99.8752
5347.10 69.4129
5347.15 47.2395
5347.20 34.0343
5347.25 26.1660
5347.31 21.2748
5347.36 17.9296
5347.41 15.5847
5347.51 12.6041
5347.62 10.8003
5347.72 9.63267
5347.93 8.22238
5348.13 7.41347
5348.34 6.89779
5348.75 6.28626
5349.17 5.93778
5349.58 5.71490
5350.41 5.44662
5351.23 5.29099
5352.06 5.18948
5353.71 5.06434
5355.37 4.98959
5357.02 4.93948
5360.32 4.87552
5363.63 4.83556
5366.94 4.80766
5373.55 4.77017
5380.16 4.74527
5386.77 4.72696
5400.00 4.70089
5400.00 6.23851
6000.00 6.19815
7000.00 6.13975
8000.00 6.09743
10000.0 6.04294
12500.0 6.00774
15000.0 5.99246
17000.0 5.98859
20000.0 5.99124
25000.0 6.00813
30000.0 6.03240
35000.0 6.05949
40000.0 6.08730
50000.0 6.14136
60000.0 6.19083
70000.0 6.23501
80000.0 6.27402
99999.9 6.06401
100000 6.06405
161620 6.01498
200000 6.07703
250000 6.16604
400000 6.41902
546250 6.59892
625590 6.69997
718650 6.79993
800000 6.91001
1.03870E+06 6.95001
1.09750E+06 6.85037
1.09754E+06 6.85030
1.19100E+06 6.74998
1.25000E+06 6.65000
1.50000E+06 6.35297
1.75000E+06 6.08501
2.00000E+06 5.80199
2.25000E+06 5.52501
2.50000E+06 5.27104
2.75000E+06 5.04794
3.00000E+06 4.85894
3.25000E+06 4.70403
3.50000E+06 4.57995
3.70000E+06 4.49896
3.94640E+06 4.41789
4.20000E+06 4.35199
4.37710E+06 4.31491
4.70000E+06 4.26203
5.00000E+06 4.22991
5.50000E+06 4.20496
6.00000E+06 4.21094
6.30000E+06 4.22693
6.61990E+06 4.25295
6.95450E+06 4.28788
7.50000E+06 4.35610
8.00000E+06 4.42406
8.50000E+06 4.49299
9.04080E+06 4.56191
9.50000E+06 4.61404
1.00000E+07 4.66106
1.03260E+07 4.68670
1.07000E+07 4.71003
1.10000E+07 4.72497
1.15000E+07 4.73999
1.20000E+07 4.74595
1.22490E+07 4.74500
1.26000E+07 4.73997
1.30000E+07 4.73003
1.35000E+07 4.71103
1.40000E+07 4.68601
1.45000E+07 4.65603
1.50000E+07 4.62104
1.55000E+07 4.58398
1.59040E+07 4.55267
1.65000E+07 4.50504
1.70000E+07 4.46404
1.75000E+07 4.42396
1.80000E+07 4.38603
1.85000E+07 4.34897
1.90000E+07 4.31402
1.95000E+07 4.28297
2.00000E+07 4.25404