Cs-133(n,tot) ENDF/B-VII.1
Energy(eV) XS(b)
1.00000E-05 1458.84
1.25000E-05 1305.24
1.50000E-05 1191.87
2.00000E-05 1032.72
2.75000E-05 881.293
3.50000E-05 781.635
4.25000E-05 709.691
5.00000E-05 654.614
6.25000E-05 585.925
7.50000E-05 535.222
0.000100000 464.050
0.000125000 415.480
0.000150000 379.628
0.000200000 329.303
0.000275000 281.419
0.000350000 249.906
0.000425000 227.156
0.000500000 209.740
0.000625000 188.021
0.000750000 171.988
0.00100000 149.485
0.00125000 134.128
0.00150000 122.793
0.00200000 106.882
0.00275000 91.7453
0.00350000 81.7844
0.00425000 74.5943
0.00500000 69.0906
0.00625000 62.2277
0.00750000 57.1627
0.0100000 50.0552
0.0125000 45.2066
0.0150000 41.6289
0.0200000 36.6098
0.0253000 33.0149
0.0314750 30.0359
0.0376500 27.8260
0.0500000 24.7114
0.0625000 22.5579
0.0750000 20.9715
0.100000 18.7510
0.125000 17.2419
0.150000 16.1326
0.200000 14.5855
0.275000 13.1305
0.350000 12.1882
0.500000 11.0194
0.750000 9.98988
1.00000 9.45086
1.50000 9.01565
2.00000 9.06843
2.75000 9.95570
3.50000 12.4752
3.87500 15.0854
4.25000 19.7703
4.62500 29.2500
4.81250 38.0542
5.00000 52.8461
5.21170 85.7903
5.31755 116.801
5.42340 169.752
5.52925 271.205
5.58218 360.733
5.63510 503.323
5.68803 749.313
5.71449 944.080
5.74095 1222.21
5.76741 1634.89
5.79388 2273.29
5.82034 3299.83
5.84680 4968.15
5.87840 7945.26
5.91000 9927.91
5.94160 7941.91
5.97320 4965.57
6.00052 3256.34
6.02785 2221.28
6.05517 1586.00
6.08249 1179.44
6.13714 718.056
6.19178 480.275
6.24643 343.244
6.30107 257.547
6.41036 160.784
6.51965 110.440
6.62894 81.0064
6.73824 62.3371
6.84753 49.7620
7.06611 34.4009
7.28469 25.7297
7.50327 20.3565
7.72185 16.7950
8.15901 12.5073
8.59618 10.1147
9.03334 8.64714
9.25192 8.15304
9.36121 8.05054
9.41586 8.23772
9.44318 8.64527
9.47050 9.88217
9.50000 12.0715
9.52950 9.78176
9.55891 8.38752
9.58831 7.88771
9.64713 7.51274
9.76475 7.21120
10.0000 6.84958
10.8426 6.01586
11.6851 5.50219
13.3703 4.90550
15.0554 4.58321
15.8979 4.48492
16.3192 4.45089
16.5299 4.43968
16.6352 4.44038
16.7405 4.52892
16.7700 4.63065
16.7995 4.52671
16.8630 4.44033
16.9264 4.42656
17.0534 4.41865
17.3073 4.41503
17.8150 4.43017
18.3228 4.48173
18.8305 4.66896
18.8600 4.75840
18.8895 4.68661
18.9558 4.64107
19.0221 4.65533
19.1548 4.70390
19.4200 4.83649
19.6853 5.02597
19.8179 5.16247
19.8842 5.27582
19.9505 5.70108
19.9800 6.16215
20.0095 5.77250
20.0857 5.50817
20.1618 5.57994
20.3141 5.82838
20.6188 6.57961
20.9234 7.85748
21.2281 10.2265
21.3804 12.2299
21.5327 15.2781
21.6850 20.2184
21.8373 28.9546
21.9897 46.5095
22.0658 62.7374
22.1420 89.8225
22.2181 139.783
22.2562 182.060
22.2943 246.449
22.3324 350.542
22.3705 531.734
22.3895 674.582
22.4085 875.054
22.4276 1160.39
22.4466 1564.04
22.4783 2511.96
22.5100 3153.47
22.5417 2534.68
22.5734 1592.60
22.6023 1026.60
22.6312 692.195
22.6601 490.893
22.6890 363.932
22.7468 221.696
22.8046 149.182
22.8624 107.618
22.9201 81.6834
23.0357 52.4098
23.1513 37.1413
23.2669 28.1746
23.3825 22.4557
23.4980 18.5799
23.7292 13.8009
23.9604 11.0652
24.1915 9.34527
24.4227 8.18840
24.8850 6.76569
25.3473 5.94666
25.8096 5.42473
26.2720 5.06683
27.1966 4.61081
28.1212 4.33185
29.0459 4.14122
29.5082 4.06617
29.7394 4.03295
29.9705 4.04109
30.0000 4.07825
30.0295 4.03330
30.1214 3.98483
30.2133 3.97009
30.3971 3.94639
30.7648 3.90365
31.5000 3.82812
32.2353 3.76274
32.6029 3.73431
32.7867 3.72514
32.8786 3.73265
32.9246 3.75940
32.9475 3.80001
32.9705 3.90057
33.0000 4.09532
33.0295 3.89633
33.0484 3.80459
33.0674 3.75998
33.1052 3.72249
33.1809 3.69842
33.3324 3.68035
33.6352 3.65688
34.2409 3.61614
35.4523 3.54371
37.8750 3.42559
40.2978 3.35315
41.5091 3.35729
42.1148 3.38355
42.4177 3.40974
42.5691 3.43647
42.6448 3.47661
42.6827 3.54093
42.7205 3.77639
42.7500 4.12078
42.7795 3.78403
42.8080 3.58729
42.8364 3.52207
42.8933 3.48669
43.0071 3.48548
43.2348 3.52135
43.6900 3.64094
44.1453 3.84257
44.3729 4.01314
44.4867 4.19166
44.5436 4.45568
44.5721 4.82616
44.6005 5.85551
44.6300 7.58962
44.6595 5.91195
44.6817 5.06522
44.7039 4.71850
44.7483 4.49594
44.8371 4.46577
45.0147 4.66013
45.3700 5.35026
45.7252 6.56291
46.0804 8.86126
46.2580 10.8351
46.4356 13.8725
46.6132 18.8543
46.7909 27.7787
46.8797 35.1116
46.9685 45.9853
47.0573 63.0308
47.1461 91.8041
47.1905 114.175
47.2349 145.690
47.2793 191.936
47.3237 263.326
47.3681 380.866
47.4125 590.679
47.4347 760.175
47.4569 1003.34
47.4791 1358.64
47.5013 1876.14
47.5357 3021.13
47.5700 3802.41
47.6044 3065.58
47.6387 1931.97
47.6756 1159.69
47.7125 742.489
47.7494 508.492
47.7863 368.104
47.8232 278.371
47.8601 217.954
47.9339 144.510
48.0077 103.420
48.0815 78.1674
48.2290 50.0190
48.3766 35.4747
48.5242 26.9651
48.6718 21.5420
48.8194 17.8631
49.1145 13.3128
49.4097 10.6925
49.7048 9.03394
50.0000 7.91053
50.5038 6.67304
51.0076 5.90274
52.0151 5.01536
53.0227 4.52820
54.0303 4.22261
56.0454 3.85895
57.0529 3.74135
57.5567 3.69353
57.8086 3.67421
57.9346 3.67143
57.9975 3.68432
58.0290 3.71194
58.0605 3.80535
58.0900 3.95749
58.1195 3.80114
58.1423 3.71966
58.1652 3.68484
58.2108 3.65790
58.3021 3.64051
58.4848 3.62632
58.8500 3.61888
59.0326 3.63500
59.2153 3.70175
59.3066 3.79852
59.3522 3.89188
59.3979 4.05246
59.4435 4.36008
59.4664 4.63000
59.4892 5.05605
59.5120 5.78124
59.5349 7.14406
59.5463 8.30540
59.5577 10.0572
59.5691 12.7852
59.5805 17.0539
59.5953 25.1578
59.6100 30.5568
59.6248 25.1615
59.6395 17.0572
59.6484 13.5627
59.6574 11.0962
59.6752 8.12751
59.6930 6.55849
59.7109 5.65609
59.7287 5.09627
59.7466 4.72788
59.7823 4.29050
59.8179 4.05161
59.8536 3.90749
59.9250 3.75098
59.9964 3.67610
60.0678 3.64688
60.1391 3.68714
60.1748 3.80691
60.1927 3.96043
60.2105 4.27475
60.2253 4.70585
60.2400 4.99222
60.2548 4.69874
60.2695 4.26029
60.2873 3.93736
60.3051 3.77462
60.3407 3.63528
60.3763 3.57933
60.4119 3.55025
60.5542 3.50259
60.8389 3.46589
61.4083 3.42323
62.5471 3.36001
64.8248 3.25799
69.3800 3.09336
73.9353 2.95298
76.2129 2.89539
77.3517 2.87900
77.9211 2.87922
78.2058 2.88439
78.3482 2.89294
78.4193 2.90913
78.4549 2.93618
78.4905 3.03127
78.5200 3.17488
78.5495 3.03324
78.5939 2.93136
78.6383 2.91055
78.7271 2.90332
78.9048 2.90869
79.2600 2.93554
79.6153 2.98344
79.7929 3.02714
79.8817 3.07940
79.9261 3.15782
79.9483 3.25653
79.9705 3.48153
80.0000 3.92055
80.0295 3.49744
80.0501 3.29399
80.0707 3.20584
80.1119 3.14651
80.1943 3.13726
80.3591 3.18934
80.6888 3.37923
81.0184 3.71757
81.3481 4.36325
81.5129 4.91856
81.6777 5.77224
81.8425 7.16825
82.0073 9.65470
82.1722 14.6740
82.2546 19.3172
82.3370 27.0519
82.4194 41.2404
82.4606 53.1610
82.5018 71.1595
82.5430 99.9009
82.5842 148.973
82.6048 186.928
82.6254 239.274
82.6460 312.257
82.6666 413.321
82.7033 665.379
82.7400 838.208
82.7767 676.958
82.8134 427.806
82.8373 312.801
82.8612 233.461
82.9090 140.712
82.9568 93.1302
83.0046 66.2279
83.0524 49.7241
83.1001 38.9263
83.1957 26.1639
83.2913 19.2058
83.3869 14.9971
83.5780 10.3663
83.7692 7.99592
83.9604 6.61350
84.1515 5.73215
84.3427 5.13266
84.7250 4.38604
85.1073 3.95016
85.8720 3.47547
86.6366 3.22742
87.4012 3.07895
88.1659 2.99174
88.5482 2.98941
88.7394 3.07720
88.7871 3.16098
88.8349 3.35503
88.8588 3.56057
88.8827 3.95283
88.9066 4.81157
88.9186 5.63637
88.9305 6.95444
88.9453 9.37002
88.9600 10.9800
88.9748 9.36980
88.9895 6.95321
88.9996 5.79703
89.0098 5.01912
89.0300 4.13749
89.0503 3.69907
89.0705 3.45659
89.1110 3.21526
89.1515 3.10451
89.3136 2.96976
89.6377 2.92920
90.2858 2.95636
90.9340 3.08049
91.5821 3.39864
91.9062 3.71096
92.2303 4.22936
92.5543 5.13967
92.8784 6.88228
93.0404 8.38599
93.2025 10.7031
93.3645 14.5002
93.5266 21.2726
93.6076 26.8031
93.6886 34.9464
93.7696 47.5790
93.8506 68.5708
93.9317 106.898
93.9722 138.919
94.0127 186.994
94.0532 263.100
94.0937 391.480
94.1342 623.478
94.1747 1059.74
94.2124 1712.96
94.2500 2164.03
94.2877 1749.86
94.3253 1105.94
94.3696 636.421
94.4140 396.467
94.4583 267.183
94.5026 191.687
94.5470 144.310
94.5913 112.813
94.6800 74.9764
94.7686 54.0160
94.8573 41.2021
95.0346 26.9601
95.2120 19.5996
95.3893 15.2809
95.5667 12.5164
95.7440 10.6315
96.0987 8.28085
96.4533 6.91026
96.8080 6.03132
97.1627 5.42791
97.8720 4.66370
98.5813 4.20530
99.2907 3.90120
100.000 3.68432
101.309 3.41047
102.618 3.22541
105.235 2.97737
107.853 2.80257
109.162 2.72866
109.816 2.69466
110.143 2.68088
110.307 2.68289
110.389 2.70651
110.430 2.75874
110.450 2.82882
110.471 2.98415
110.500 3.30706
110.530 2.98125
110.547 2.83990
110.564 2.76821
110.599 2.70636
110.668 2.66920
110.807 2.64887
111.085 2.63090
111.640 2.60294
112.750 2.55178
113.860 2.50574
114.415 2.48748
114.693 2.48811
114.832 2.51640
114.901 2.59716
114.936 2.74445
114.953 2.91890
114.971 3.26279
115.000 4.06045
115.030 3.26106
115.049 2.89184
115.068 2.71602
115.106 2.57511
115.182 2.49833
115.335 2.46519
115.640 2.44781
116.250 2.43205
116.860 2.42616
117.165 2.43365
117.318 2.46134
117.394 2.53298
117.432 2.66706
117.452 2.83513
117.471 3.18602
117.500 3.94888
117.530 3.18680
117.548 2.84510
117.566 2.67795
117.603 2.54134
117.676 2.46794
117.822 2.44181
118.115 2.44135
118.700 2.47222
119.285 2.55529
119.578 2.71477
119.651 2.83901
119.724 3.12850
119.761 3.45514
119.797 4.14774
119.816 4.82427
119.834 6.00814
119.852 8.27532
119.871 12.8645
119.885 19.0393
119.900 23.1140
119.915 19.0024
119.930 12.8778
119.942 9.44056
119.954 7.33378
119.966 6.01666
119.978 5.16218
120.003 4.17764
120.027 3.66824
120.076 3.19025
120.125 2.98678
120.321 2.78524
120.712 2.82663
121.494 3.17845
122.277 3.89041
123.059 5.37027
123.450 6.71472
123.841 8.86224
124.232 12.5196
124.623 19.3319
124.819 25.1027
125.015 33.8716
125.210 48.0155
125.406 72.7430
125.504 92.5950
125.601 121.374
125.699 165.141
125.797 235.952
125.895 360.370
125.944 460.408
125.993 605.130
126.041 823.193
126.090 1167.01
126.139 1733.08
126.188 2676.88
126.244 4328.21
126.300 5467.49
126.356 4420.90
126.412 2793.43
126.474 1663.52
126.535 1060.59
126.596 724.422
126.658 523.986
126.719 396.062
126.781 310.188
126.904 205.869
127.026 147.434
127.149 111.503
127.395 71.3161
127.641 50.4508
127.886 38.1787
128.132 30.3156
128.378 24.9527
128.869 18.2693
129.361 14.3803
129.852 11.8940
130.343 10.1936
131.326 8.05425
132.309 6.78463
133.292 5.95224
134.275 5.36575
136.240 4.58957
138.206 4.09593
139.189 3.92741
139.680 3.87479
140.171 3.86831
140.663 3.97663
140.909 4.13889
141.154 4.48085
141.400 5.26818
141.523 6.06406
141.646 7.48835
141.769 10.3600
141.830 12.9942
141.891 17.3326
141.953 25.1552
142.014 41.0770
142.045 55.7832
142.076 79.8346
142.106 121.427
142.122 153.306
142.137 195.306
142.153 250.782
142.169 314.330
142.200 397.071
142.232 322.627
142.263 205.682
142.292 134.749
142.320 92.5443
142.349 67.0076
142.378 50.8630
142.435 32.6146
142.492 23.2279
142.550 17.8037
142.607 14.3939
142.722 10.5084
142.836 8.45775
142.951 7.24628
143.180 5.95394
143.409 5.34240
143.639 5.05378
144.097 5.06063
144.326 5.36010
144.556 5.96905
144.785 7.12627
145.014 9.40681
145.129 11.3874
145.243 14.4295
145.358 19.3768
145.473 28.0776
145.530 35.0878
145.587 45.2360
145.645 60.6482
145.702 85.4996
145.759 128.874
145.788 163.552
145.816 213.146
145.845 287.318
145.874 402.086
145.902 587.824
145.931 889.356
145.966 1437.14
146.000 1817.80
146.035 1478.85
146.069 941.693
146.105 578.998
146.141 378.445
146.177 263.381
146.213 193.516
146.249 148.241
146.285 117.558
146.357 79.8149
146.429 58.4428
146.500 45.1753
146.644 30.2097
146.788 22.3473
146.932 17.6807
147.076 14.6659
147.219 12.5950
147.507 9.98452
147.794 8.44359
148.082 7.44370
148.369 6.75019
148.945 5.85946
149.520 5.31589
150.670 4.68654
151.820 4.32886
152.970 4.09462
154.120 3.93520
154.408 3.91121
154.695 3.91055
154.839 3.93864
154.911 3.97330
154.983 4.03981
155.055 4.17998
155.091 4.31214
155.127 4.53367
155.163 4.94514
155.181 5.29421
155.199 5.82311
155.217 6.68355
155.235 8.17431
155.253 11.0216
155.262 13.3970
155.270 16.7242
155.285 24.5011
155.300 29.6923
155.315 24.5001
155.330 16.7206
155.341 12.6436
155.352 10.0353
155.364 8.35789
155.375 7.25306
155.398 5.93944
155.421 5.24047
155.443 4.82571
155.466 4.56263
155.512 4.25897
155.557 4.09628
155.603 3.99855
155.693 3.89010
155.875 3.79565
156.057 3.75019
156.785 3.65900
158.240 3.54468
161.150 3.37477
164.060 3.24228
165.515 3.18564
166.243 3.16403
166.425 3.16320
166.607 3.17243
166.698 3.18971
166.789 3.23836
166.834 3.29880
166.880 3.43648
166.902 3.58103
166.925 3.85176
166.937 4.08333
166.948 4.42936
166.959 4.97209
166.971 5.81185
166.985 7.42420
167.000 8.48826
167.015 7.41191
167.030 5.81020
167.044 4.81245
167.058 4.23880
167.072 3.90119
167.086 3.69164
167.114 3.46055
167.142 3.34461
167.199 3.23700
167.255 3.18993
167.368 3.14921
167.480 3.13099
167.931 3.10021
168.832 3.06495
170.634 3.00346
174.239 2.88665
176.041 2.82861
177.843 2.77220
178.744 2.75083
179.195 2.74799
179.646 2.76081
180.096 2.81823
180.321 2.89164
180.547 3.04201
180.659 3.17660
180.772 3.38812
180.885 3.74125
180.997 4.38032
181.110 5.68949
181.166 6.90854
181.223 8.94575
181.279 12.6857
181.307 15.8288
181.335 20.5434
181.363 28.0548
181.391 40.7154
181.420 63.7497
181.434 82.1150
181.448 107.074
181.461 137.394
181.474 172.417
181.500 217.889
181.526 177.208
181.552 113.390
181.570 82.1947
181.588 61.2159
181.606 47.0409
181.624 37.2524
181.661 25.2017
181.697 18.4970
181.733 14.4030
181.769 11.7429
181.841 8.60369
181.913 6.88828
181.985 5.84874
182.129 4.69595
182.273 4.09834
182.417 3.74525
182.561 3.51673
182.705 3.35880
182.994 3.15721
183.282 3.03508
183.858 2.89384
184.435 2.81215
185.011 2.75617
186.164 2.67784
188.470 2.56805
190.776 2.47523
193.082 2.38546
195.388 2.30169
196.541 2.27482
197.694 2.29458
198.271 2.35743
198.847 2.51999
199.135 2.68270
199.424 2.95664
199.712 3.44481
200.000 4.39431
200.142 5.21216
200.285 6.47748
200.427 8.56347
200.569 12.3056
200.712 19.9329
200.783 27.0420
200.854 38.9410
200.925 60.9753
200.961 79.6276
200.996 107.900
201.032 153.550
201.068 232.485
201.103 380.313
201.121 501.720
201.139 670.819
201.169 1083.82
201.200 1367.36
201.231 1105.36
201.261 699.548
201.286 476.799
201.310 336.423
201.335 246.940
201.359 187.941
201.409 118.762
201.458 82.0277
201.507 60.3124
201.556 46.5071
201.654 30.5670
201.752 22.0632
201.850 16.9835
201.948 13.6985
202.046 11.4473
202.242 8.62719
202.438 6.98420
202.635 5.93430
202.831 5.21842
203.223 4.32212
203.615 3.79538
204.400 3.22073
205.184 2.93653
205.577 2.86317
205.969 2.84583
206.361 2.93788
206.558 3.07789
206.754 3.36727
206.950 4.01602
207.048 4.65600
207.146 5.77527
207.244 7.96337
207.293 9.91563
207.342 13.0310
207.391 18.4198
207.440 28.7036
207.465 37.5918
207.489 51.1840
207.514 72.6849
207.538 106.951
207.554 137.043
207.569 171.462
207.600 216.018
207.631 175.251
207.662 111.684
207.699 64.8833
207.735 41.1039
207.772 28.3516
207.809 20.9398
207.846 16.2824
207.882 13.1958
207.956 9.48252
208.029 7.42389
208.103 6.16288
208.250 4.75497
208.397 4.02049
208.544 3.58379
208.838 3.10157
209.132 2.84564
209.426 2.68688
210.014 2.49586
211.190 2.29459
212.366 2.17257
214.718 2.01751
215.894 1.99814
216.188 2.01857
216.482 2.08686
216.629 2.18028
216.776 2.42623
216.850 2.73589
216.887 3.02022
216.923 3.49121
216.960 4.35974
216.978 5.09473
216.997 6.20829
217.015 8.02181
217.034 11.1968
217.052 17.2729
217.061 22.3727
217.070 29.5524
217.085 46.0956
217.100 57.1232
217.115 46.0999
217.130 29.5591
217.144 19.5447
217.157 13.7251
217.171 10.2245
217.185 8.04605
217.212 5.61283
217.240 4.38642
217.267 3.68573
217.295 3.25203
217.350 2.76894
217.460 2.38038
217.569 2.23783
217.789 2.15157
218.009 2.15294
218.448 2.27142
218.888 2.56624
219.327 3.26018
219.547 3.97234
219.766 5.27723
219.876 6.37085
219.986 8.02000
220.096 10.6690
220.206 15.2883
220.316 24.4046
220.371 32.6622
220.425 46.1623
220.480 70.3748
220.508 90.2574
220.535 119.517
220.563 165.055
220.590 239.501
220.618 369.555
220.645 601.776
220.673 967.171
220.700 1213.29
220.728 974.312
220.755 612.481
220.781 389.040
220.807 259.809
220.832 183.064
220.858 135.107
220.910 81.8135
220.962 54.9420
221.013 39.5948
221.065 30.0743
221.168 19.3610
221.271 13.7853
221.375 10.5186
221.581 7.03267
221.788 5.30045
221.994 4.31275
222.407 3.28228
222.820 2.78417
223.233 2.51129
224.060 2.26568
225.712 2.31626
227.364 3.01000
228.190 3.79306
229.016 5.15933
229.842 7.64451
230.256 9.65018
230.669 12.5269
231.082 16.7980
231.495 23.4249
231.908 34.3280
232.321 53.7700
232.527 69.5984
232.734 92.7670
232.940 128.382
233.147 186.694
233.354 290.676
233.457 375.325
233.560 498.960
233.663 687.847
233.767 990.239
233.870 1499.11
233.973 2370.60
234.087 3854.70
234.200 4896.04
234.314 3981.35
234.427 2530.01
234.546 1549.24
234.665 1008.01
234.784 699.313
234.903 511.767
235.022 390.543
235.141 308.178
235.379 207.021
235.617 149.638
235.855 113.956
236.331 73.5039
236.807 52.0882
237.282 39.3750
237.520 35.2159
237.639 33.8316
237.758 33.2988
237.877 34.6149
237.937 36.8157
237.996 41.2493
238.056 50.3009
238.115 70.2627
238.145 89.3697
238.175 120.886
238.205 175.444
238.219 217.093
238.234 271.818
238.251 350.960
238.267 444.657
238.300 582.007
238.317 564.795
238.333 497.475
238.366 337.391
238.394 239.310
238.423 177.738
238.451 138.618
238.480 112.772
238.536 82.1177
238.593 65.3773
238.650 55.1118
238.707 48.2945
238.821 39.8548
238.934 34.8306
239.048 31.4555
239.275 27.0843
239.503 24.2525
239.730 22.1854
240.185 19.2406
241.094 15.5668
242.004 13.2561
243.823 10.4445
245.642 8.79027
247.461 7.70312
249.280 6.93557
252.918 5.92314
256.556 5.28093
260.194 4.83057
263.832 4.49018
265.651 4.34878
266.561 4.29156
266.788 4.28504
267.016 4.29549
267.129 4.32238
267.186 4.35153
267.243 4.40459
267.300 4.51174
267.328 4.60925
267.357 4.76840
267.385 5.05136
267.414 5.61911
267.428 6.13658
267.442 6.97310
267.456 8.39959
267.470 10.8912
267.485 14.9058
267.500 17.5858
267.515 14.9041
267.530 10.8876
267.543 8.48727
267.557 7.08209
267.570 6.23115
267.583 5.69888
267.610 5.10066
267.637 4.79592
267.664 4.62114
267.691 4.51182
267.745 4.38766
267.799 4.32151
267.852 4.28147
267.960 4.23572
268.175 4.19179
268.390 4.16659
269.250 4.09994
270.110 4.04768
270.540 4.03817
270.648 4.04850
270.756 4.08570
270.809 4.13610
270.863 4.25753
270.890 4.39093
270.917 4.65551
270.930 4.89434
270.944 5.27155
270.957 5.89939
270.971 6.96275
270.985 8.74997
271.000 9.92886
271.015 8.73546
271.030 6.95935
271.040 6.11468
271.049 5.54769
271.069 4.89478
271.089 4.56702
271.109 4.38502
271.149 4.20152
271.188 4.11602
271.268 4.03995
271.347 4.00634
271.506 3.97411
271.665 3.95600
272.300 3.90951
272.935 3.87316
273.253 3.86590
273.412 3.89487
273.451 3.92451
273.491 3.99196
273.531 4.18546
273.551 4.43618
273.571 4.97677
273.585 5.66583
273.600 6.12066
273.615 5.65920
273.630 4.97338
273.652 4.39223
273.674 4.14256
273.717 3.95798
273.761 3.89339
273.805 3.86299
273.981 3.81985
274.332 3.78919
275.035 3.74532
276.440 3.66272
279.250 3.49632
282.060 3.31992
283.465 3.22950
284.168 3.20237
284.344 3.21273
284.519 3.26210
284.607 3.33587
284.651 3.40752
284.695 3.53093
284.739 3.76680
284.761 3.97349
284.783 4.29677
284.805 4.84508
284.827 5.85775
284.838 6.71257
284.849 7.98759
284.860 9.94269
284.870 12.9134
284.885 18.7766
284.900 22.6798
284.915 18.7752
284.930 12.9100
284.943 9.39529
284.957 7.33455
284.970 6.08553
284.983 5.30393
285.010 4.42534
285.037 3.97794
285.064 3.72155
285.091 3.56140
285.145 3.38006
285.199 3.28402
285.252 3.22644
285.360 3.16154
285.575 3.10155
285.790 3.06888
286.650 2.98760
287.510 2.94572
287.725 2.96239
287.940 3.04075
288.048 3.15878
288.102 3.27482
288.155 3.47706
288.209 3.87312
288.236 4.22793
288.263 4.79763
288.290 5.79975
288.317 7.77398
288.330 9.54873
288.344 12.3434
288.357 16.9804
288.370 24.8077
288.385 38.0431
288.400 46.7864
288.415 37.9480
288.430 24.8053
288.443 16.9309
288.457 12.3094
288.470 9.52213
288.483 7.76104
288.510 5.78673
288.537 4.78008
288.564 4.20329
288.591 3.84350
288.644 3.43718
288.698 3.22452
288.751 3.09865
288.859 2.96119
289.073 2.84509
289.287 2.79169
290.145 2.70041
291.003 2.68894
291.860 2.82556
292.289 3.02520
292.718 3.41607
293.147 4.19096
293.576 5.82031
293.790 7.30540
294.005 9.66992
294.219 13.6591
294.326 16.7198
294.433 20.9544
294.541 27.0001
294.648 35.9760
294.755 49.9850
294.862 73.3296
294.969 115.851
295.023 151.144
295.077 203.659
295.130 285.616
295.184 420.831
295.237 657.123
295.291 1082.26
295.346 1770.12
295.400 2262.12
295.455 1849.25
295.509 1181.21
295.573 686.984
295.638 432.904
295.702 295.105
295.766 214.097
295.831 162.954
295.895 128.739
296.024 87.2941
296.152 64.0742
296.281 49.7226
296.538 33.5347
296.795 25.0018
297.052 19.9019
297.310 16.5811
297.567 14.2802
298.081 11.3495
298.596 9.59491
299.110 8.44306
299.624 7.63587
300.653 6.58802
301.682 5.94211
302.711 5.50515
303.740 5.18961
305.798 4.76193
307.855 4.48203
309.913 4.28177
310.942 4.20342
311.456 4.17855
311.585 4.18156
311.713 4.20407
311.778 4.23886
311.842 4.32854
311.874 4.43216
311.906 4.64824
311.922 4.85397
311.938 5.20097
311.955 5.82832
311.971 6.99854
311.985 8.72381
312.000 9.86203
312.015 8.70965
312.030 6.99492
312.041 6.06960
312.053 5.48465
312.076 4.86899
312.100 4.58265
312.123 4.43025
312.170 4.28250
312.216 4.21559
312.309 4.15615
312.403 4.12906
312.589 4.10095
312.776 4.08332
313.522 4.03294
315.015 3.95125
318.000 3.81579
320.985 3.70395
322.478 3.65528
323.224 3.63616
323.597 3.64089
323.691 3.65332
323.784 3.68911
323.831 3.73403
323.877 3.83715
323.901 3.94565
323.924 4.15120
323.947 4.59558
323.959 5.01881
323.971 5.68180
323.985 6.92870
324.000 7.75168
324.015 6.91905
324.030 5.68030
324.045 4.85682
324.060 4.40664
324.091 3.99810
324.122 3.83286
324.153 3.75163
324.214 3.67765
324.276 3.64560
324.399 3.61765
324.522 3.60477
325.015 3.58143
326.000 3.55523
326.493 3.54791
326.985 3.55336
327.231 3.57270
327.355 3.59489
327.478 3.63707
327.601 3.72735
327.663 3.81484
327.724 3.96720
327.786 4.26754
327.816 4.53963
327.847 4.98281
327.878 5.77914
327.893 6.43430
327.909 7.40534
327.924 8.91885
327.940 11.4223
327.955 15.8303
327.970 23.7783
327.985 35.9206
328.000 44.0028
328.015 35.9168
328.030 23.7731
328.047 15.2706
328.063 10.8553
328.080 8.43708
328.097 7.01107
328.114 6.10762
328.130 5.50986
328.164 4.79181
328.197 4.39449
328.231 4.15380
328.297 3.88841
328.364 3.75323
328.431 3.67495
328.565 3.59197
328.699 3.55072
328.833 3.52705
329.100 3.50315
329.368 3.49709
329.635 3.51603
329.769 3.55279
329.836 3.59068
329.903 3.65866
329.970 3.79546
330.003 3.92144
330.037 4.12937
330.070 4.50931
330.087 4.82589
330.104 5.30192
330.120 6.05845
330.137 7.34444
330.154 9.69966
330.170 14.2152
330.185 20.7144
330.200 25.0136
330.215 20.6735
330.230 14.2216
330.244 10.2080
330.258 7.91579
330.272 6.56360
330.286 5.72301
330.314 4.79525
330.343 4.32907
330.371 4.06368
330.399 3.89991
330.456 3.71607
330.512 3.62035
330.568 3.56412
330.681 3.50317
330.907 3.45251
331.133 3.42980
331.584 3.40517
332.036 3.38855
333.841 3.33676
337.453 3.24287
341.065 3.14782
344.676 3.04535
348.288 2.92698
350.094 2.85743
351.900 2.77746
353.706 2.68583
354.609 2.63930
355.512 2.60467
355.963 2.60262
356.414 2.62668
356.866 2.70846
357.317 2.92915
357.543 3.15466
357.769 3.53805
357.995 4.22439
358.220 5.55491
358.333 6.70749
358.446 8.48003
358.559 11.3633
358.672 16.4188
358.728 20.4753
358.785 26.3167
358.841 35.1163
358.897 49.1268
358.954 73.1529
358.982 91.9043
359.010 118.277
359.039 156.553
359.067 213.950
359.095 302.435
359.123 439.316
359.162 716.549
359.200 913.280
359.239 746.142
359.277 477.276
359.304 342.237
359.332 251.606
359.359 190.868
359.386 149.194
359.441 98.3087
359.495 70.0406
359.550 52.8578
359.605 41.6628
359.714 28.4500
359.823 21.2087
359.932 16.7967
360.041 13.8961
360.150 11.8800
360.369 9.30993
360.587 7.78038
360.805 6.78509
361.024 6.09564
361.460 5.21682
361.897 4.69538
362.334 4.39967
362.443 4.38461
362.552 4.46212
362.607 4.60595
362.661 4.98327
362.689 5.40993
362.716 6.26809
362.730 7.04906
362.743 8.28987
362.757 10.3688
362.770 13.9157
362.785 19.8114
362.800 23.7378
362.815 19.7981
362.830 13.8883
362.844 10.2104
362.858 8.09880
362.872 6.85638
362.886 6.08885
362.915 5.23442
362.943 4.80018
362.971 4.54841
363.000 4.38899
363.056 4.20087
363.170 4.02194
363.283 3.92793
363.736 3.72886
364.642 3.50202
366.455 3.23135
368.267 3.05498
370.080 2.91625
371.892 2.79369
372.799 2.73668
373.705 2.68655
374.611 2.66112
375.064 2.67791
375.517 2.75215
375.744 2.83687
375.971 2.98702
376.197 3.26303
376.424 3.80747
376.537 4.28376
376.650 5.02106
376.764 6.22886
376.877 8.36488
376.990 12.5981
377.047 16.4167
377.103 22.5671
377.160 33.3122
377.188 41.8540
377.217 54.0773
377.245 72.2158
377.273 100.212
377.302 144.993
377.330 217.296
377.365 352.719
377.400 448.573
377.435 366.183
377.470 234.131
377.505 149.011
377.539 100.124
377.573 71.3612
377.608 53.4823
377.642 41.7502
377.677 33.6825
377.745 23.6592
377.814 17.8972
377.883 14.2895
378.020 10.1704
378.158 7.98247
378.295 6.67128
378.433 5.81704
378.570 5.22531
378.845 4.47197
379.120 4.02034
379.395 3.72261
379.670 3.51231
380.220 3.23414
380.770 3.05581
381.870 2.83023
382.971 2.68086
384.071 2.56405
385.171 2.46405
385.721 2.42292
385.996 2.42291
386.064 2.43843
386.133 2.48430
386.167 2.54026
386.202 2.66137
386.236 2.98348
386.253 3.36467
386.271 4.10715
386.285 5.15209
386.300 5.84147
386.315 5.14223
386.330 4.10239
386.344 3.43404
386.359 3.06020
386.388 2.70870
386.417 2.56201
386.447 2.48809
386.505 2.41830
386.564 2.38600
386.798 2.33575
387.267 2.28828
388.204 2.20938
390.078 2.05681
391.952 1.91181
393.826 1.80841
394.763 1.80698
395.701 1.89088
396.638 2.16282
397.575 2.88669
398.043 3.62213
398.512 4.86854
398.980 7.09242
399.215 8.86478
399.449 11.3824
399.683 15.0806
399.918 20.7420
400.152 29.8937
400.386 45.8070
400.503 58.4528
400.620 76.5274
400.737 103.461
400.855 145.716
400.972 216.572
401.089 345.550
401.147 451.580
401.206 605.493
401.265 834.263
401.323 1172.61
401.412 1917.64
401.500 2450.92
401.589 2007.92
401.677 1285.79
401.770 794.596
401.862 521.672
401.954 364.861
402.047 269.150
402.139 207.008
402.232 164.666
402.417 112.379
402.601 82.5315
402.786 63.8703
403.156 42.6107
403.526 31.3015
403.896 24.5089
404.265 20.0695
404.635 16.9865
405.375 13.0476
406.114 10.6788
406.854 9.11594
407.593 8.01498
409.072 6.58660
409.812 6.12440
410.551 5.82139
411.291 5.78943
411.660 6.00336
412.030 6.59526
412.400 8.13642
412.585 9.77567
412.770 12.7914
412.954 19.0138
413.047 24.8206
413.139 34.4887
413.232 52.1452
413.278 66.8224
413.324 88.7271
413.370 123.074
413.417 180.156
413.463 281.004
413.509 465.037
413.555 754.061
413.600 957.501
413.646 780.029
413.691 497.508
413.739 304.713
413.788 199.216
413.836 139.296
413.884 102.972
413.932 79.5243
413.980 63.6548
414.077 44.1911
414.173 33.1803
414.270 26.3792
414.463 18.8496
414.655 15.3592
414.752 14.6472
414.848 14.7699
414.945 16.3593
414.993 18.2350
415.041 21.5426
415.089 27.5808
415.138 39.4276
415.162 49.6944
415.186 65.2778
415.210 89.5594
415.234 127.517
415.251 163.852
415.267 206.278
415.300 265.154
415.333 221.570
415.366 146.716
415.397 99.7039
415.427 71.3751
415.457 54.0301
415.488 42.9252
415.548 30.1174
415.609 23.3411
415.670 19.2862
415.731 16.6476
415.852 13.4669
415.974 11.6365
416.095 10.4497
416.338 8.98737
416.581 8.10457
416.824 7.50139
417.309 6.70945
417.795 6.19646
418.281 5.82700
419.253 5.31234
420.224 4.95417
421.196 4.67743
423.139 4.24572
425.082 3.88352
426.054 3.71174
427.025 3.55020
427.511 3.48282
427.997 3.44108
428.483 3.46079
428.969 3.63852
429.212 3.86366
429.454 4.28092
429.697 5.07350
429.940 6.67631
430.062 8.09640
430.183 10.3058
430.305 13.9382
430.426 20.3526
430.487 25.5138
430.548 32.9496
430.608 44.1354
430.669 61.8751
430.730 92.0505
430.760 115.434
430.790 147.911
430.821 194.625
430.851 263.317
430.882 367.395
430.912 524.154
430.956 860.709
431.000 1105.44
431.044 909.445
431.088 585.082
431.126 393.592
431.164 275.514
431.203 201.925
431.241 154.173
431.317 98.9971
431.393 69.8931
431.469 52.7049
431.545 41.7171
431.698 28.9409
431.850 22.0104
432.002 17.7992
432.155 15.0250
432.307 13.0868
432.612 10.5972
432.916 9.09450
433.221 8.10170
433.526 7.40267
434.135 6.48886
434.744 5.92024
435.354 5.53166
435.963 5.24790
437.182 4.85659
438.400 4.59373
440.837 4.24727
443.275 4.01309
445.712 3.83111
450.587 3.53348
455.461 3.25147
457.899 3.09478
460.336 2.91324
461.555 2.80878
462.773 2.69337
463.992 2.56881
465.210 2.44975
465.820 2.40891
466.429 2.40727
467.038 2.50037
467.648 2.83555
467.952 3.21036
468.257 3.87505
468.562 5.10334
468.714 6.10214
468.866 7.53946
469.019 9.67567
469.171 12.9780
469.323 18.3670
469.476 27.8247
469.552 35.3837
469.628 46.2420
469.704 62.4913
469.780 88.0496
469.857 131.089
469.933 209.693
469.971 274.522
470.009 369.037
470.047 509.686
470.085 718.117
470.143 1180.54
470.200 1515.72
470.258 1246.12
470.315 801.198
470.373 505.474
470.431 337.243
470.489 238.970
470.547 178.135
470.605 138.294
470.663 110.912
470.779 76.8479
470.895 57.2242
471.011 44.8822
471.243 30.7081
471.475 23.1075
471.707 18.5155
471.939 15.5005
472.171 13.3979
472.634 10.7005
473.098 9.07308
473.562 7.99826
474.026 7.24132
474.954 6.25278
475.881 5.63892
476.809 5.22073
477.736 4.91656
479.592 4.49941
481.447 4.22071
485.158 3.85227
488.868 3.59504
492.579 3.37996
496.289 3.17364
500.000 2.95228
502.992 2.74996
504.488 2.64299
505.984 2.54798
506.732 2.51989
507.480 2.52727
508.228 2.61517
508.976 2.89995
509.350 3.20642
509.724 3.73875
510.098 4.70463
510.472 6.59202
510.659 8.23113
510.846 10.7536
511.033 14.8546
511.220 22.0401
511.314 27.7824
511.407 36.0450
511.501 48.4527
511.594 68.1194
511.688 101.544
511.781 163.753
511.828 216.029
511.875 293.454
511.921 411.551
511.968 591.210
512.034 965.632
512.100 1232.98
512.166 1008.23
512.232 644.495
512.293 420.768
512.353 287.484
512.414 206.735
512.474 155.448
512.596 97.4523
512.717 67.4749
512.838 50.0525
512.959 39.0312
513.202 26.3521
513.444 19.5531
513.686 15.4518
514.171 10.8970
514.656 8.50349
515.141 7.06038
516.110 5.44925
517.080 4.70839
517.564 4.64630
518.049 4.98395
518.291 5.45318
518.534 6.31904
518.776 7.92936
519.019 11.0874
519.140 13.8139
519.261 17.9690
519.382 24.6221
519.503 35.9967
519.564 44.8774
519.624 57.3670
519.685 75.5663
519.746 103.261
519.806 147.708
519.867 223.759
519.927 363.325
519.958 475.588
519.988 629.920
520.044 1036.22
520.100 1332.09
520.156 1097.26
520.212 707.202
520.251 512.649
520.290 380.829
520.329 291.313
520.368 229.507
520.446 153.152
520.524 110.291
520.603 83.9587
520.681 66.6712
520.837 46.0716
520.993 34.6530
521.149 27.6254
521.461 19.6812
521.774 15.4521
522.086 12.8901
522.398 11.1957
522.710 10.0023
523.335 8.44388
523.959 7.47732
524.584 6.82031
525.208 6.34406
526.458 5.69651
527.707 5.27238
530.205 4.73856
532.703 4.40389
535.201 4.16411
540.197 3.81712
545.194 3.54104
547.692 3.40802
550.190 3.27047
552.688 3.12765
553.937 3.06117
555.186 3.01795
555.811 3.02144
556.435 3.06509
557.060 3.19417
557.684 3.52302
557.997 3.84975
558.309 4.39605
558.621 5.35854
558.933 7.19390
559.246 11.1566
559.402 15.0036
559.558 21.6653
559.714 34.4758
559.792 45.6846
559.870 63.2165
559.948 92.5796
560.026 145.930
560.065 189.840
560.104 253.534
560.143 348.029
560.182 488.036
560.241 795.662
560.300 1013.98
560.359 828.088
560.418 529.285
560.482 320.389
560.546 207.605
560.610 144.212
560.674 106.041
560.738 81.5165
560.803 64.9507
560.931 44.6646
561.059 33.1808
561.187 26.0490
561.444 17.9684
561.700 13.6937
561.957 11.1358
562.213 9.46740
562.469 8.30996
562.982 6.82979
563.495 5.93574
564.008 5.34052
564.521 4.91537
565.547 4.34791
566.060 4.15787
566.573 4.03357
567.086 4.03845
567.342 4.16019
567.599 4.48604
567.855 5.33385
567.983 6.23748
568.112 7.89990
568.240 11.3100
568.304 14.4530
568.368 19.6137
568.432 28.7926
568.464 36.2367
568.496 47.0080
568.528 63.3188
568.560 88.9488
568.593 131.176
568.625 201.283
568.662 328.823
568.700 420.966
568.738 346.279
568.776 223.540
568.808 150.883
568.841 106.158
568.874 78.3248
568.906 60.2839
568.972 39.4625
569.037 28.4812
569.103 22.0104
569.168 17.8745
569.299 13.0619
569.430 10.4500
569.560 8.85808
569.822 7.06732
570.084 6.11071
570.345 5.52394
570.868 4.84364
571.392 4.45620
571.915 4.19931
572.961 3.86276
574.008 3.63405
575.054 3.45460
577.147 3.16616
578.193 3.04734
579.239 2.95516
580.286 2.92217
581.332 3.04455
581.855 3.24351
582.379 3.64110
582.902 4.43334
583.425 6.09128
583.687 7.58846
583.948 9.94897
584.210 13.8731
584.471 20.8928
584.602 26.5824
584.733 34.8496
584.864 47.3868
584.995 67.4605
585.125 101.945
585.256 166.905
585.322 221.960
585.387 304.340
585.452 430.893
585.518 625.502
585.609 1030.58
585.700 1326.70
585.791 1093.66
585.882 705.015
585.954 491.763
586.025 353.964
586.097 264.629
586.168 204.952
586.311 133.811
586.454 95.1486
586.597 71.9155
586.740 56.8875
587.026 39.1964
587.312 29.5008
587.597 23.5694
587.883 19.6449
588.169 16.8969
588.741 13.3601
589.313 11.2228
589.884 9.81235
590.456 8.82119
591.599 7.53203
592.743 6.73740
593.886 6.20098
595.029 5.81497
597.316 5.29547
599.603 4.95965
601.889 4.72217
604.176 4.54324
608.750 4.28596
613.323 4.10303
617.896 3.96060
619.040 3.93031
620.183 3.90489
620.755 3.89775
621.326 3.90557
621.612 3.92940
621.755 3.95645
621.898 4.00790
622.041 4.11834
622.113 4.22607
622.184 4.41510
622.255 4.79210
622.291 5.13743
622.327 5.70977
622.363 6.76064
622.381 7.64502
622.398 8.97649
622.416 11.1260
622.434 14.8119
622.452 21.7496
622.470 35.3663
622.485 54.3543
622.500 66.9031
622.515 54.2226
622.530 35.3677
622.542 25.4215
622.554 19.0629
622.565 14.9774
622.577 12.2883
622.600 9.10540
622.624 7.40570
622.647 6.40006
622.670 5.76429
622.717 5.03499
622.764 4.64895
622.810 4.42133
622.904 4.17645
622.997 4.05410
623.090 3.98379
623.277 3.90899
623.650 3.84732
624.023 3.81898
624.769 3.78628
625.516 3.76248
628.501 3.68135
631.486 3.59962
634.471 3.50752
637.456 3.39296
638.949 3.32065
640.441 3.23284
641.188 3.18196
641.934 3.12708
642.680 3.07252
643.427 3.03489
643.800 3.03828
644.173 3.07992
644.546 3.20602
644.919 3.53447
645.106 3.86514
645.292 4.42211
645.479 5.40795
645.665 7.28804
645.852 11.3189
645.945 15.1847
646.039 21.7580
646.085 26.8779
646.132 34.0406
646.179 44.4630
646.225 60.2184
646.272 85.4121
646.318 128.082
646.365 205.457
646.388 267.025
646.412 351.294
646.456 577.130
646.500 742.108
646.544 611.937
646.588 394.826
646.626 268.133
646.663 189.363
646.701 139.691
646.738 107.323
646.813 69.6016
646.888 49.5499
646.963 37.6732
647.038 30.0554
647.188 21.1637
647.337 16.3282
647.487 13.3816
647.637 11.4380
647.787 10.0790
648.086 8.33310
648.386 7.27947
648.686 6.58479
648.985 6.09687
649.584 5.46296
650.184 5.07273
650.783 4.80971
651.382 4.62072
652.580 4.36692
653.779 4.20325
654.977 4.08770
656.176 4.00073
658.572 3.87576
660.969 3.78714
665.763 3.66124
670.556 3.56650
675.350 3.48255
677.747 3.43971
678.945 3.41675
680.144 3.39184
681.342 3.36411
681.941 3.34927
682.540 3.33505
683.140 3.32711
683.439 3.33217
683.739 3.35601
683.889 3.38386
684.038 3.43384
684.188 3.52653
684.338 3.71005
684.488 4.11658
684.563 4.51584
684.638 5.20944
684.713 6.53816
684.750 7.69337
684.787 9.47871
684.825 12.4222
684.862 17.6169
684.900 27.6501
684.919 36.0689
684.937 48.0993
684.953 61.5350
684.969 77.2199
685.000 98.5333
685.031 81.7443
685.063 53.7519
685.089 37.5957
685.115 27.4728
685.142 21.0790
685.168 16.8874
685.221 11.9940
685.273 9.38800
685.326 7.83744
685.378 6.84300
685.483 5.67866
685.588 5.04405
685.694 4.65656
685.799 4.40043
685.904 4.22092
686.114 3.98930
686.324 3.84863
686.534 3.75508
686.745 3.68866
687.165 3.60072
687.586 3.54480
688.426 3.47606
689.267 3.43329
690.108 3.40228
691.790 3.35636
695.153 3.28808
698.517 3.22828
705.244 3.10318
708.607 3.02895
710.289 2.98711
711.130 2.96708
711.550 2.96652
711.760 2.99954
711.865 3.11033
711.918 3.36213
711.944 3.74608
711.971 4.77890
711.985 5.88433
712.000 6.61348
712.015 5.87556
712.030 4.77722
712.044 4.08553
712.058 3.69291
712.086 3.31956
712.143 3.08288
712.257 2.97740
712.485 2.93600
712.940 2.91141
713.850 2.87773
715.670 2.80645
717.491 2.72057
719.311 2.61390
720.221 2.55114
721.131 2.48271
722.041 2.41364
722.951 2.36383
723.407 2.36535
723.862 2.41301
724.317 2.56322
724.772 2.96016
724.999 3.36217
725.227 4.04091
725.454 5.24553
725.682 7.54749
725.796 9.51259
725.910 12.4901
726.023 17.2345
726.137 25.3080
726.194 31.5895
726.251 40.3981
726.308 53.1894
726.365 72.5272
726.421 103.423
726.478 155.854
726.535 250.961
726.592 429.854
726.646 707.603
726.700 910.847
726.754 751.003
726.808 484.121
726.857 319.009
726.907 220.074
726.956 159.619
727.005 121.091
727.104 77.1831
727.203 54.3229
727.301 40.9278
727.400 32.4024
727.597 22.5200
727.795 17.1699
727.992 13.9191
728.190 11.7755
728.387 10.2775
728.782 8.35102
729.176 7.18613
729.571 6.41616
729.966 5.87378
730.755 5.16578
731.544 4.72654
732.334 4.42765
733.123 4.21030
734.702 3.91122
736.281 3.70778
737.070 3.62609
737.465 3.58980
737.860 3.55883
738.254 3.54156
738.452 3.54698
738.649 3.57753
738.846 3.67378
738.945 3.78302
739.044 3.98911
739.142 4.41860
739.192 4.81738
739.241 5.47095
739.291 6.63133
739.340 8.90521
739.365 10.9143
739.389 14.0206
739.414 19.0385
739.438 27.1583
739.469 42.7170
739.500 54.2235
739.531 45.4177
739.562 30.5299
739.584 22.7449
739.607 17.5679
739.630 14.1270
739.652 11.7798
739.698 8.92659
739.743 7.34417
739.789 6.38034
739.834 5.74972
739.925 4.99854
740.016 4.58106
740.106 4.32211
740.288 4.02503
740.470 3.86211
740.651 3.75961
741.014 3.63621
741.377 3.56173
741.741 3.50941
742.467 3.43538
743.919 3.33528
745.372 3.25865
748.277 3.12820
751.182 3.00309
754.087 2.86501
755.539 2.78495
756.992 2.69403
757.718 2.64459
758.444 2.59462
759.171 2.55065
759.897 2.53390
760.260 2.55449
760.623 2.62089
760.986 2.78373
761.349 3.16913
761.531 3.54031
761.712 4.14941
761.894 5.20199
762.076 7.16200
762.257 11.2541
762.348 15.0919
762.439 21.4839
762.529 33.1004
762.575 42.6873
762.620 56.8509
762.666 78.7172
762.711 114.214
762.756 174.803
762.802 280.248
762.851 460.739
762.900 592.310
762.949 488.104
762.998 314.938
763.030 233.150
763.063 176.178
763.127 108.872
763.191 73.8642
763.255 53.8137
763.319 41.3599
763.384 33.1135
763.512 23.2053
763.640 17.6809
763.769 14.2673
764.026 10.4028
764.282 8.34772
764.539 7.10616
764.796 6.28824
765.053 5.71478
765.566 4.97088
766.080 4.51364
766.593 4.20502
767.107 3.98239
768.134 3.67986
769.161 3.47949
771.215 3.21618
773.270 3.03322
775.324 2.88250
779.432 2.60589
781.486 2.46207
783.541 2.30788
785.595 2.14388
787.649 1.98771
788.676 1.93375
789.703 1.93026
790.730 2.04853
791.757 2.47696
792.271 2.95539
792.785 3.80140
793.298 5.35647
793.555 6.61464
793.812 8.41515
794.068 11.0722
794.325 15.1454
794.582 21.7115
794.839 33.0279
795.096 54.4612
795.224 72.8357
795.352 100.948
795.481 146.348
795.609 224.627
795.738 369.695
795.866 650.608
795.983 1075.78
796.100 1389.85
796.217 1149.39
796.334 742.707
796.423 524.357
796.512 381.083
796.602 286.968
796.691 223.427
796.869 146.869
797.047 104.810
797.225 79.3495
797.403 62.7870
797.759 43.1772
798.116 32.3652
798.472 25.7199
798.828 21.3071
799.184 18.2070
799.897 14.2011
800.609 11.7671
801.322 10.1515
802.034 9.00767
803.459 7.49529
804.884 6.51734
805.597 6.13135
805.953 5.95646
806.309 5.79904
806.666 5.68705
806.844 5.68055
807.022 5.76659
807.200 6.10103
807.289 6.50180
807.378 7.27248
807.467 8.88702
807.512 10.3728
807.556 12.7800
807.601 16.9540
807.645 24.7967
807.668 31.4180
807.690 41.1915
807.712 56.0809
807.734 78.5828
807.751 101.578
807.767 128.597
807.800 167.192
807.817 161.340
807.833 141.164
807.866 94.2752
807.890 69.6628
807.914 53.1115
807.937 41.9169
807.961 34.2285
808.009 24.7376
808.057 19.4028
808.104 16.1044
808.152 13.9231
808.247 11.2918
808.343 9.80289
808.438 8.86650
808.629 7.77130
808.819 7.15770
809.010 6.76488
809.391 6.28364
809.773 5.98971
810.154 5.78335
810.917 5.49681
812.442 5.13576
813.968 4.89231
815.493 4.70685
817.019 4.55925
817.781 4.49897
818.544 4.45552
818.925 4.45154
819.307 4.49346
819.497 4.57421
819.593 4.65921
819.688 4.81458
819.783 5.13631
819.831 5.44051
819.879 5.95805
819.926 6.94581
819.950 7.80870
819.974 9.16955
819.998 11.4957
820.022 15.8533
820.034 19.5661
820.046 25.1746
820.057 33.9177
820.069 47.6187
820.085 73.6963
820.100 90.9326
820.115 73.5170
820.131 47.6188
820.143 33.7337
820.155 24.9974
820.167 19.4099
820.179 15.7188
820.203 11.3819
820.227 9.08939
820.251 7.73669
820.275 6.88275
820.323 5.90433
820.371 5.38658
820.419 5.08044
820.515 4.75077
820.612 4.58446
820.708 4.48773
820.900 4.38197
821.284 4.28796
821.669 4.23887
822.438 4.17408
823.207 4.12289
824.745 4.03287
826.284 3.94870
827.822 3.86425
828.591 3.81987
829.360 3.77267
830.129 3.72241
830.514 3.69783
830.898 3.67884
831.283 3.68346
831.475 3.71391
831.667 3.79748
831.860 4.02324
831.956 4.26979
832.052 4.72881
832.148 5.67704
832.196 6.55113
832.244 7.97451
832.292 10.4779
832.340 15.3075
832.364 19.5146
832.388 25.9153
832.412 35.9873
832.436 51.9348
832.452 66.7903
832.468 84.1189
832.500 108.190
832.532 90.5379
832.564 60.0906
832.595 40.2035
832.625 28.5636
832.656 21.5671
832.687 17.1668
832.718 14.2320
832.748 12.1970
832.810 9.62680
832.871 8.12110
832.933 7.16236
833.055 6.04338
833.178 5.43170
833.301 5.05534
833.424 4.80401
833.547 4.62579
833.793 4.39151
834.039 4.24512
834.530 4.07116
835.022 3.96891
835.514 3.89921
836.497 3.80462
838.464 3.68365
840.430 3.59336
844.363 3.43631
848.296 3.27746
852.229 3.09465
854.196 2.98904
856.163 2.87675
857.146 2.82432
858.129 2.78589
859.112 2.78707
860.096 2.89857
860.587 3.05306
861.079 3.34958
861.571 3.92752
862.062 5.11991
862.308 6.18941
862.554 7.86794
862.800 10.6478
863.046 15.6040
863.291 25.4272
863.414 34.2330
863.537 48.3120
863.660 72.4641
863.783 117.895
863.844 156.396
863.906 213.869
863.967 302.235
864.029 438.039
864.114 720.191
864.200 925.594
864.286 762.076
864.371 490.857
864.437 344.171
864.503 248.890
864.569 186.738
864.635 144.975
864.768 94.9875
864.900 67.7424
865.032 51.3333
865.164 40.7065
865.428 28.1856
865.692 21.3199
865.956 17.1179
866.220 14.3381
866.484 12.3906
867.012 9.87891
867.540 8.35341
868.068 7.33661
868.597 6.61039
869.653 5.62732
870.181 5.27022
870.709 4.97321
871.237 4.75264
871.501 4.70628
871.765 4.77521
872.030 5.16032
872.162 5.65916
872.294 6.66141
872.426 8.85737
872.492 10.9582
872.558 14.4875
872.624 20.8950
872.657 26.1508
872.690 33.8451
872.723 45.5522
872.756 64.1433
872.789 94.8884
872.822 146.479
872.861 242.355
872.900 315.388
872.939 264.225
872.978 173.805
873.012 120.469
873.045 86.9486
873.078 65.6576
873.111 51.6257
873.177 35.1257
873.243 26.2370
873.309 20.9088
873.375 17.4529
873.507 13.3582
873.639 11.0851
873.771 9.67195
874.035 8.04248
874.299 7.14467
874.563 6.57986
875.091 5.90596
875.619 5.51138
876.147 5.24656
877.203 4.90194
878.259 4.67776
879.315 4.51408
881.427 4.28069
883.539 4.11335
885.651 3.98069
889.876 3.76545
894.100 3.56860
896.212 3.46227
898.324 3.34099
899.381 3.27181
900.437 3.19568
901.493 3.11363
902.549 3.03463
903.077 3.00656
903.605 3.00260
904.133 3.05686
904.661 3.25915
904.925 3.48620
905.189 3.88789
905.453 4.62546
905.717 6.07301
905.981 9.24311
906.113 12.3200
906.245 17.5952
906.377 27.4981
906.443 35.9130
906.509 48.6741
906.575 69.0356
906.641 103.551
906.707 165.979
906.773 283.182
906.837 467.722
906.900 604.764
906.964 501.368
907.027 325.250
907.098 197.743
907.169 129.261
907.241 90.8517
907.312 67.7706
907.383 52.9153
907.454 42.8484
907.596 30.4443
907.739 23.3647
907.881 18.9220
908.165 13.8203
908.450 11.0719
908.735 9.39820
909.019 8.28981
909.304 7.50974
909.873 6.49527
910.442 5.87025
911.011 5.44795
911.581 5.14262
912.719 4.72358
913.288 4.56904
913.857 4.43671
914.427 4.32503
914.711 4.28271
914.996 4.26407
915.280 4.31325
915.423 4.40671
915.565 4.61854
915.707 5.12399
915.778 5.63601
915.850 6.53460
915.921 8.26350
915.956 9.75787
915.992 12.0463
916.027 15.7613
916.063 22.1510
916.099 34.0036
916.116 43.5982
916.134 56.8185
916.151 73.0388
916.167 92.1195
916.200 118.819
916.233 99.7138
916.266 66.3068
916.293 47.4208
916.319 35.2995
916.345 27.4318
916.372 22.1972
916.425 15.9487
916.478 12.5446
916.531 10.4912
916.583 9.15459
916.689 7.56701
916.795 6.68483
916.901 6.13661
917.112 5.50541
917.324 5.15846
917.536 4.94037
917.959 4.67998
918.382 4.52673
918.805 4.42285
919.652 4.28501
920.498 4.19250
921.344 4.12283
923.037 4.01962
926.423 3.88133
929.808 3.78457
936.580 3.64397
943.351 3.53423
950.122 3.43489
956.893 3.33272
960.279 3.27505
963.664 3.20622
965.357 3.16339
966.204 3.13826
967.050 3.10971
967.896 3.07779
968.320 3.06215
968.743 3.05136
969.166 3.06110
969.378 3.09036
969.589 3.16572
969.695 3.24046
969.801 3.36460
969.907 3.58057
970.012 3.98359
970.118 4.82026
970.171 5.59769
970.224 6.87911
970.277 9.16254
970.330 13.6865
970.356 17.7212
970.383 24.0189
970.409 34.3100
970.436 51.2004
970.452 65.8279
970.468 82.9665
970.500 106.577
970.532 88.7676
970.564 58.4480
970.597 38.1882
970.629 26.6225
970.661 19.8231
970.694 15.5912
970.726 12.7994
970.758 10.8792
970.823 8.47529
970.888 7.07999
970.952 6.19744
971.082 5.17477
971.211 4.62010
971.340 4.28093
971.470 4.05566
971.599 3.89669
971.857 3.68913
972.116 3.56044
972.633 3.40907
973.150 3.32108
973.668 3.26138
974.702 3.17983
976.771 3.06886
978.839 2.97149
980.908 2.86423
981.943 2.80247
982.977 2.73466
984.011 2.66838
984.529 2.64782
985.046 2.66159
985.304 2.70047
985.563 2.78646
985.821 2.96701
986.080 3.35663
986.209 3.71370
986.339 4.28139
986.468 5.23226
986.597 6.94613
986.727 10.3840
986.791 13.4999
986.856 18.5198
986.921 27.2502
986.953 34.1444
986.985 43.9320
987.017 58.2910
987.050 80.1004
987.082 114.240
987.114 167.983
987.157 275.345
987.200 353.467
987.243 291.371
987.286 188.343
987.313 141.116
987.340 107.779
987.394 67.7489
987.448 46.5805
987.502 34.3270
987.556 26.6624
987.610 21.5623
987.718 15.4099
987.826 11.9603
987.934 9.82240
988.150 7.39456
988.366 6.09621
988.581 5.30707
989.013 4.41053
989.445 3.91724
989.877 3.60132
990.741 3.20711
991.173 3.07574
991.604 2.98217
992.036 2.94538
992.468 3.03091
992.684 3.17422
992.900 3.45663
993.116 4.00770
993.332 5.13019
993.548 7.64985
993.656 10.1255
993.764 14.3939
993.872 22.4569
993.926 29.3303
993.980 39.7487
994.034 56.4177
994.088 84.6922
994.142 135.826
994.195 231.509
994.248 383.738
994.300 498.032
994.352 414.406
994.405 269.839
994.448 185.596
994.492 132.599
994.536 98.9318
994.580 76.7503
994.667 50.6747
994.754 36.6812
994.842 28.3096
994.929 22.9050
995.104 16.5338
995.279 13.0238
995.454 10.8622
995.629 9.42058
995.804 8.40320
996.153 7.07804
996.503 6.26373
996.853 5.71740
997.202 5.32707
997.902 4.80747
998.601 4.47658
999.301 4.24568
1000.00 4.07371
1001.37 3.83422
1002.73 3.66516
1005.47 3.42261
1008.20 3.22984
1010.94 3.04150
1013.67 2.82453
1015.04 2.69452
1016.40 2.54698
1017.09 2.47006
1017.77 2.40011
1018.45 2.35932
1019.14 2.41342
1019.48 2.53121
1019.82 2.78449
1020.16 3.31214
1020.50 4.44490
1020.68 5.48507
1020.85 7.13765
1021.02 9.89936
1021.19 14.8120
1021.27 18.8339
1021.36 24.5936
1021.44 33.3897
1021.53 47.1936
1021.62 70.8798
1021.70 114.015
1021.74 150.136
1021.79 201.615
1021.83 280.147
1021.87 394.302
1021.94 654.808
1022.00 849.657
1022.07 704.148
1022.13 455.868
1022.20 289.052
1022.26 194.146
1022.33 138.660
1022.39 104.671
1022.46 81.9518
1022.52 66.5059
1022.66 46.9871
1022.79 35.5993
1022.92 28.4455
1023.18 20.1535
1023.44 15.6396
1023.71 12.8934
1023.97 11.0715
1024.23 9.78904
1024.75 8.12148
1025.28 7.10181
1025.80 6.41777
1026.33 5.93074
1027.38 5.28213
1028.43 4.86926
1029.48 4.57964
1030.52 4.36109
1032.62 4.03681
1033.67 3.90326
1034.72 3.77674
1035.77 3.65333
1036.30 3.59684
1036.82 3.55776
1037.08 3.55639
1037.35 3.58396
1037.61 3.67270
1037.87 3.90306
1038.00 4.13395
1038.13 4.51499
1038.26 5.17707
1038.39 6.41004
1038.53 8.96128
1038.59 11.3462
1038.66 15.2023
1038.72 22.1467
1038.76 27.7567
1038.79 35.5739
1038.82 47.5849
1038.85 66.2966
1038.89 96.4972
1038.92 143.806
1038.96 236.009
1039.00 304.498
1039.04 253.393
1039.08 165.582
1039.11 118.387
1039.14 88.0426
1039.17 67.7558
1039.20 53.8482
1039.26 36.8482
1039.32 27.3655
1039.38 21.4908
1039.44 17.7124
1039.56 13.1990
1039.69 10.6721
1039.81 9.12348
1039.93 8.08204
1040.05 7.35349
1040.29 6.40286
1040.53 5.82157
1040.77 5.43361
1041.01 5.15880
1041.49 4.79375
1041.97 4.56315
1042.46 4.40338
1042.94 4.28540
1043.90 4.11949
1044.86 4.00568
1046.79 3.85181
1048.72 3.74519
1050.64 3.66139
1054.50 3.52495
1058.35 3.39986
1060.28 3.33265
1062.20 3.25582
1064.13 3.16068
1065.09 3.10222
1066.06 3.03495
1066.54 2.99909
1067.02 2.96510
1067.50 2.94163
1067.98 2.95453
1068.23 2.99656
1068.47 3.09238
1068.71 3.29797
1068.95 3.74648
1069.07 4.16452
1069.19 4.82665
1069.31 5.94815
1069.43 7.95138
1069.55 11.9815
1069.61 15.5693
1069.67 21.2800
1069.73 30.9885
1069.79 48.9522
1069.82 63.8869
1069.85 85.8174
1069.88 118.724
1069.91 168.119
1069.96 278.042
1070.00 360.387
1070.05 299.206
1070.09 194.525
1070.14 121.515
1070.19 81.1033
1070.23 57.9683
1070.28 44.0645
1070.33 34.8005
1070.38 28.5795
1070.47 20.7398
1070.57 16.1812
1070.66 13.3366
1070.85 10.0464
1071.04 8.25517
1071.23 7.16708
1071.42 6.44149
1071.61 5.93319
1072.00 5.27042
1072.38 4.86334
1072.76 4.59005
1073.14 4.39459
1073.90 4.13394
1074.66 3.96748
1075.42 3.85102
1076.19 3.76405
1077.71 3.64034
1079.23 3.55354
1082.28 3.43143
1085.33 3.34056
1088.38 3.26256
1094.47 3.11506
1100.57 2.94749
1103.62 2.84262
1106.67 2.71110
1108.19 2.63016
1109.71 2.53496
1111.24 2.42158
1112.76 2.28753
1113.52 2.21488
1114.29 2.14512
1115.05 2.09567
1115.81 2.11904
1116.19 2.20264
1116.57 2.39532
1116.95 2.81095
1117.33 3.72581
1117.53 4.57580
1117.72 5.92704
1117.91 8.20929
1118.10 12.2987
1118.19 15.6590
1118.29 20.4953
1118.38 27.8081
1118.48 39.4468
1118.57 59.5034
1118.67 96.3459
1118.72 127.374
1118.76 171.986
1118.81 240.371
1118.86 340.783
1118.93 564.654
1119.00 731.746
1119.07 608.076
1119.14 395.124
1119.20 266.864
1119.27 188.627
1119.33 138.820
1119.39 106.896
1119.51 69.4461
1119.63 49.5344
1119.76 37.7172
1119.88 30.1155
1120.13 21.1989
1120.37 16.3131
1120.62 13.3129
1120.86 11.3186
1121.11 9.91838
1121.60 8.09170
1122.09 6.97455
1122.58 6.22474
1123.08 5.69038
1124.06 4.97590
1125.04 4.51631
1126.03 4.18799
1127.01 3.93368
1128.98 3.53830
1129.96 3.37099
1130.94 3.22354
1131.43 3.16625
1131.92 3.13616
1132.42 3.16730
1132.91 3.34959
1133.15 3.56825
1133.40 3.96294
1133.65 4.69465
1133.89 6.12720
1134.14 9.26593
1134.26 12.2970
1134.38 17.4603
1134.51 27.0531
1134.57 35.1958
1134.63 47.2114
1134.69 66.4189
1134.75 97.7796
1134.81 152.578
1134.87 251.011
1134.94 417.185
1135.00 539.131
1135.06 446.671
1135.13 291.224
1135.17 214.489
1135.21 161.576
1135.30 100.336
1135.38 68.6315
1135.47 50.4934
1135.55 39.1120
1135.64 31.6652
1135.81 22.6779
1135.98 17.6095
1136.15 14.4778
1136.49 10.8954
1136.83 8.95933
1137.17 7.77849
1137.51 6.98892
1137.85 6.43055
1138.53 5.69347
1139.22 5.23230
1139.90 4.91569
1140.58 4.68377
1141.94 4.36283
1143.30 4.14653
1146.03 3.85742
1148.75 3.65071
1150.12 3.55776
1151.48 3.46359
1152.84 3.36084
1153.52 3.30394
1154.20 3.24387
1154.54 3.21480
1154.88 3.19073
1155.22 3.18123
1155.56 3.21333
1155.74 3.26726
1155.91 3.37510
1156.08 3.58984
1156.25 4.03633
1156.42 5.06930
1156.50 6.09870
1156.59 7.90451
1156.67 11.3865
1156.71 14.4588
1156.76 19.1048
1156.80 26.9073
1156.84 40.2917
1156.86 51.4148
1156.88 66.3701
1156.91 87.5353
1156.93 117.327
1156.96 192.721
1157.00 248.999
1157.04 207.534
1157.07 135.876
1157.12 84.1193
1157.16 55.9828
1157.20 40.1041
1157.24 30.6825
1157.28 24.4206
1157.32 20.1627
1157.40 14.9559
1157.48 11.9308
1157.56 10.0487
1157.73 7.87115
1157.89 6.68296
1158.05 5.95650
1158.21 5.47354
1158.38 5.13411
1158.70 4.68714
1159.03 4.41045
1159.35 4.22163
1159.68 4.08492
1160.33 3.89750
1160.98 3.77262
1162.28 3.60870
1163.58 3.49658
1164.89 3.40710
1167.49 3.25213
1170.09 3.09238
1171.39 2.99916
1172.70 2.88972
1173.35 2.82719
1174.00 2.75988
1174.65 2.69192
1175.30 2.64006
1175.63 2.63633
1175.95 2.67122
1176.28 2.79201
1176.60 3.11672
1176.76 3.44693
1176.93 4.00320
1177.09 4.98360
1177.25 6.82046
1177.33 8.38564
1177.42 10.6969
1177.50 14.3029
1177.58 20.2669
1177.66 31.1079
1177.70 39.9577
1177.74 52.4934
1177.78 71.8784
1177.82 101.581
1177.86 151.306
1177.90 231.376
1177.95 382.202
1178.00 494.742
1178.05 412.118
1178.10 268.875
1178.14 181.946
1178.18 129.232
1178.23 95.3925
1178.27 73.8491
1178.35 48.4479
1178.44 35.0535
1178.52 26.9836
1178.61 21.8440
1178.78 15.7596
1178.95 12.4038
1179.11 10.3547
1179.28 8.99057
1179.45 8.02833
1179.79 6.77437
1180.13 6.00790
1180.47 5.49299
1180.81 5.12655
1181.48 4.63763
1182.16 4.32435
1182.84 4.10248
1183.51 3.93290
1184.87 3.67359
1185.54 3.56315
1186.22 3.45787
1186.90 3.36056
1187.24 3.32516
1187.57 3.32310
1187.74 3.35325
1187.91 3.42906
1188.08 3.59681
1188.25 3.96713
1188.42 4.84953
1188.51 5.75615
1188.59 7.34561
1188.67 10.4819
1188.72 13.1993
1188.76 17.4184
1188.80 24.5624
1188.84 36.9354
1188.86 46.7461
1188.89 60.5377
1188.91 80.1716
1188.93 107.980
1188.96 178.776
1189.00 230.322
1189.02 220.678
1189.04 191.969
1189.07 126.993
1189.10 93.0314
1189.13 69.9617
1189.15 54.3510
1189.18 43.5494
1189.23 30.2177
1189.28 22.8189
1189.33 18.1543
1189.38 15.1300
1189.49 11.4475
1189.59 9.38225
1189.69 8.09574
1189.90 6.62007
1190.11 5.81679
1190.31 5.32466
1190.52 4.99395
1190.72 4.75749
1191.14 4.44199
1191.55 4.24157
1192.37 3.99771
1193.20 3.85073
1194.02 3.74940
1195.67 3.61196
1197.32 3.51703
1198.97 3.44327
1202.27 3.32742
1208.86 3.14519
1215.46 2.97408
1222.06 2.77773
1225.36 2.65674
1228.66 2.50826
1231.95 2.31523
1233.60 2.19439
1235.25 2.05475
1236.08 1.98054
1236.90 1.91066
1237.73 1.86290
1238.55 1.89021
1238.96 1.97662
1239.38 2.17165
1239.79 2.58723
1240.20 3.49358
1240.41 4.33341
1240.61 5.66614
1240.82 7.89858
1241.02 11.9109
1241.13 15.1669
1241.23 19.8951
1241.33 27.0490
1241.44 38.4507
1241.54 57.8785
1241.64 93.9681
1241.69 124.451
1241.75 168.529
1241.80 236.337
1241.85 336.703
1241.92 558.447
1242.00 723.662
1242.08 599.092
1242.15 387.431
1242.22 256.889
1242.29 178.979
1242.36 130.380
1242.43 99.6075
1242.56 64.0225
1242.70 45.3378
1242.84 34.3355
1242.97 27.2952
1243.25 19.0766
1243.52 14.5912
1243.80 11.8417
1244.07 10.0145
1244.34 8.72573
1244.89 7.04530
1245.44 6.00495
1245.99 5.29614
1246.54 4.77671
1247.63 4.04197
1248.18 3.76000
1248.73 3.51621
1249.28 3.32880
1249.55 3.28937
1249.82 3.35405
1250.10 3.71152
1250.24 4.17744
1250.37 5.11885
1250.51 7.19192
1250.58 9.20397
1250.65 12.5474
1250.68 15.1896
1250.72 18.7405
1250.75 23.7728
1250.78 31.1460
1250.82 42.7880
1250.85 60.9004
1250.89 90.9393
1250.92 141.477
1250.96 234.315
1251.00 304.870
1251.04 255.964
1251.08 168.618
1251.12 112.939
1251.15 79.2718
1251.19 58.6377
1251.23 45.6882
1251.30 30.5112
1251.37 22.4806
1251.45 17.7165
1251.52 14.6456
1251.67 11.0243
1251.81 9.00916
1251.96 7.76670
1252.25 6.32979
1252.54 5.53088
1252.84 5.02561
1253.42 4.41194
1254.01 4.04213
1254.59 3.78461
1255.76 3.42663
1256.93 3.16508
1258.10 2.94609
1260.44 2.55050
1261.61 2.35291
1262.78 2.14907
1263.95 1.94355
1265.12 1.76754
1265.70 1.72310
1266.29 1.75736
1266.87 1.96882
1267.46 2.60590
1267.75 3.27544
1268.04 4.41152
1268.33 6.42838
1268.48 8.00726
1268.63 10.2130
1268.77 13.4013
1268.92 18.0975
1269.06 25.3452
1269.21 37.1353
1269.36 57.6781
1269.43 73.9016
1269.50 96.8486
1269.58 130.284
1269.65 180.521
1269.72 257.964
1269.79 377.712
1269.90 632.685
1270.00 828.080
1270.10 694.275
1270.21 454.782
1270.30 306.549
1270.39 216.223
1270.48 159.833
1270.57 123.135
1270.75 80.4953
1270.94 57.7653
1271.12 44.1641
1271.30 35.4329
1271.66 25.1181
1272.03 19.3965
1272.39 15.8596
1272.76 13.4796
1273.12 11.7915
1273.85 9.56504
1274.58 8.17254
1275.31 7.21885
1276.04 6.52201
1277.50 5.56375
1278.22 5.23523
1278.95 5.02161
1279.68 5.04975
1280.05 5.29509
1280.41 5.93772
1280.78 7.59816
1280.96 9.34810
1281.14 12.5276
1281.32 18.9030
1281.41 24.6399
1281.50 33.8091
1281.59 49.4794
1281.69 78.6904
1281.73 103.476
1281.78 139.311
1281.82 194.741
1281.87 276.797
1281.93 457.879
1282.00 589.971
1282.07 488.437
1282.13 318.521
1282.17 241.027
1282.22 185.708
1282.30 118.955
1282.38 82.5586
1282.46 61.4867
1282.54 48.0095
1282.62 39.0840
1282.79 28.1350
1282.95 21.9414
1283.11 18.0705
1283.44 13.6288
1283.76 11.2261
1284.09 9.75084
1284.42 8.76326
1284.74 8.06121
1285.39 7.12625
1286.04 6.53255
1287.35 5.81268
1288.65 5.38034
1289.95 5.08368
1292.56 4.68622
1295.17 4.41765
1297.78 4.21309
1302.99 3.89534
1308.20 3.62041
1310.81 3.47900
1313.42 3.32422
1316.02 3.14791
1317.33 3.05230
1318.63 2.96215
1319.28 2.92942
1319.93 2.92086
1320.59 2.96851
1321.24 3.15455
1321.56 3.36332
1321.89 3.73063
1322.22 4.39974
1322.54 5.69557
1322.87 8.51134
1323.03 11.2251
1323.19 15.8545
1323.36 24.5015
1323.44 31.8779
1323.52 42.8991
1323.60 60.6627
1323.68 90.3156
1323.76 143.557
1323.84 242.560
1323.92 399.184
1324.00 511.948
1324.08 422.294
1324.16 272.475
1324.22 191.497
1324.28 139.548
1324.34 105.457
1324.40 82.4304
1324.52 54.5549
1324.64 39.4077
1324.76 30.1785
1324.88 24.2274
1325.12 17.1512
1325.36 13.2491
1325.60 10.8447
1326.09 8.11167
1326.57 6.62391
1327.05 5.69454
1328.01 4.57045
1328.98 3.89831
1329.46 3.69000
1329.94 3.64025
1330.42 4.01506
1330.66 4.62764
1330.90 5.95514
1331.02 7.16745
1331.14 9.04314
1331.26 12.1188
1331.38 17.3672
1331.50 27.2299
1331.56 35.4238
1331.62 47.6027
1331.68 66.4642
1331.74 97.0668
1331.80 149.043
1331.86 239.071
1331.93 402.127
1332.00 529.356
1332.07 446.144
1332.14 294.036
1332.20 201.713
1332.25 144.825
1332.31 108.236
1332.37 84.6123
1332.49 56.6034
1332.60 41.5219
1332.72 32.4704
1332.84 26.5878
1333.07 19.6168
1333.31 15.7097
1333.54 13.2815
1333.77 11.6358
1334.01 10.4652
1334.47 8.91335
1334.94 7.94066
1335.41 7.27654
1335.87 6.79471
1336.81 6.14147
1337.74 5.71719
1339.61 5.19294
1341.48 4.87549
1343.35 4.65854
1347.08 4.37289
1350.82 4.18564
1354.56 4.04770
1362.03 3.84460
1369.50 3.68473
1376.97 3.53165
1380.71 3.44431
1382.58 3.39298
1384.45 3.33202
1386.31 3.25424
1387.25 3.20504
1388.18 3.14586
1389.12 3.07633
1389.58 3.04207
1390.05 3.02152
1390.28 3.02761
1390.52 3.06055
1390.75 3.15156
1390.98 3.37628
1391.10 3.59690
1391.22 3.96068
1391.33 4.58871
1391.45 5.73544
1391.57 8.09174
1391.63 10.2658
1391.68 13.7215
1391.74 19.8172
1391.80 31.1736
1391.83 40.7808
1391.86 55.1045
1391.89 76.9818
1391.92 110.446
1391.96 182.900
1392.00 235.872
1392.04 196.731
1392.08 130.024
1392.12 91.9351
1392.15 67.8333
1392.18 51.9787
1392.21 41.2448
1392.28 28.2834
1392.34 21.1302
1392.40 16.7814
1392.47 13.9371
1392.60 10.5476
1392.72 8.66276
1392.85 7.49439
1392.98 6.71279
1393.11 6.15963
1393.36 5.43828
1393.62 4.99489
1393.88 4.69777
1394.13 4.48591
1394.65 4.20452
1395.16 4.02674
1395.67 3.90340
1396.18 3.81204
1397.21 3.68330
1398.23 3.59410
1400.28 3.46958
1402.33 3.37674
1404.38 3.29593
1408.47 3.13777
1412.57 2.94836
1414.62 2.82572
1416.67 2.66956
1417.69 2.57308
1418.72 2.46059
1419.74 2.32977
1420.77 2.18548
1421.28 2.11701
1421.79 2.06783
1422.30 2.07459
1422.82 2.23825
1423.07 2.45978
1423.33 2.88034
1423.58 3.68921
1423.84 5.32693
1423.97 6.76677
1424.10 8.98280
1424.22 12.5534
1424.35 18.6711
1424.48 30.0751
1424.54 39.6645
1424.61 54.0292
1424.67 76.5391
1424.74 113.697
1424.80 178.382
1424.86 293.984
1424.93 492.279
1425.00 644.052
1425.07 538.165
1425.14 351.236
1425.21 216.511
1425.29 142.970
1425.36 101.292
1425.44 75.9740
1425.51 59.5764
1425.59 48.3749
1425.74 34.4734
1425.89 26.4616
1426.04 21.3917
1426.34 15.5096
1426.64 12.3000
1426.94 10.3234
1427.24 9.00103
1427.54 8.06449
1428.14 6.83060
1428.73 6.09139
1429.03 5.87886
1429.18 5.84193
1429.33 5.90408
1429.48 6.19677
1429.56 6.54223
1429.63 7.18447
1429.71 8.46295
1429.75 9.60660
1429.78 11.3369
1429.82 14.2524
1429.86 19.2181
1429.90 28.4873
1429.93 46.5667
1429.97 74.2184
1430.00 94.0580
1430.03 78.7965
1430.07 53.3422
1430.09 39.5234
1430.12 30.6196
1430.14 24.6052
1430.16 20.4463
1430.21 15.2346
1430.26 12.3688
1430.31 10.5663
1430.36 9.39941
1430.45 7.98209
1430.55 7.16626
1430.65 6.64791
1430.84 6.03175
1431.04 5.67054
1431.23 5.42968
1431.62 5.11313
1432.00 4.90294
1432.39 4.74553
1433.16 4.51358
1434.71 4.20620
1436.26 3.99509
1439.35 3.69265
1442.45 3.44987
1445.55 3.20640
1447.09 3.07046
1448.64 2.92074
1449.41 2.84329
1450.19 2.77173
1450.96 2.72532
1451.74 2.76084
1452.12 2.85682
1452.51 3.06926
1452.90 3.51642
1453.28 4.48137
1453.67 6.75567
1453.87 9.07238
1454.06 13.1529
1454.25 21.1319
1454.35 28.1218
1454.45 38.8627
1454.54 56.6966
1454.64 87.7563
1454.74 147.508
1454.78 196.632
1454.83 265.984
1454.92 443.420
1455.00 575.669
1455.09 479.863
1455.17 314.301
1455.23 227.714
1455.29 169.288
1455.35 129.974
1455.41 103.260
1455.53 69.8025
1455.66 51.1658
1455.78 39.6115
1455.90 32.0625
1456.14 22.9908
1456.38 17.8933
1456.63 14.7258
1456.87 12.6042
1457.11 11.1069
1457.60 9.14441
1458.08 7.93959
1458.57 7.13049
1459.05 6.55134
1460.02 5.77303
1460.99 5.26025
1461.48 5.05785
1461.72 4.96975
1461.96 4.89879
1462.21 4.87286
1462.33 4.90595
1462.45 5.01871
1462.57 5.33339
1462.63 5.66838
1462.69 6.25431
1462.75 7.39587
1462.81 9.79496
1462.84 12.1497
1462.87 15.9341
1462.90 22.4905
1462.93 34.1237
1462.95 43.9395
1462.97 54.9551
1463.00 71.5276
1463.03 61.1399
1463.07 41.8123
1463.11 27.0061
1463.14 19.1910
1463.18 14.8625
1463.22 12.2669
1463.26 10.5966
1463.30 9.45795
1463.38 8.05557
1463.46 7.22748
1463.53 6.70270
1463.69 6.07329
1463.84 5.71311
1464.00 5.48197
1464.31 5.19614
1464.62 5.01989
1464.93 4.89618
1465.55 4.72401
1466.17 4.60254
1466.79 4.50773
1468.03 4.36256
1470.52 4.16109
1473.00 4.01683
1475.48 3.89918
1477.97 3.78944
1479.21 3.73003
1480.45 3.66053
1481.07 3.62149
1481.38 3.60394
1481.69 3.59547
1482.00 3.62077
1482.16 3.67139
1482.31 3.79102
1482.47 4.08833
1482.55 4.40055
1482.62 4.95413
1482.70 6.05952
1482.74 7.03835
1482.78 8.52516
1482.82 11.0444
1482.86 15.5343
1482.90 24.2106
1482.91 31.2803
1482.93 41.2767
1482.95 53.1920
1482.97 67.2393
1483.00 86.3904
1483.03 72.6499
1483.07 49.0338
1483.09 37.4495
1483.11 29.6262
1483.15 19.9421
1483.20 14.7987
1483.24 11.8047
1483.28 9.91983
1483.33 8.65708
1483.41 7.13069
1483.50 6.25131
1483.58 5.70474
1483.75 5.06768
1483.92 4.71777
1484.10 4.50251
1484.44 4.25308
1484.78 4.11341
1485.12 4.02419
1485.81 3.91447
1486.49 3.84701
1487.18 3.79935
1488.54 3.73193
1491.28 3.64171
1494.02 3.57319
1499.50 3.45560
1504.97 3.33956
1510.45 3.20433
1513.19 3.11985
1515.93 3.01380
1517.30 2.94798
1518.67 2.86957
1520.04 2.77361
1521.40 2.65344
1522.09 2.58220
1522.77 2.50404
1523.46 2.42370
1524.14 2.36158
1524.49 2.35687
1524.83 2.39870
1525.17 2.54353
1525.51 2.93358
1525.68 3.33063
1525.85 3.99291
1526.03 5.15082
1526.20 7.31208
1526.28 9.12307
1526.37 11.7675
1526.45 15.8894
1526.54 22.5049
1526.62 34.1599
1526.67 43.3868
1526.71 56.1068
1526.75 75.0508
1526.80 103.596
1526.84 147.743
1526.88 214.247
1526.94 356.810
1527.00 465.329
1527.06 389.824
1527.12 255.586
1527.19 155.242
1527.26 101.621
1527.33 71.7314
1527.40 53.7802
1527.47 42.2455
1527.53 34.4101
1527.67 24.7905
1527.81 19.2240
1527.95 15.7345
1528.22 11.6743
1528.50 9.46105
1528.77 8.09830
1529.05 7.18653
1529.32 6.53854
1529.87 5.68327
1530.42 5.14762
1530.97 4.77863
1531.52 4.50616
1532.62 4.11896
1533.17 3.97098
1533.72 3.84347
1534.27 3.74413
1534.55 3.72039
1534.82 3.74528
1535.10 3.90642
1535.24 4.12194
1535.37 4.55786
1535.51 5.53342
1535.58 6.48090
1535.65 8.06402
1535.72 11.0209
1535.79 17.1543
1535.82 22.9520
1535.86 32.1339
1535.89 47.7329
1535.92 74.7920
1535.96 122.886
1536.00 159.456
1536.04 133.390
1536.08 87.8868
1536.10 66.8230
1536.12 52.4203
1536.17 34.7027
1536.22 24.9123
1536.26 19.2768
1536.31 15.6251
1536.36 13.2210
1536.45 10.2655
1536.54 8.56071
1536.63 7.49921
1536.82 6.26178
1537.00 5.58416
1537.19 5.16313
1537.56 4.67200
1537.93 4.39347
1538.30 4.21129
1539.04 3.97921
1539.78 3.82820
1540.52 3.71407
1542.00 3.53266
1543.48 3.36616
1544.22 3.27686
1544.96 3.17835
1545.33 3.12557
1545.70 3.07269
1546.07 3.02678
1546.44 3.01064
1546.62 3.03361
1546.81 3.10490
1546.99 3.27613
1547.18 3.67236
1547.36 4.64657
1547.46 5.66283
1547.55 7.46182
1547.64 11.0296
1547.69 14.1317
1547.73 18.9507
1547.78 27.0809
1547.80 33.0646
1547.83 41.1340
1547.85 52.2286
1547.87 67.7580
1547.90 89.7507
1547.92 120.736
1547.96 200.686
1548.00 262.119
1548.04 220.572
1548.08 145.633
1548.13 92.1662
1548.17 62.3254
1548.21 45.1414
1548.26 34.5868
1548.30 27.6967
1548.35 22.9622
1548.43 17.1000
1548.52 13.6520
1548.61 11.4824
1548.78 8.93265
1548.96 7.52709
1549.13 6.66393
1549.31 6.08463
1549.48 5.67218
1549.84 5.12700
1550.19 4.78691
1550.54 4.55452
1550.89 4.38550
1551.59 4.15464
1552.29 4.00295
1553.69 3.80995
1555.09 3.68655
1556.49 3.59639
1559.29 3.46360
1564.90 3.26986
1570.50 3.09643
1576.11 2.90207
1578.91 2.78452
1581.71 2.64322
1584.52 2.46497
1585.92 2.35569
1587.32 2.22802
1588.72 2.07753
1589.42 1.99299
1590.12 1.90456
1590.82 1.82315
1591.17 1.79895
1591.52 1.81314
1591.87 1.94535
1592.05 2.13333
1592.22 2.53349
1592.40 3.46606
1592.48 4.41364
1592.53 5.12545
1592.57 6.06461
1592.62 7.39460
1592.66 9.29753
1592.70 12.1213
1592.73 14.0599
1592.75 16.3797
1592.77 19.4703
1592.79 23.4843
1592.81 28.7894
1592.83 35.9331
1592.86 45.7391
1592.88 59.4375
1592.90 78.7856
1592.92 104.508
1592.96 174.892
1593.00 227.071
1593.02 218.539
1593.04 189.757
1593.08 125.402
1593.11 90.9101
1593.14 67.7531
1593.17 52.2439
1593.19 41.9066
1593.25 28.7334
1593.31 21.4851
1593.37 16.9623
1593.42 14.0467
1593.54 10.5674
1593.65 8.64523
1593.77 7.50696
1594.00 6.33948
1594.23 5.92594
1594.46 5.95235
1594.91 7.11781
1595.37 10.5564
1595.60 14.0380
1595.83 20.0168
1596.06 31.0813
1596.17 40.3434
1596.29 53.9621
1596.40 75.2208
1596.52 109.416
1596.63 168.123
1596.75 269.133
1596.87 447.223
1597.00 581.820
1597.13 484.530
1597.26 316.383
1597.34 234.501
1597.42 178.146
1597.59 111.105
1597.76 76.1764
1597.93 56.1010
1598.10 43.5744
1598.27 35.2364
1598.61 25.1601
1598.94 19.4554
1599.28 15.8983
1599.96 11.7965
1600.63 9.56506
1601.31 8.18707
1601.98 7.25968
1602.66 6.59527
1604.01 5.70623
1605.36 5.13258
1606.71 4.72235
1608.06 4.40368
1610.76 3.89736
1612.11 3.66570
1613.46 3.42499
1614.81 3.16235
1615.48 3.02743
1616.16 2.91563
1616.50 2.89186
1616.83 2.92431
1617.17 3.08117
1617.51 3.53067
1617.85 4.76859
1618.01 6.12011
1618.18 8.59658
1618.27 10.6540
1618.35 13.6181
1618.44 18.1552
1618.52 25.2532
1618.61 37.3085
1618.69 58.7881
1618.73 76.0909
1618.77 100.730
1618.82 136.323
1618.86 187.567
1618.93 316.954
1619.00 416.693
1619.07 351.240
1619.14 232.712
1619.19 173.699
1619.24 132.512
1619.33 84.1377
1619.43 58.7149
1619.52 43.9904
1619.62 34.6610
1619.72 28.4893
1619.91 20.9510
1620.10 16.6368
1620.29 13.9328
1620.67 10.7821
1621.05 9.04993
1621.43 7.97184
1621.81 7.24228
1622.19 6.71914
1622.95 6.01726
1623.71 5.56907
1624.48 5.25680
1625.24 5.02564
1626.76 4.70163
1628.28 4.48136
1631.33 4.18929
1634.38 3.99285
1637.43 3.84224
1643.52 3.60277
1649.61 3.38722
1652.66 3.27309
1655.71 3.14501
1658.75 2.99041
1660.28 2.89630
1661.80 2.78503
1663.33 2.65109
1664.09 2.57671
1664.85 2.50694
1665.23 2.48308
1665.61 2.48109
1665.99 2.53023
1666.37 2.70615
1666.56 2.90068
1666.75 3.23892
1666.94 3.85538
1667.13 5.04106
1667.33 7.60337
1667.42 10.0351
1667.52 14.1262
1667.61 21.6041
1667.66 27.8724
1667.71 36.9468
1667.75 51.2559
1667.80 73.9396
1667.85 113.315
1667.90 180.090
1667.95 298.659
1668.00 385.043
1668.05 319.475
1668.11 209.066
1668.14 157.553
1668.17 120.952
1668.24 77.1589
1668.30 53.6159
1668.37 39.8180
1668.43 31.1028
1668.50 25.2569
1668.63 18.1338
1668.76 14.1008
1668.89 11.5786
1669.15 8.68326
1669.41 7.11274
1669.67 6.15377
1669.93 5.51241
1670.19 5.05570
1670.71 4.44874
1671.23 4.06277
1672.27 3.58528
1673.31 3.28209
1674.35 3.05306
1676.43 2.67983
1677.47 2.50847
1678.52 2.34434
1679.56 2.20256
1680.60 2.14094
1681.12 2.19258
1681.64 2.37226
1682.16 2.81853
1682.68 3.86292
1682.94 4.85661
1683.20 6.45127
1683.46 9.13080
1683.72 13.9188
1683.85 17.7616
1683.98 23.2675
1684.11 31.4356
1684.24 44.0830
1684.37 64.7293
1684.50 100.664
1684.63 167.787
1684.70 222.517
1684.76 298.868
1684.88 502.716
1685.00 660.911
1685.12 556.320
1685.24 365.898
1685.33 260.246
1685.43 191.371
1685.52 145.468
1685.61 114.676
1685.80 77.1610
1685.98 56.4681
1686.16 43.7565
1686.35 35.4506
1686.72 25.4602
1687.09 19.8489
1687.46 16.3569
1687.83 14.0048
1688.19 12.3297
1688.93 10.1250
1689.67 8.75783
1690.41 7.83287
1691.15 7.16740
1692.62 6.27315
1694.10 5.69597
1695.58 5.28578
1697.05 4.97171
1700.01 4.49080
1701.49 4.28271
1702.96 4.07573
1704.44 3.85765
1705.18 3.74623
1705.91 3.64886
1706.28 3.62058
1706.65 3.62907
1707.02 3.71987
1707.39 4.00878
1707.76 4.83889
1707.95 5.77034
1708.13 7.51455
1708.31 11.1491
1708.41 14.4748
1708.50 19.8650
1708.59 29.3417
1708.68 47.1410
1708.73 62.2245
1708.78 84.7304
1708.82 119.125
1708.87 171.793
1708.93 287.273
1709.00 374.443
1709.07 313.955
1709.13 207.393
1709.19 142.960
1709.25 103.095
1709.30 77.7079
1709.36 60.9372
1709.47 41.0349
1709.58 30.3980
1709.70 23.9551
1709.81 19.8095
1710.03 14.8665
1710.26 12.1216
1710.48 10.4165
1710.71 9.27141
1710.93 8.45700
1711.38 7.38636
1711.83 6.72018
1712.28 6.26802
1712.73 5.94204
1713.63 5.50057
1714.53 5.21414
1716.33 4.85638
1718.13 4.63336
1719.93 4.47388
1723.53 4.24391
1727.12 4.06237
1728.92 3.97406
1730.72 3.87846
1732.52 3.76383
1733.42 3.69260
1734.32 3.60576
1735.22 3.49644
1735.67 3.43323
1736.12 3.37198
1736.34 3.35017
1736.57 3.34724
1736.79 3.38966
1737.02 3.54573
1737.13 3.71972
1737.24 4.02089
1737.36 4.56886
1737.47 5.60575
1737.58 7.80012
1737.64 9.81596
1737.69 13.0953
1737.75 18.7954
1737.78 23.2803
1737.81 29.5975
1737.83 38.7487
1737.86 52.3915
1737.89 73.2149
1737.92 105.069
1737.96 175.597
1738.00 230.743
1738.02 222.477
1738.04 194.773
1738.08 128.998
1738.11 98.1063
1738.13 76.8380
1738.18 50.6035
1738.23 36.0742
1738.28 27.6632
1738.34 22.2018
1738.39 18.5868
1738.49 14.1230
1738.59 11.5356
1738.69 9.90248
1738.89 8.01290
1739.09 6.97055
1739.29 6.32742
1739.49 5.89194
1739.69 5.58206
1740.10 5.16941
1740.50 4.90862
1740.90 4.72872
1741.31 4.59661
1742.11 4.41378
1742.92 4.29080
1744.53 4.12876
1746.14 4.01846
1747.75 3.93125
1750.98 3.78204
1754.20 3.62806
1755.81 3.53617
1757.42 3.42429
1758.23 3.35733
1759.04 3.28113
1759.84 3.19570
1760.65 3.10794
1761.05 3.07212
1761.45 3.05656
1761.86 3.09260
1762.26 3.26295
1762.46 3.46363
1762.66 3.82205
1762.86 4.48653
1763.07 5.77694
1763.27 8.56428
1763.37 11.2060
1763.47 15.5507
1763.57 23.4003
1763.62 29.6848
1763.67 38.7385
1763.72 52.5632
1763.77 73.6063
1763.82 107.233
1763.87 161.435
1763.94 270.262
1764.00 354.620
1764.07 298.191
1764.13 196.303
1764.18 143.064
1764.22 107.089
1764.27 82.8454
1764.32 66.4145
1764.41 45.6670
1764.50 34.0925
1764.60 26.8702
1764.69 22.1459
1764.88 16.4376
1765.06 13.2050
1765.25 11.1854
1765.44 9.82629
1765.62 8.86424
1766.00 7.59558
1766.37 6.81372
1766.74 6.28780
1767.12 5.91209
1767.86 5.41342
1768.61 5.09922
1769.36 4.88334
1770.10 4.72584
1771.60 4.50974
1773.09 4.36721
1774.59 4.26455
1776.08 4.18607
1779.07 4.07100
1782.05 3.98745
1788.03 3.86475
1794.00 3.76602
1796.99 3.71758
1799.97 3.66495
1802.96 3.60119
1804.46 3.56068
1805.95 3.50936
1807.44 3.43885
1808.19 3.39167
1808.94 3.33277
1809.68 3.26073
1810.06 3.22396
1810.43 3.20059
1810.62 3.20563
1810.80 3.23881
1810.99 3.33273
1811.18 3.56619
1811.36 4.17292
1811.46 4.81585
1811.55 5.98671
1811.64 8.36026
1811.69 10.4897
1811.74 13.7773
1811.78 19.4012
1811.83 29.3009
1811.85 37.6599
1811.88 49.1289
1811.90 65.6686
1811.92 89.4280
1811.96 148.349
1812.00 193.929
1812.04 163.753
1812.08 108.717
1812.12 69.9311
1812.16 47.9864
1812.20 35.2173
1812.24 27.3159
1812.28 22.1299
1812.32 18.5517
1812.41 14.1055
1812.49 11.4765
1812.57 9.80199
1812.73 7.85514
1812.90 6.77802
1813.06 6.11576
1813.22 5.66876
1813.39 5.35281
1813.71 4.93569
1814.04 4.67594
1814.37 4.49965
1814.69 4.37281
1815.35 4.20157
1816.00 4.09150
1816.65 4.01408
1817.31 3.95634
1818.62 3.87442
1819.92 3.81766
1822.54 3.73971
1825.15 3.68393
1827.77 3.63795
1832.99 3.55554
1838.22 3.46662
1840.84 3.41176
1843.45 3.34208
1846.07 3.24432
1847.37 3.17650
1848.68 3.08699
1849.33 3.03033
1849.99 2.96307
1850.64 2.88278
1851.29 2.78993
1851.62 2.74191
1851.95 2.69999
1852.27 2.68089
1852.60 2.73154
1852.76 2.82178
1852.93 3.00487
1853.09 3.37437
1853.25 4.13676
1853.42 5.87436
1853.50 7.58252
1853.58 10.4663
1853.62 12.7251
1853.66 15.8735
1853.70 20.3941
1853.74 26.9182
1853.79 37.2268
1853.83 53.9539
1853.87 82.3572
1853.91 129.942
1853.95 218.723
1854.00 285.932
1854.02 275.287
1854.05 240.040
1854.09 159.002
1854.14 104.919
1854.18 73.5080
1854.23 54.3973
1854.27 42.1841
1854.32 33.8258
1854.36 28.1108
1854.45 20.8128
1854.54 16.4491
1854.62 13.6730
1854.80 10.3784
1854.98 8.55421
1855.16 7.42079
1855.33 6.65994
1855.51 6.12250
1855.86 5.45728
1856.04 5.28913
1856.22 5.26729
1856.39 5.54011
1856.48 5.92737
1856.57 6.68090
1856.66 8.26179
1856.70 9.67391
1856.75 11.9038
1856.79 15.7337
1856.84 22.4743
1856.88 35.5494
1856.90 46.5733
1856.93 62.3476
1856.96 102.054
1857.00 131.500
1857.04 110.777
1857.08 74.6101
1857.12 47.0492
1857.16 32.2157
1857.20 23.9010
1857.25 18.8837
1857.29 15.6452
1857.33 13.4355
1857.42 10.7131
1857.50 9.11259
1857.59 8.09177
1857.76 6.89371
1857.93 6.21661
1858.10 5.78821
1858.45 5.27228
1858.79 4.96838
1859.13 4.76591
1859.82 4.50618
1860.50 4.34248
1861.19 4.22775
1862.56 4.07396
1863.93 3.97314
1865.30 3.90055
1868.04 3.80018
1870.78 3.73131
1873.52 3.67887
1879.00 3.59853
1884.48 3.53179
1889.96 3.46367
1892.71 3.42224
1894.08 3.39685
1895.45 3.36574
1896.82 3.32471
1897.50 3.29825
1898.19 3.26617
1898.87 3.22884
1899.22 3.21132
1899.56 3.20334
1899.90 3.23380
1900.07 3.29342
1900.24 3.43478
1900.41 3.79174
1900.50 4.16725
1900.59 4.83714
1900.67 6.18069
1900.71 7.37562
1900.76 9.20309
1900.80 12.3086
1900.84 17.8803
1900.89 28.7516
1900.91 37.7198
1900.93 50.5173
1900.96 83.5742
1901.00 108.292
1901.04 90.7332
1901.07 60.5880
1901.11 41.5902
1901.14 30.0230
1901.17 22.8835
1901.21 18.2755
1901.27 12.9619
1901.34 10.1481
1901.40 8.47774
1901.47 7.40077
1901.60 6.13805
1901.73 5.43366
1901.86 4.99761
1902.13 4.49929
1902.39 4.22653
1902.65 4.05780
1903.18 3.86101
1903.71 3.74977
1904.23 3.67779
1905.29 3.58808
1906.34 3.53140
1907.39 3.48961
1909.50 3.42392
1911.61 3.36199
1912.66 3.32662
1913.72 3.28412
1914.77 3.22888
1915.30 3.19406
1915.82 3.15391
1916.35 3.11376
1916.61 3.10304
1916.88 3.11897
1917.14 3.22256
1917.27 3.36700
1917.40 3.66899
1917.53 4.36729
1917.60 5.06039
1917.67 6.23515
1917.73 8.46408
1917.80 13.1625
1917.83 17.5778
1917.86 24.8502
1917.90 37.4466
1917.91 46.7147
1917.93 58.8972
1917.95 76.6117
1917.96 97.6687
1918.00 127.983
1918.02 123.607
1918.04 107.977
1918.07 71.7344
1918.11 46.3244
1918.15 32.0502
1918.19 23.7790
1918.22 18.6731
1918.26 15.3265
1918.30 13.0193
1918.38 10.1276
1918.45 8.44357
1918.53 7.36966
1918.68 6.11949
1918.83 5.42592
1918.98 4.99882
1919.29 4.50530
1919.59 4.23447
1919.89 4.06516
1920.50 3.86622
1921.10 3.75286
1921.71 3.67926
1922.92 3.58742
1924.14 3.53022
1925.35 3.48939
1927.77 3.43072
1930.20 3.38603
1932.62 3.34696
1937.47 3.27119
1942.32 3.18194
1944.75 3.12423
1947.17 3.04965
1948.38 3.00242
1949.60 2.94556
1950.81 2.87566
1952.02 2.78923
1952.63 2.73957
1953.23 2.68808
1953.84 2.64249
1954.45 2.62840
1954.75 2.65578
1955.05 2.73781
1955.35 2.93409
1955.66 3.38983
1955.96 4.51736
1956.11 5.69679
1956.26 7.80378
1956.42 11.9895
1956.49 15.6934
1956.57 21.4058
1956.64 30.9845
1956.72 48.0471
1956.76 61.6902
1956.79 81.0002
1956.83 108.698
1956.87 147.023
1956.94 246.485
1957.00 321.702
1957.07 269.466
1957.13 177.680
1957.17 133.955
1957.22 103.017
1957.30 65.7834
1957.38 46.0056
1957.47 34.5957
1957.55 27.3057
1957.63 22.4234
1957.80 16.4991
1957.97 13.1120
1958.14 10.9974
1958.47 8.54674
1958.81 7.21195
1959.14 6.38939
1959.48 5.83847
1959.81 5.44670
1960.48 4.93080
1961.15 4.60876
1961.82 4.38963
1962.49 4.23134
1963.83 4.01727
1965.17 3.87890
1966.51 3.78141
1967.85 3.70844
1970.53 3.60463
1973.21 3.53237
1978.57 3.43270
1983.93 3.36102
1989.28 3.30181
2000.00 3.19673
2013.23 3.06301
2019.85 2.98492
2026.46 2.89209
2033.08 2.77500
2039.69 2.61562
2043.00 2.50900
2046.31 2.37289
2047.96 2.28954
2049.61 2.19792
2050.44 2.16004
2050.85 2.15419
2051.27 2.17584
2051.68 2.27641
2051.89 2.40503
2052.09 2.66414
2052.30 3.24825
2052.40 3.82302
2052.51 4.82529
2052.61 6.78271
2052.66 8.50320
2052.71 11.1385
2052.77 15.6113
2052.82 23.5073
2052.84 30.0340
2052.87 39.4509
2052.89 53.2788
2052.92 72.5793
2052.96 118.123
2053.00 149.831
2053.04 122.988
2053.08 80.1318
2053.12 50.5905
2053.16 34.3194
2053.21 24.6364
2053.25 18.8154
2053.29 14.9217
2053.33 12.3170
2053.41 9.06629
2053.50 7.17229
2053.58 5.98283
2053.74 4.62466
2053.91 3.88955
2054.07 3.44501
2054.40 2.94111
2054.74 2.66568
2055.07 2.49233
2055.73 2.28086
2057.05 2.06974
2058.37 2.01699
2059.03 2.07907
2059.69 2.26153
2060.35 2.68256
2061.02 3.62557
2061.35 4.49775
2061.68 5.87360
2062.01 8.15200
2062.34 12.1306
2062.67 19.7313
2062.83 26.2040
2063.00 36.0088
2063.16 51.6836
2063.33 77.8168
2063.49 124.114
2063.66 208.563
2063.83 351.676
2064.00 462.486
2064.17 389.751
2064.34 257.261
2064.46 190.862
2064.57 144.763
2064.69 112.950
2064.80 90.7380
2065.04 62.6338
2065.27 46.4681
2065.50 36.3605
2065.73 29.6148
2066.19 21.4106
2066.65 16.7469
2067.12 13.8222
2068.04 10.4325
2068.96 8.57200
2069.89 7.41785
2070.81 6.63732
2071.74 6.07766
2073.59 5.32880
2075.44 4.84918
2077.28 4.51198
2079.13 4.25760
2082.83 3.88279
2086.53 3.58792
2088.38 3.44450
2089.30 3.36858
2090.23 3.28718
2091.15 3.19846
2091.61 3.15279
2092.08 3.11196
2092.54 3.09724
2092.77 3.12312
2093.00 3.21356
2093.23 3.47952
2093.35 3.78077
2093.46 4.34610
2093.58 5.53899
2093.64 6.65094
2093.69 8.44215
2093.75 11.6599
2093.81 17.9638
2093.84 23.4981
2093.87 32.0449
2093.90 45.6837
2093.93 66.6753
2093.96 110.154
2094.00 141.973
2094.04 117.959
2094.08 77.8861
2094.11 52.1832
2094.14 37.1855
2094.18 27.7476
2094.21 21.8806
2094.28 15.0538
2094.35 11.4725
2094.42 9.36105
2094.49 8.00671
2094.63 6.42644
2094.76 5.54883
2094.90 5.00905
2095.18 4.38389
2095.45 4.03707
2095.73 3.81530
2096.28 3.54007
2096.83 3.36448
2097.38 3.23174
2098.48 3.01775
2099.03 2.92189
2099.58 2.83249
2100.13 2.75873
2100.68 2.73370
2100.95 2.76868
2101.23 2.87580
2101.50 3.13039
2101.78 3.71410
2102.05 5.13702
2102.19 6.60934
2102.33 9.21331
2102.46 14.3316
2102.53 18.8169
2102.60 25.6621
2102.67 37.0227
2102.74 56.9485
2102.81 94.5997
2102.84 125.087
2102.88 167.733
2102.94 280.068
2103.00 366.412
2103.06 307.558
2103.12 202.094
2103.17 148.866
2103.21 113.000
2103.25 87.7801
2103.29 70.5320
2103.38 48.6573
2103.46 36.2788
2103.55 28.4708
2103.63 23.2866
2103.80 17.0448
2103.97 13.4995
2104.14 11.2932
2104.48 8.73910
2104.82 7.34529
2105.16 6.48210
2105.50 5.89975
2105.84 5.48286
2106.51 4.92273
2107.19 4.56264
2108.55 4.11644
2109.90 3.83559
2111.26 3.62795
2113.97 3.29789
2115.32 3.14343
2116.68 2.98256
2118.03 2.80711
2119.39 2.61284
2120.07 2.51189
2120.74 2.41830
2121.42 2.35711
2122.10 2.40147
2122.44 2.52396
2122.78 2.79457
2123.12 3.36048
2123.45 4.56191
2123.62 5.65082
2123.79 7.33836
2123.96 10.1001
2124.13 14.8308
2124.30 23.7148
2124.39 31.1756
2124.47 42.1500
2124.56 59.3829
2124.64 87.0589
2124.73 134.733
2124.81 216.463
2124.91 365.726
2125.00 481.108
2125.10 405.831
2125.19 268.617
2125.27 185.212
2125.36 132.734
2125.44 99.4874
2125.52 77.8261
2125.68 52.1088
2125.84 38.2015
2126.01 29.8310
2126.17 24.3805
2126.50 17.8909
2126.82 14.2689
2127.15 12.0095
2127.47 10.4868
2127.80 9.40080
2128.45 7.96760
2129.11 7.07576
2129.76 6.47045
2130.41 6.03399
2131.71 5.44708
2133.02 5.07042
2134.32 4.80665
2135.63 4.61029
2138.24 4.33364
2140.84 4.14360
2146.06 3.88561
2151.28 3.70027
2156.50 3.53628
2159.10 3.44855
2160.41 3.39912
2161.71 3.34252
2163.02 3.27335
2163.67 3.23112
2164.32 3.18134
2164.97 3.12296
2165.30 3.09276
2165.63 3.06955
2165.95 3.08042
2166.11 3.12762
2166.28 3.25386
2166.44 3.58865
2166.52 3.95068
2166.60 4.60351
2166.69 5.92377
2166.73 7.10203
2166.77 8.90319
2166.81 11.9650
2166.85 17.4432
2166.87 21.9638
2166.89 28.0678
2166.91 36.7639
2166.93 49.1028
2166.95 63.9823
2166.97 81.6712
2167.00 106.308
2167.02 102.648
2167.04 89.5080
2167.07 60.0341
2167.11 40.0483
2167.14 28.3665
2167.18 21.3883
2167.21 17.0890
2167.25 14.1281
2167.28 12.1164
2167.35 9.51353
2167.42 7.95878
2167.49 6.97504
2167.63 5.81297
2167.76 5.16359
2167.90 4.76171
2168.18 4.29447
2168.46 4.03304
2168.73 3.86636
2169.29 3.66297
2169.84 3.53773
2170.39 3.44762
2171.50 3.31114
2172.61 3.19175
2173.71 3.06520
2174.27 3.00007
2174.54 2.97497
2174.82 2.97187
2175.10 3.04166
2175.23 3.15350
2175.37 3.39895
2175.51 3.98014
2175.58 4.55805
2175.65 5.55937
2175.72 7.44034
2175.79 11.4050
2175.82 15.1955
2175.86 21.2512
2175.89 32.0451
2175.91 40.0434
2175.93 50.5950
2175.96 83.9337
2176.00 109.023
2176.02 105.273
2176.04 91.8661
2176.08 61.6389
2176.11 41.9187
2176.14 30.2917
2176.18 22.9180
2176.21 18.3049
2176.28 12.8964
2176.35 10.0323
2176.42 8.32988
2176.49 7.22968
2176.63 5.93365
2176.76 5.20509
2176.90 4.75209
2177.18 4.22030
2177.45 3.92022
2177.73 3.72543
2178.28 3.47890
2179.38 3.19135
2180.48 2.97689
2181.03 2.87293
2181.58 2.76797
2182.13 2.66640
2182.68 2.59142
2182.95 2.58666
2183.23 2.63696
2183.50 2.80648
2183.78 3.25377
2184.05 4.43393
2184.19 5.70293
2184.33 7.99827
2184.40 9.87796
2184.47 12.6004
2184.53 16.6860
2184.60 22.9769
2184.67 33.5124
2184.74 52.1686
2184.78 67.2340
2184.81 87.7981
2184.84 116.892
2184.88 157.850
2184.94 266.705
2185.00 350.461
2185.06 295.820
2185.12 196.520
2185.16 149.209
2185.20 115.446
2185.28 74.4066
2185.36 52.3747
2185.44 39.4443
2185.51 31.2507
2185.59 25.7311
2185.75 18.9901
2185.90 15.1027
2186.06 12.6605
2186.37 9.80630
2186.68 8.23634
2186.99 7.26063
2187.30 6.60213
2187.61 6.13059
2188.23 5.50387
2188.86 5.10794
2189.48 4.83548
2190.10 4.63632
2191.34 4.36350
2192.59 4.18374
2193.83 4.05481
2195.08 3.95662
2197.56 3.81399
2200.05 3.71205
2205.03 3.56721
2210.01 3.45988
2214.98 3.36925
2224.93 3.20320
2234.89 3.02254
2239.86 2.91258
2244.84 2.77652
2249.82 2.59444
2252.30 2.47494
2254.79 2.32686
2256.04 2.23978
2257.28 2.14448
2258.52 2.04658
2259.77 1.96888
2260.39 1.95954
2261.01 2.00199
2261.63 2.15857
2262.26 2.58448
2262.88 3.72989
2263.19 4.97070
2263.50 7.25551
2263.66 9.13790
2263.81 11.8648
2263.97 16.0190
2264.12 22.5645
2264.28 33.6531
2264.43 53.6257
2264.51 69.9514
2264.59 93.4109
2264.67 127.665
2264.74 176.779
2264.87 298.117
2265.00 391.787
2265.13 329.566
2265.26 217.269
2265.33 166.786
2265.41 130.147
2265.56 84.8449
2265.72 59.8887
2265.87 44.9976
2266.02 35.4602
2266.18 28.9898
2266.48 21.0016
2266.79 16.4096
2267.09 13.5016
2267.71 10.1143
2268.32 8.25038
2268.93 7.09043
2269.54 6.30514
2270.15 5.73969
2271.38 4.97733
2272.60 4.48074
2275.05 3.83824
2277.50 3.38080
2278.72 3.17147
2279.95 2.96137
2280.56 2.85687
2281.17 2.75885
2281.78 2.68410
2282.40 2.68293
2282.70 2.75213
2283.01 2.92479
2283.31 3.30489
2283.62 4.13872
2283.93 6.10324
2284.08 8.07942
2284.23 11.5310
2284.39 18.0919
2284.46 23.7363
2284.54 32.1820
2284.62 45.7876
2284.69 68.3380
2284.77 109.012
2284.84 182.636
2284.92 306.047
2285.00 401.586
2285.08 337.882
2285.16 222.428
2285.21 160.562
2285.27 119.185
2285.33 91.5594
2285.39 72.9097
2285.50 49.7936
2285.62 36.8267
2285.73 28.7950
2285.85 23.5480
2286.08 17.2282
2286.31 13.6592
2286.54 11.4364
2287.00 8.86523
2287.46 7.45057
2287.92 6.56951
2288.38 5.96817
2288.84 5.53285
2289.76 4.93767
2290.68 4.54285
2292.53 4.01906
2294.37 3.63514
2295.29 3.45516
2296.21 3.26769
2297.13 3.06511
2297.59 2.96316
2298.05 2.88184
2298.29 2.86722
2298.52 2.89691
2298.75 3.02232
2298.98 3.37062
2299.21 4.31254
2299.32 5.32304
2299.44 7.16664
2299.55 10.8329
2299.61 14.1106
2299.67 19.1426
2299.72 27.5889
2299.78 42.1943
2299.81 53.9169
2299.84 70.3611
2299.87 93.6881
2299.90 125.262
2299.95 210.170
2300.00 276.831
2300.05 234.796
2300.10 156.104
2300.14 118.789
2300.17 92.1275
2300.24 60.0361
2300.30 42.4491
2300.37 32.2558
2300.43 25.6797
2300.50 21.3104
2300.63 15.8900
2300.76 12.7823
2300.89 10.8147
2301.15 8.52465
2301.41 7.25293
2301.67 6.46020
2301.94 5.91855
2302.20 5.52825
2302.72 4.99821
2303.24 4.65365
2304.29 4.21890
2305.34 3.93937
2306.38 3.72934
2308.48 3.39070
2310.57 3.06481
2311.61 2.88262
2312.66 2.67803
2313.18 2.56848
2313.71 2.46160
2314.23 2.37715
2314.75 2.37584
2315.02 2.45785
2315.28 2.66348
2315.54 3.12064
2315.80 4.12106
2315.93 5.03749
2316.06 6.47533
2316.19 8.82333
2316.32 12.8339
2316.39 15.9981
2316.45 20.3396
2316.52 26.6582
2316.58 35.8747
2316.65 50.2896
2316.72 73.1048
2316.78 111.163
2316.85 175.618
2316.92 298.569
2317.00 394.880
2317.08 335.051
2317.16 223.260
2317.21 161.940
2317.27 121.356
2317.33 93.6156
2317.39 74.8510
2317.50 51.5293
2317.62 38.3948
2317.73 30.2824
2317.85 24.9065
2318.07 18.4203
2318.30 14.7262
2318.53 12.4095
2318.76 10.8310
2318.99 9.70511
2319.45 8.21053
2319.91 7.27493
2320.37 6.63825
2320.83 6.17832
2321.75 5.55842
2322.67 5.15984
2323.58 4.88015
2324.50 4.67155
2326.34 4.37694
2328.17 4.17423
2331.85 3.90017
2335.52 3.70931
2339.19 3.55654
2346.54 3.29360
2353.88 3.02593
2357.55 2.87096
2361.23 2.68891
2364.90 2.46591
2366.74 2.33435
2368.57 2.18851
2370.41 2.03370
2371.33 1.95935
2372.24 1.89633
2373.16 1.86230
2373.62 1.86859
2374.08 1.90719
2374.54 2.01708
2374.77 2.13529
2375.00 2.35632
2375.23 2.84045
2375.34 3.32446
2375.46 4.18204
2375.57 5.91698
2375.63 7.51091
2375.69 10.0424
2375.72 11.9480
2375.75 14.5117
2375.77 18.0442
2375.80 22.8400
2375.83 30.0323
2375.86 40.3725
2375.89 56.7211
2375.92 80.8545
2375.96 135.647
2376.00 179.075
2376.02 173.404
2376.04 151.777
2376.08 101.047
2376.11 76.9168
2376.14 59.8335
2376.19 39.2724
2376.25 28.3643
2376.30 22.0364
2376.35 18.0812
2376.41 15.4634
2376.52 12.3863
2376.62 10.7456
2376.73 9.84975
2376.95 9.20261
2377.38 10.1871
2377.81 13.5276
2378.24 20.5933
2378.45 26.7470
2378.67 36.0240
2378.89 50.7130
2379.10 74.8729
2379.32 116.732
2379.53 190.903
2379.77 322.003
2380.00 425.284
2380.24 360.218
2380.47 238.653
2380.70 158.187
2380.92 110.257
2381.15 81.2123
2381.37 62.7036
2381.60 50.2912
2381.83 41.5867
2382.28 30.4835
2382.73 23.9030
2383.18 19.6545
2384.09 14.6262
2384.99 11.8174
2385.89 10.0590
2386.80 8.86299
2387.70 8.00105
2389.51 6.83431
2391.31 6.05865
2392.22 5.74293
2393.12 5.45088
2393.57 5.31831
2393.80 5.26669
2394.03 5.24689
2394.25 5.32170
2394.36 5.45433
2394.48 5.74661
2394.59 6.42033
2394.65 7.08663
2394.70 8.19554
2394.76 10.2524
2394.82 14.3144
2394.84 17.9319
2394.87 23.5805
2394.90 32.7117
2394.93 48.2474
2394.96 77.7964
2395.00 101.716
2395.04 86.2972
2395.07 58.7847
2395.09 45.4598
2395.12 35.9758
2395.16 24.5576
2395.21 18.4854
2395.25 15.0020
2395.30 12.7426
2395.35 11.2244
2395.44 9.37808
2395.53 8.30477
2395.62 7.62904
2395.80 6.82515
2395.99 6.36926
2396.17 6.07411
2396.53 5.70641
2397.27 5.30206
2398.00 5.04070
2398.73 4.82206
2399.09 4.71990
2399.46 4.62824
2399.83 4.57834
2400.01 4.60607
2400.19 4.73542
2400.37 5.14184
2400.47 5.60723
2400.56 6.47161
2400.65 8.25674
2400.69 9.87137
2400.74 12.3702
2400.79 16.6481
2400.83 24.1518
2400.85 30.3052
2400.88 39.0753
2400.90 51.7483
2400.92 69.0530
2400.96 115.321
2401.00 150.974
2401.02 146.212
2401.04 127.916
2401.08 86.2340
2401.11 61.2546
2401.15 45.3348
2401.18 35.1343
2401.21 28.3605
2401.28 20.3208
2401.34 15.9398
2401.41 13.2875
2401.48 11.5518
2401.61 9.47196
2401.74 8.30100
2401.87 7.56393
2402.14 6.70097
2402.40 6.21651
2402.66 5.90647
2403.19 5.52898
2403.72 5.30088
2404.25 5.14323
2405.30 4.92918
2406.36 4.78091
2407.41 4.66600
2409.52 4.48813
2413.74 4.22586
2417.96 4.00890
2422.19 3.78852
2424.30 3.66060
2426.41 3.50590
2427.46 3.41217
2428.52 3.30258
2429.57 3.17205
2430.63 3.01653
2431.16 2.93088
2431.68 2.84648
2432.21 2.78111
2432.74 2.78864
2433.00 2.86526
2433.27 3.05219
2433.53 3.46208
2433.79 4.35564
2434.06 6.45843
2434.19 8.55944
2434.32 12.1942
2434.45 18.9915
2434.52 24.6908
2434.59 33.1756
2434.65 46.3274
2434.72 67.6612
2434.78 103.832
2434.85 165.067
2434.92 279.524
2435.00 370.542
2435.08 314.257
2435.15 208.409
2435.24 129.392
2435.32 86.8087
2435.41 62.3777
2435.49 47.6868
2435.58 38.0296
2435.67 31.4873
2435.84 23.2667
2436.01 18.4908
2436.18 15.4446
2436.52 11.8729
2436.86 9.89756
2437.20 8.66701
2437.55 7.83586
2437.89 7.24074
2438.57 6.45058
2439.26 5.95254
2439.94 5.61078
2440.62 5.36202
2441.99 5.02219
2443.36 4.79962
2444.73 4.64087
2446.09 4.52070
2448.83 4.34724
2451.57 4.22441
2457.04 4.05137
2462.51 3.92172
2467.98 3.80136
2470.71 3.73214
2472.08 3.69039
2473.45 3.63933
2474.82 3.57138
2475.50 3.52676
2476.18 3.47145
2476.87 3.40342
2477.21 3.36758
2477.55 3.34120
2477.89 3.36253
2478.06 3.43203
2478.24 3.61281
2478.41 4.08579
2478.49 4.59261
2478.58 5.49936
2478.66 7.30855
2478.71 8.90100
2478.75 11.3047
2478.79 15.3070
2478.83 22.0490
2478.86 27.5363
2478.88 34.7690
2478.90 44.7705
2478.92 58.5175
2478.96 97.3078
2479.00 128.117
2479.04 109.186
2479.08 73.3651
2479.11 55.2985
2479.14 43.1064
2479.19 28.4990
2479.25 20.6525
2479.30 16.1832
2479.36 13.3162
2479.41 11.4280
2479.52 9.10822
2479.63 7.76808
2479.74 6.92185
2479.95 5.93974
2480.17 5.39530
2480.39 5.05733
2480.82 4.66275
2481.26 4.44223
2481.69 4.30179
2482.56 4.13238
2483.43 4.03232
2484.30 3.96473
2486.04 3.87562
2487.78 3.81561
2489.52 3.76920
2493.00 3.69413
2496.48 3.62497
2498.22 3.58745
2499.96 3.54396
2501.70 3.48822
2502.57 3.45185
2503.44 3.40573
2504.31 3.34461
2505.18 3.26549
2505.62 3.23313
2505.84 3.23667
2506.05 3.28575
2506.27 3.47079
2506.38 3.69834
2506.49 4.14271
2506.60 5.10658
2506.65 6.00403
2506.70 7.47623
2506.76 10.1187
2506.81 15.1030
2506.84 19.3529
2506.87 25.7206
2506.89 35.4952
2506.92 50.9592
2506.96 84.7007
2507.00 111.155
2507.04 94.9391
2507.08 63.7964
2507.11 44.5620
2507.15 32.7483
2507.18 25.2725
2507.22 20.3536
2507.28 14.5669
2507.35 11.4392
2507.42 9.55540
2507.49 8.32713
2507.62 6.86131
2507.76 6.04037
2507.90 5.52650
2508.17 4.93058
2508.44 4.60172
2508.71 4.39571
2509.26 4.15361
2509.80 4.01601
2510.34 3.92712
2511.43 3.81714
2512.52 3.74963
2513.61 3.70224
2515.79 3.63594
2517.96 3.58746
2520.14 3.54692
2524.49 3.47402
2528.85 3.39767
2531.03 3.35266
2533.20 3.29786
2535.38 3.22458
2536.47 3.17543
2537.56 3.11202
2538.65 3.02594
2539.19 2.97115
2539.73 2.90881
2540.28 2.85153
2540.55 2.84349
2540.82 2.88809
2541.09 3.09581
2541.23 3.36566
2541.37 3.91389
2541.50 5.12397
2541.57 6.28327
2541.64 8.22172
2541.71 11.6985
2541.74 14.5070
2541.77 18.5511
2541.81 24.5648
2541.84 33.8169
2541.88 48.4815
2541.91 71.8722
2541.96 120.727
2542.00 158.351
2542.05 134.423
2542.09 90.3884
2542.14 59.0884
2542.18 41.3733
2542.23 30.6480
2542.28 24.0693
2542.32 19.6108
2542.37 16.5763
2542.46 12.6878
2542.56 10.4006
2542.65 8.93092
2542.84 7.19786
2543.02 6.23562
2543.21 5.63533
2543.58 4.94076
2543.95 4.55496
2544.32 4.31201
2545.07 4.02400
2545.81 3.85744
2546.55 3.74739
2548.04 3.60558
2549.53 3.51179
2551.01 3.43891
2553.99 3.31439
2556.96 3.18184
2558.45 3.09965
2559.93 2.99607
2560.68 2.93209
2561.42 2.85712
2562.17 2.76889
2562.91 2.66902
2563.65 2.57895
2564.02 2.56952
2564.40 2.64977
2564.58 2.77108
2564.77 3.00850
2564.95 3.47201
2565.14 4.40732
2565.32 6.48758
2565.42 8.49139
2565.51 11.8631
2565.60 17.9686
2565.65 23.0122
2565.70 30.1848
2565.74 41.2185
2565.79 58.0870
2565.84 85.2130
2565.88 129.248
2565.94 218.783
2566.00 288.001
2566.06 243.016
2566.12 161.407
2566.18 104.435
2566.24 72.1278
2566.30 52.9485
2566.36 40.8994
2566.42 32.7902
2566.48 27.2528
2566.60 20.2360
2566.72 16.0772
2566.84 13.4306
2567.08 10.3094
2567.32 8.57248
2567.56 7.49246
2567.81 6.76508
2568.05 6.24784
2568.53 5.56147
2569.01 5.13290
2569.49 4.84035
2569.97 4.62914
2570.93 4.34374
2571.90 4.15947
2572.86 4.02984
2573.82 3.93290
2575.75 3.79538
2577.68 3.69973
2581.53 3.56677
2585.38 3.46672
2589.23 3.37239
2591.16 3.31874
2593.08 3.25061
2594.04 3.20487
2595.01 3.14511
2595.49 3.11177
2595.97 3.10160
2596.21 3.15184
2596.33 3.22806
2596.45 3.39310
2596.57 3.78147
2596.63 4.16553
2596.69 4.82803
2596.75 6.06449
2596.81 8.64315
2596.84 11.0363
2596.87 14.9253
2596.90 21.5403
2596.93 33.0135
2596.95 42.5286
2596.97 53.8280
2597.00 70.1825
2597.03 59.7746
2597.07 40.4455
2597.09 30.4662
2597.12 23.8641
2597.14 19.2925
2597.16 16.0660
2597.21 11.9929
2597.25 9.64178
2597.30 8.14169
2597.35 7.16314
2597.44 5.96767
2597.53 5.27984
2597.62 4.85093
2597.81 4.34844
2598.18 3.89695
2598.55 3.69188
2599.29 3.49578
2600.03 3.39352
2601.51 3.26616
2602.99 3.16160
2604.47 3.04334
2605.21 2.97003
2605.95 2.88204
2606.69 2.77980
2607.06 2.73213
2607.43 2.71121
2607.80 2.79713
2607.98 2.96259
2608.17 3.35090
2608.35 4.30827
2608.44 5.30187
2608.54 7.04382
2608.63 10.4374
2608.68 13.3295
2608.72 17.7286
2608.77 24.7364
2608.81 36.5188
2608.86 57.4711
2608.88 73.8097
2608.91 95.8412
2608.95 161.686
2609.00 212.351
2609.02 205.609
2609.05 179.711
2609.10 120.149
2609.15 76.7681
2609.20 52.4102
2609.25 38.3128
2609.30 29.7509
2609.35 24.0042
2609.40 20.0433
2609.50 15.1126
2609.60 12.2017
2609.70 10.3578
2609.91 8.18643
2610.11 6.97755
2610.31 6.22836
2610.51 5.72023
2610.72 5.35868
2611.12 4.87742
2611.53 4.57603
2611.93 4.36994
2612.34 4.22029
2613.15 4.01712
2613.96 3.88529
2614.77 3.79191
2615.58 3.72185
2617.20 3.62195
2618.82 3.55237
2622.06 3.45713
2625.30 3.39016
2628.55 3.33679
2635.03 3.24880
2648.00 3.09319
2654.48 3.01193
2657.72 2.97367
2659.34 2.97782
2659.75 3.00013
2660.15 3.07234
2660.35 3.17425
2660.56 3.44827
2660.66 3.80349
2660.76 4.67585
2660.81 5.70344
2660.86 7.88453
2660.89 10.1523
2660.91 14.0633
2660.94 21.7270
2660.95 28.6397
2660.96 38.5831
2660.98 60.1606
2661.00 74.2453
2661.02 60.1527
2661.04 38.5728
2661.05 29.2844
2661.06 22.6096
2661.09 14.9464
2661.11 10.7477
2661.13 8.44768
2661.18 6.03142
2661.23 4.91706
2661.32 3.92729
2661.41 3.52021
2661.60 3.19473
2661.78 3.07024
2662.16 2.97243
2662.53 2.93282
2664.02 2.87378
2667.00 2.80867
2669.99 2.74473
2671.48 2.72307
2672.22 2.76608
2672.41 2.82376
2672.60 2.98623
2672.69 3.19914
2672.78 3.73619
2672.83 4.38275
2672.88 5.78886
2672.90 7.30039
2672.92 9.98968
2672.95 15.5356
2672.96 20.8178
2672.97 28.2355
2672.98 43.5303
2673.00 53.8122
2673.02 43.5291
2673.03 28.2334
2673.05 19.2676
2673.06 13.9285
2673.08 10.4915
2673.09 8.47813
2673.12 6.13756
2673.15 4.95340
2673.21 3.86042
2673.26 3.39094
2673.38 3.00555
2673.49 2.85454
2673.73 2.73337
2673.96 2.68414
2674.88 2.61071
2676.74 2.52819
2678.59 2.43834
2680.44 2.32543
2682.29 2.17520
2683.22 2.08102
2684.14 1.97550
2685.07 1.88204
2685.53 1.87311
2686.00 1.95773
2686.23 2.08408
2686.46 2.32853
2686.69 2.80486
2686.92 3.76260
2687.04 4.60097
2687.15 5.87859
2687.27 7.90624
2687.38 11.2632
2687.50 17.3367
2687.56 22.2553
2687.62 29.3566
2687.67 39.9539
2687.73 56.3341
2687.79 82.4493
2687.85 123.472
2687.92 208.902
2688.00 275.176
2688.08 232.809
2688.15 154.805
2688.23 102.522
2688.30 71.7728
2688.37 52.8612
2688.45 40.9692
2688.52 32.8804
2688.59 27.2847
2688.74 20.1279
2688.89 15.8535
2689.03 13.0979
2689.33 9.84934
2689.62 8.03656
2689.91 6.90948
2690.21 6.14779
2690.50 5.60251
2691.09 4.87787
2691.67 4.42190
2692.26 4.10780
2692.85 3.87819
2694.02 3.56082
2695.19 3.34696
2697.54 3.05959
2699.89 2.84995
2702.23 2.65615
2703.40 2.54790
2704.58 2.41575
2705.16 2.33591
2705.75 2.26312
2706.04 2.27216
2706.19 2.32657
2706.34 2.47268
2706.48 2.85977
2706.56 3.26627
2706.63 3.99352
2706.70 5.42757
2706.78 8.51712
2706.81 11.5413
2706.85 16.4824
2706.87 20.4373
2706.89 25.5060
2706.91 32.3529
2706.92 42.0166
2706.94 55.0012
2706.96 70.3312
2707.00 92.8730
2707.02 90.2736
2707.04 79.4618
2707.08 53.4475
2707.12 35.0400
2707.16 24.4697
2707.20 18.2776
2707.24 14.4231
2707.28 11.8792
2707.32 10.1149
2707.40 7.88665
2707.48 6.57645
2707.56 5.73347
2707.72 4.73565
2707.88 4.17735
2708.04 3.82557
2708.36 3.41043
2708.68 3.17324
2709.00 3.01796
2709.64 2.82131
2710.92 2.60020
2712.19 2.45642
2714.75 2.23461
2717.31 2.04736
2718.59 1.97299
2719.87 1.93297
2721.15 1.97444
2722.43 2.22206
2723.07 2.51995
2723.71 3.05649
2724.35 4.04388
2724.99 5.95409
2725.31 7.57964
2725.63 10.0123
2725.95 13.8013
2726.27 19.9917
2726.59 30.8832
2726.91 51.7898
2727.07 69.7123
2727.23 96.7185
2727.39 138.465
2727.55 202.707
2727.77 341.882
2728.00 449.970
2728.23 379.471
2728.45 250.508
2728.65 170.723
2728.85 121.421
2729.05 90.3576
2729.25 70.1788
2729.65 46.5678
2730.05 33.9435
2730.45 26.3655
2730.85 21.4497
2731.64 15.6191
2732.44 12.3649
2733.24 10.3354
2734.04 8.96344
2734.83 7.98039
2736.43 6.67064
2738.02 5.83684
2739.62 5.25294
2741.21 4.81301
2744.40 4.16068
2747.59 3.64116
2749.19 3.39072
2750.78 3.12889
2752.38 2.84703
2753.17 2.72036
2753.57 2.75494
2753.67 2.84542
2753.77 3.10413
2753.82 3.43259
2753.87 4.19510
2753.90 5.00553
2753.92 6.55876
2753.95 9.97499
2753.96 13.0975
2753.97 17.9925
2753.99 27.6200
2754.00 33.5140
2754.02 26.9725
2754.03 17.9796
2754.05 11.0855
2754.07 7.68465
2754.11 4.91810
2754.14 3.86158
2754.18 3.35648
2754.26 2.90021
2754.33 2.70642
2754.63 2.44798
2755.22 2.28102
2755.82 2.20347
2756.41 2.26650
2757.01 2.74687
2757.31 3.40939
2757.60 4.77111
2757.75 5.97054
2757.90 7.80117
2758.05 10.7036
2758.20 15.5452
2758.35 24.1902
2758.42 31.1956
2758.50 41.1020
2758.57 55.9485
2758.65 78.3107
2758.72 113.306
2758.80 168.337
2758.90 286.004
2759.00 378.309
2759.10 320.685
2759.21 213.136
2759.28 156.032
2759.35 117.591
2759.43 91.4009
2759.50 73.1601
2759.65 50.3304
2759.79 37.4232
2759.94 29.3328
2760.08 23.9751
2760.38 17.4092
2760.67 13.6382
2760.96 11.2183
2761.55 8.28053
2762.13 6.48074
2762.43 5.79571
2762.72 5.23976
2763.01 4.93010
2763.16 5.01659
2763.31 5.51793
2763.45 7.05165
2763.53 8.68599
2763.60 11.5492
2763.64 13.8031
2763.67 16.8228
2763.71 21.1838
2763.74 27.2794
2763.78 36.5181
2763.82 50.1144
2763.85 71.7289
2763.89 104.294
2763.95 181.935
2764.00 249.393
2764.03 245.713
2764.06 219.285
2764.11 150.873
2764.15 114.023
2764.19 88.3113
2764.23 70.5182
2764.27 58.2320
2764.34 42.3633
2764.42 33.0861
2764.50 27.1844
2764.57 23.1752
2764.73 18.1747
2764.88 15.2351
2765.04 13.3226
2765.34 11.0001
2765.65 9.64360
2765.96 8.74992
2766.58 7.63082
2767.19 6.94431
2767.81 6.47053
2769.04 5.84291
2770.27 5.43340
2771.50 5.13886
2772.74 4.92660
2773.35 4.90080
2773.51 4.94851
2773.66 5.11250
2773.74 5.33636
2773.81 5.89606
2773.85 6.55217
2773.89 7.90615
2773.91 9.29367
2773.93 11.5842
2773.95 15.8441
2773.97 24.4408
2773.98 36.5189
2774.00 44.1885
2774.02 36.5185
2774.03 24.4369
2774.04 18.6875
2774.06 14.9594
2774.08 10.6949
2774.10 8.55404
2774.12 7.36128
2774.17 6.14998
2774.21 5.60717
2774.30 5.13009
2774.39 4.93119
2774.57 4.76159
2774.74 4.68381
2775.46 4.54090
2776.88 4.36968
2779.73 4.09719
2782.58 3.85297
2785.42 3.60166
2788.27 3.30271
2789.70 3.11525
2791.12 2.88505
2791.83 2.74860
2792.54 2.59674
2793.25 2.43478
2793.97 2.28978
2794.32 2.25132
2794.68 2.27707
2795.03 2.44813
2795.39 2.96568
2795.57 3.50256
2795.75 4.40395
2795.92 5.96378
2796.10 8.80226
2796.19 11.0944
2796.28 14.3781
2796.37 19.2270
2796.46 26.6568
2796.55 38.5611
2796.64 58.6546
2796.73 94.4422
2796.81 158.959
2796.91 272.733
2797.00 364.330
2797.09 312.547
2797.19 209.387
2797.28 141.681
2797.36 100.853
2797.45 75.3269
2797.54 59.0033
2797.71 39.9504
2797.89 29.7667
2798.06 23.6596
2798.24 19.6810
2798.59 14.9336
2798.94 12.2512
2799.29 10.5618
2799.64 9.41229
2799.99 8.58683
2800.69 7.48154
2801.39 6.78239
2802.09 6.30045
2802.78 5.94907
2804.18 5.46889
2805.58 5.15446
2806.98 4.93065
2808.38 4.76170
2811.18 4.51988
2813.98 4.35114
2819.57 4.12142
2825.17 3.96318
2830.76 3.84099
2836.36 3.74239
2839.16 3.71369
2839.86 3.72089
2840.56 3.76135
2840.91 3.82603
2841.26 4.01089
2841.43 4.25881
2841.61 4.90571
2841.69 5.71323
2841.78 7.59959
2841.83 9.69933
2841.87 13.8130
2841.89 17.6523
2841.91 23.9153
2841.93 34.7238
2841.96 53.0631
2841.98 83.2123
2842.00 102.489
2842.02 83.2126
2842.04 53.0634
2842.07 32.2724
2842.10 21.5584
2842.12 15.6856
2842.15 12.2197
2842.20 8.52768
2842.25 6.79937
2842.35 5.25204
2842.45 4.61134
2842.65 4.09911
2842.85 3.90203
2843.26 3.74948
2843.66 3.68985
2845.28 3.61212
2848.51 3.55111
2851.74 3.50877
2853.35 3.51755
2853.75 3.54521
2854.16 3.63237
2854.36 3.75437
2854.56 4.08557
2854.66 4.51370
2854.76 5.58904
2854.82 6.88151
2854.87 9.70046
2854.89 12.5716
2854.92 17.8320
2854.93 22.4117
2854.94 28.6376
2854.95 38.8448
2854.97 53.0727
2854.98 83.7998
2855.00 102.785
2855.02 81.9449
2855.04 53.0276
2855.05 33.5361
2855.07 23.2538
2855.09 16.9672
2855.11 13.3422
2855.14 9.26318
2855.18 7.24663
2855.25 5.41847
2855.32 4.64537
2855.46 4.01920
2855.59 3.77782
2855.87 3.59054
2856.15 3.51904
2856.71 3.46091
2857.27 3.43463
2859.50 3.38292
2861.74 3.34948
2862.85 3.35627
2863.41 3.44703
2863.55 3.54306
2863.69 3.79701
2863.76 4.11899
2863.83 4.89817
2863.86 5.77907
2863.90 7.61535
2863.92 9.42616
2863.93 12.3188
2863.95 17.4849
2863.97 27.1421
2863.98 41.4232
2864.00 51.0444
2864.02 41.4719
2864.03 27.2024
2864.05 16.7534
2864.07 11.5326
2864.09 8.64688
2864.11 7.08177
2864.15 5.43012
2864.19 4.65743
2864.27 3.98501
2864.34 3.71183
2864.50 3.49052
2864.65 3.40532
2865.28 3.30854
2866.52 3.26193
2869.00 3.20526
2871.49 3.14726
2873.98 3.08014
2876.46 2.99607
2877.71 2.94287
2878.95 2.87680
2880.19 2.78916
2880.81 2.73230
2881.43 2.66298
2882.06 2.57998
2882.37 2.53792
2882.68 2.50994
2882.99 2.54483
2883.14 2.63683
2883.30 2.86650
2883.45 3.45605
2883.53 4.07396
2883.61 5.16075
2883.69 7.28842
2883.73 9.12709
2883.76 11.8476
2883.80 16.2867
2883.84 23.7726
2883.86 29.6188
2883.88 37.1176
2883.90 47.2266
2883.92 60.8429
2883.94 80.3751
2883.96 102.642
2884.00 135.124
2884.02 131.333
2884.04 115.677
2884.08 77.2445
2884.12 54.4364
2884.15 39.6013
2884.19 30.2065
2884.22 24.1708
2884.29 16.8316
2884.36 12.9166
2884.43 10.5201
2884.50 8.97852
2884.64 7.12004
2884.78 6.07699
2884.91 5.42253
2885.19 4.66246
2885.47 4.23816
2885.75 3.97083
2886.30 3.65062
2886.86 3.46306
2887.41 3.33651
2888.52 3.16749
2889.63 3.04872
2890.74 2.95055
2892.96 2.77039
2895.18 2.57304
2896.29 2.45695
2897.40 2.32588
2898.51 2.19168
2899.07 2.14538
2899.62 2.16204
2900.18 2.38694
2900.45 2.72011
2900.73 3.43140
2901.01 5.07874
2901.15 6.71019
2901.29 9.49108
2901.43 14.6935
2901.50 19.0801
2901.56 25.5049
2901.63 35.5975
2901.70 51.7140
2901.77 78.9150
2901.84 125.662
2901.92 212.112
2902.00 278.827
2902.08 235.065
2902.16 155.724
2902.21 116.483
2902.27 89.0252
2902.37 56.4360
2902.48 39.3539
2902.58 29.5510
2902.69 23.3290
2902.79 19.1670
2903.01 14.1087
2903.22 11.2107
2903.43 9.38910
2903.85 7.25608
2904.27 6.06956
2904.70 5.31714
2905.54 4.40283
2906.39 3.83087
2907.23 3.38941
2907.66 3.19136
2908.08 3.03944
2908.29 3.05368
2908.40 3.14291
2908.50 3.36977
2908.61 3.93493
2908.66 4.50169
2908.71 5.44506
2908.77 7.18057
2908.82 10.6093
2908.85 13.6744
2908.87 18.1800
2908.90 25.1811
2908.93 36.3095
2908.94 47.3324
2908.96 60.8589
2909.00 80.5769
2909.02 78.5350
2909.04 69.7460
2909.07 47.4593
2909.10 34.7476
2909.13 26.2092
2909.16 20.6158
2909.19 16.9421
2909.25 12.3807
2909.31 9.82964
2909.37 8.23308
2909.43 7.19179
2909.55 5.91653
2909.67 5.17267
2909.79 4.69573
2910.02 4.11355
2910.26 3.76681
2910.49 3.53796
2910.97 3.28575
2911.44 3.33839
2911.68 3.60909
2911.91 4.27903
2912.15 5.93022
2912.27 7.59193
2912.39 10.4671
2912.51 15.8814
2912.56 20.3677
2912.62 27.0042
2912.68 37.2017
2912.74 53.5482
2912.80 80.8322
2912.86 127.081
2912.93 215.801
2913.00 285.470
2913.07 242.260
2913.14 161.704
2913.20 116.050
2913.25 86.4101
2913.30 66.7384
2913.36 53.3144
2913.47 36.9391
2913.57 27.7827
2913.68 22.1489
2913.79 18.4227
2914.01 13.9159
2914.22 11.3599
2914.44 9.74630
2914.87 7.85781
2915.30 6.80389
2915.73 6.13648
2916.17 5.67652
2916.60 5.33974
2917.46 4.87693
2918.33 4.57013
2920.05 4.17784
2921.78 3.92625
2923.51 3.74247
2925.24 3.60361
2926.10 3.58153
2926.53 3.71465
2926.64 3.86286
2926.75 4.25050
2926.80 4.72119
2926.86 5.79310
2926.89 6.91921
2926.91 9.05887
2926.94 13.7238
2926.95 18.4049
2926.97 25.8270
2926.98 38.9687
2927.00 48.2444
2927.02 38.9746
2927.03 25.8326
2927.05 16.1163
2927.07 11.3343
2927.09 8.63129
2927.11 7.14148
2927.15 5.54593
2927.19 4.80273
2927.27 4.13159
2927.34 3.85068
2927.50 3.62015
2927.65 3.52554
2928.27 3.39622
2929.50 3.28872
2931.97 3.11303
2934.43 2.92769
2936.90 2.70972
2938.13 2.58031
2939.36 2.43201
2940.60 2.26170
2941.83 2.07388
2942.45 1.98328
2943.06 1.91385
2943.68 1.90692
2944.29 2.07462
2944.91 2.76597
2945.22 3.62949
2945.53 5.34040
2945.68 6.80763
2945.84 9.00857
2945.99 12.4324
2946.14 18.0148
2946.30 27.6892
2946.45 45.8271
2946.53 60.9776
2946.61 83.2273
2946.68 116.530
2946.76 166.349
2946.88 284.380
2947.00 378.703
2947.12 323.433
2947.24 216.462
2947.32 165.367
2947.39 128.628
2947.55 83.5897
2947.70 59.1771
2947.85 44.7398
2948.00 35.5324
2948.15 29.2951
2948.46 21.5882
2948.76 17.1413
2949.07 14.3107
2949.67 10.9921
2950.28 9.14409
2950.89 7.98724
2951.50 7.19921
2952.10 6.63224
2953.32 5.87296
2954.53 5.39792
2955.14 5.23257
2955.75 5.12944
2956.05 5.13228
2956.36 5.26614
2956.51 5.49807
2956.66 6.15379
2956.74 6.99255
2956.77 7.75792
2956.81 9.01528
2956.85 11.2792
2956.89 15.9275
2956.91 20.2749
2956.93 27.4999
2956.95 40.2997
2956.96 63.0880
2956.98 98.4843
2957.00 121.407
2957.02 98.5110
2957.04 63.1170
2957.05 44.1574
2957.07 31.9902
2957.08 24.3774
2957.10 19.7065
2957.12 14.0188
2957.15 11.0054
2957.18 9.18900
2957.21 8.08352
2957.27 6.81361
2957.39 5.73252
2957.50 5.29712
2957.74 4.93578
2957.97 4.77937
2958.44 4.62231
2958.90 4.52806
2959.84 4.39355
2960.77 4.28840
2962.63 4.11942
2964.50 3.98300
2968.23 3.76237
2971.96 3.57289
2975.69 3.38104
2977.56 3.27143
2979.42 3.14051
2981.29 2.96877
2982.22 2.85614
2983.15 2.71517
2984.09 2.53599
2984.55 2.43426
2985.02 2.34147
2985.49 2.32734
2985.72 2.42784
2985.95 2.74016
2986.18 3.61963
2986.30 4.58637
2986.42 6.34173
2986.48 7.79366
2986.53 9.85184
2986.59 12.9056
2986.65 17.6139
2986.71 25.3903
2986.77 38.5146
2986.83 62.3256
2986.85 81.2044
2986.88 106.989
2986.94 183.168
2987.00 243.800
2987.06 208.259
2987.12 139.980
2987.16 99.9726
2987.21 74.2781
2987.26 57.3311
2987.30 45.8190
2987.40 31.7224
2987.49 23.9682
2987.58 19.1557
2987.67 16.0108
2987.86 12.1839
2988.04 10.0132
2988.23 8.64252
2988.41 7.70965
2988.60 7.03883
2988.97 6.14566
2989.34 5.58213
2989.71 5.19564
2990.08 4.91424
2990.82 4.53084
2991.56 4.27963
2993.04 3.96317
2994.52 3.76369
2996.00 3.62453
2996.74 3.57646
2997.48 3.56301
2997.85 3.59779
2998.22 3.74320
2998.40 3.95820
2998.59 4.53992
2998.68 5.27761
2998.77 7.02069
2998.82 8.94945
2998.86 12.8593
2998.89 16.4691
2998.91 22.3907
2998.93 32.7056
2998.95 51.7796
2998.98 80.5015
2999.00 100.230
2999.02 80.5249
2999.05 51.8066
2999.07 32.7267
2999.09 22.4044
2999.12 16.4757
2999.14 12.8595
2999.18 8.93852
2999.23 7.00011
2999.32 5.22841
2999.42 4.48659
2999.60 3.87542
2999.79 3.63194
3000.16 3.43036
3000.52 3.33952
3001.26 3.23801
3002.00 3.16571
3003.48 3.03547
3004.96 2.89696
3006.44 2.73405
3007.18 2.64008
3007.92 2.54094
3008.66 2.45922
3009.03 2.45467
3009.40 2.53247
3009.77 2.85342
3009.95 3.25474
3010.14 4.04724
3010.32 5.77144
3010.41 7.41557
3010.51 10.1134
3010.60 14.9689
3010.65 18.8297
3010.69 24.3548
3010.74 32.5135
3010.78 44.9650
3010.83 64.5149
3010.88 95.3649
3010.94 159.985
3011.00 209.380
3011.06 176.795
3011.13 116.919
3011.17 87.5823
3011.21 67.0862
3011.29 42.9955
3011.38 30.1844
3011.46 22.8587
3011.54 18.2001
3011.63 15.1175
3011.79 11.3261
3011.96 9.16343
3012.13 7.79669
3012.46 6.20284
3012.80 5.31187
3013.13 4.74688
3013.80 4.06386
3014.46 3.64791
3015.13 3.34956
3016.47 2.89366
3017.80 2.49689
3018.47 2.31310
3019.14 2.17765
3019.47 2.16403
3019.80 2.23895
3020.14 2.50171
3020.47 3.18924
3020.64 3.86623
3020.81 4.96926
3020.97 6.82684
3021.14 10.1168
3021.22 12.7374
3021.31 16.3864
3021.39 21.7400
3021.47 29.6660
3021.56 42.1726
3021.64 62.3026
3021.72 96.4319
3021.81 155.319
3021.90 266.417
3022.00 357.300
3022.10 306.724
3022.19 205.693
3022.29 138.560
3022.38 97.9312
3022.47 72.9988
3022.56 56.9508
3022.75 38.4380
3022.93 28.5839
3023.11 22.6881
3023.30 18.8524
3023.67 14.2699
3024.03 11.6905
3024.40 10.0649
3024.77 8.95755
3025.14 8.16140
3025.87 7.09355
3026.61 6.41551
3027.35 5.94773
3028.08 5.60592
3029.55 5.13786
3031.02 4.83360
3032.50 4.63592
3033.23 4.63422
3033.42 4.69937
3033.60 4.90769
3033.69 5.18994
3033.78 5.90671
3033.83 6.75402
3033.88 8.61945
3033.90 10.5046
3033.92 13.9213
3033.94 20.8060
3033.96 26.5540
3033.97 35.2041
3033.98 53.4611
3034.00 65.9133
3034.02 53.4595
3034.03 35.1997
3034.04 27.1878
3034.05 21.6854
3034.07 15.0044
3034.10 11.3088
3034.12 9.29408
3034.16 7.16574
3034.20 6.16682
3034.28 5.29347
3034.36 4.93510
3034.52 4.63845
3034.69 4.51776
3035.34 4.35272
3036.65 4.22549
3039.27 4.06106
3041.88 3.93730
3044.50 3.83630
3049.73 3.67343
3054.96 3.53716
3060.19 3.40753
3062.81 3.33897
3065.42 3.26266
3068.04 3.17066
3069.35 3.11420
3070.66 3.04642
3071.96 2.96321
3072.62 2.91622
3073.27 2.87186
3073.93 2.85692
3074.25 2.89149
3074.58 3.01188
3074.91 3.37155
3075.07 3.78290
3075.23 4.56191
3075.40 6.20658
3075.48 7.73682
3075.56 10.2064
3075.64 14.5856
3075.72 22.8762
3075.76 30.0682
3075.81 40.9440
3075.85 57.8311
3075.89 83.3441
3075.94 138.168
3076.00 180.414
3076.06 152.072
3076.11 100.749
3076.16 70.8148
3076.21 51.9892
3076.25 39.7893
3076.30 31.6219
3076.39 21.7865
3076.48 16.4772
3076.58 13.2310
3076.67 11.1362
3076.85 8.63432
3077.04 7.23046
3077.22 6.36086
3077.41 5.77261
3077.59 5.35607
3077.96 4.80502
3078.33 4.46276
3078.70 4.22995
3079.07 4.06123
3079.81 3.83121
3080.55 3.67914
3082.02 3.47871
3083.50 3.33417
3084.98 3.19695
3085.72 3.11704
3086.45 3.02076
3086.82 2.97244
3087.19 2.97322
3087.38 3.07472
3087.47 3.21294
3087.56 3.49615
3087.65 4.12744
3087.70 4.72056
3087.75 5.69649
3087.79 7.40410
3087.84 10.6417
3087.86 13.3728
3087.88 17.4187
3087.91 23.5403
3087.93 33.2127
3087.95 42.9168
3087.97 55.0990
3088.00 72.7771
3088.02 70.8059
3088.04 62.7852
3088.07 42.8368
3088.09 32.7670
3088.12 25.9075
3088.16 17.6271
3088.21 13.1308
3088.26 10.5623
3088.30 8.90051
3088.35 7.80422
3088.44 6.44791
3088.53 5.65623
3088.63 5.15681
3088.81 4.56386
3089.18 4.01925
3089.55 3.76736
3090.29 3.52191
3091.03 3.39338
3092.52 3.23945
3094.00 3.12671
3095.48 3.01567
3096.96 2.87718
3097.70 2.78255
3098.44 2.66205
3098.81 2.60682
3099.00 2.60118
3099.18 2.64804
3099.37 2.85139
3099.46 3.10935
3099.55 3.61424
3099.65 4.70322
3099.69 5.70235
3099.74 7.31418
3099.79 10.1454
3099.81 12.2958
3099.83 15.2665
3099.85 19.4620
3099.88 25.5153
3099.90 34.3877
3099.92 47.5692
3099.94 62.8265
3099.96 80.4609
3100.00 106.722
3100.02 104.159
3100.04 92.1428
3100.08 62.2521
3100.11 43.4491
3100.15 31.5483
3100.18 24.1365
3100.22 19.3169
3100.29 13.7058
3100.36 10.7286
3100.43 8.90815
3100.49 7.73600
3100.63 6.31857
3100.77 5.51409
3100.91 5.01057
3101.19 4.41891
3101.47 4.08524
3101.75 3.87301
3102.30 3.61611
3102.86 3.46325
3103.42 3.35917
3104.53 3.21970
3105.64 3.12267
3106.76 3.04496
3108.98 2.91303
3111.21 2.78924
3113.44 2.66703
3114.55 2.62028
3115.11 2.61504
3115.66 2.64577
3116.22 2.77634
3116.50 2.93817
3116.78 3.26011
3117.06 3.97372
3117.19 4.66930
3117.33 5.87334
3117.47 8.17544
3117.54 10.1927
3117.61 13.2819
3117.68 18.4666
3117.75 27.6009
3117.82 45.7851
3117.86 61.4203
3117.89 83.3819
3117.95 135.440
3118.00 171.767
3118.06 140.255
3118.11 90.6122
3118.16 59.3530
3118.22 40.9431
3118.27 29.8896
3118.32 22.9145
3118.42 15.0742
3118.53 11.0709
3118.63 8.72221
3118.73 7.23889
3118.94 5.53795
3119.15 4.61836
3119.36 4.06328
3119.77 3.44050
3120.19 3.11085
3120.60 2.91919
3121.43 2.77267
3122.26 2.98158
3122.67 3.36931
3123.09 4.21215
3123.50 6.14668
3123.71 8.03271
3123.92 11.2322
3124.12 17.1147
3124.23 21.9606
3124.33 28.9823
3124.44 39.7449
3124.54 56.5812
3124.64 84.4661
3124.75 130.312
3124.87 219.702
3125.00 289.264
3125.13 244.330
3125.26 161.976
3125.37 109.694
3125.49 77.7198
3125.60 57.9265
3125.72 45.1193
3125.95 30.3020
3126.18 22.4447
3126.41 17.7346
3126.65 14.6852
3127.11 11.0749
3127.57 9.05811
3128.04 7.80110
3128.50 6.95117
3128.96 6.34247
3129.89 5.53347
3130.82 5.02365
3132.67 4.41537
3134.52 4.06040
3136.37 3.82199
3140.08 3.50555
3143.79 3.28215
3147.49 3.08588
3149.35 2.98169
3151.20 2.86030
3152.13 2.79123
3153.05 2.73850
3153.52 2.76702
3153.75 2.83757
3153.98 3.01082
3154.21 3.45423
3154.33 3.92289
3154.44 4.76414
3154.56 6.45124
3154.62 7.95456
3154.67 10.3275
3154.73 14.3035
3154.79 21.4830
3154.82 27.2990
3154.85 35.6278
3154.88 47.7396
3154.90 64.7138
3154.95 106.703
3155.00 139.064
3155.05 116.831
3155.10 77.3583
3155.14 51.4154
3155.19 35.8966
3155.24 26.6334
3155.28 20.9016
3155.33 16.9973
3155.38 14.2843
3155.47 10.8882
3155.56 8.87432
3155.66 7.59970
3155.84 6.10248
3156.03 5.27302
3156.22 4.76189
3156.59 4.17147
3156.96 3.84611
3157.33 3.64088
3158.08 3.39446
3158.83 3.24790
3159.57 3.14699
3161.06 3.00831
3164.05 2.82662
3167.03 2.68685
3173.00 2.44350
3175.99 2.34042
3177.48 2.30370
3178.22 2.30259
3178.60 2.34694
3178.78 2.51076
3178.88 2.96722
3178.92 3.92356
3178.95 5.22274
3178.97 8.46788
3178.99 12.2208
3179.00 14.6838
3179.02 12.2236
3179.03 8.47125
3179.06 4.91578
3179.09 3.66182
3179.14 2.82397
3179.25 2.45214
3179.47 2.32301
3179.91 2.28577
3180.78 2.28700
3182.53 2.37207
3184.29 2.62226
3186.04 3.23923
3187.79 4.78916
3188.67 6.39136
3189.54 9.22372
3190.42 14.6375
3190.86 19.2543
3191.29 26.2234
3191.73 37.2047
3192.17 55.3832
3192.61 87.0111
3193.04 143.184
3193.52 243.190
3194.00 323.283
3194.48 275.403
3194.96 183.467
3195.46 118.135
3195.96 80.8478
3196.46 58.9910
3196.96 45.4002
3197.46 36.4064
3197.96 30.1680
3198.96 22.2966
3199.96 17.6660
3200.97 14.6963
3201.97 12.6853
3202.47 12.0125
3202.59 11.9488
3202.72 12.0751
3202.78 12.3622
3202.84 13.1379
3202.87 14.0673
3202.91 15.9158
3202.94 20.3368
3202.95 25.1748
3202.97 33.3209
3202.98 46.8441
3203.00 55.4151
3203.02 46.7998
3203.03 33.2339
3203.04 27.2409
3203.05 23.2196
3203.07 18.2336
3203.10 15.6745
3203.12 14.2244
3203.16 12.7398
3203.20 12.0273
3203.28 11.3586
3203.37 11.0313
3203.54 10.6640
3203.70 10.4193
3204.37 9.71180
3205.72 8.68799
3208.40 7.34568
3211.08 6.50094
3213.77 5.92183
3219.13 5.17650
3224.50 4.71103
3229.87 4.38447
3235.23 4.13493
3240.60 3.93146
3243.28 3.84814
3244.62 3.84131
3244.96 3.86878
3245.29 3.96355
3245.46 4.09923
3245.63 4.46304
3245.71 4.92792
3245.80 6.06452
3245.84 7.36540
3245.88 10.1229
3245.90 12.7968
3245.92 17.4222
3245.94 26.1073
3245.96 42.7337
3245.98 65.7378
3246.00 81.6470
3246.02 65.7543
3246.04 42.7534
3246.05 29.9050
3246.07 21.6838
3246.08 16.5927
3246.09 13.4937
3246.12 9.75016
3246.15 7.78323
3246.21 5.91065
3246.27 5.08500
3246.39 4.39206
3246.50 4.11954
3246.73 3.90348
3246.97 3.81865
3247.90 3.70956
3249.76 3.62694
3253.48 3.48781
3255.34 3.40695
3257.20 3.30202
3258.13 3.23011
3259.06 3.13534
3259.53 3.08357
3259.99 3.07642
3260.23 3.17380
3260.34 3.31352
3260.46 3.60851
3260.58 4.28579
3260.63 4.94128
3260.69 6.04896
3260.75 8.05788
3260.81 12.0694
3260.84 15.6300
3260.87 21.1646
3260.90 30.0491
3260.92 44.5626
3260.94 57.8577
3260.96 73.8954
3261.00 97.5297
3261.02 94.7413
3261.04 83.3363
3261.08 56.3417
3261.10 42.9579
3261.13 33.6054
3261.18 22.3980
3261.23 16.3731
3261.28 12.9480
3261.33 10.7476
3261.38 9.30010
3261.48 7.51977
3261.58 6.48866
3261.68 5.83632
3261.88 5.07693
3262.28 4.38894
3262.69 4.07662
3263.49 3.78279
3264.30 3.63746
3265.91 3.47934
3267.52 3.38200
3270.74 3.24367
3272.35 3.19652
3273.16 3.22214
3273.56 3.40910
3273.66 3.59475
3273.76 4.05827
3273.81 4.61893
3273.86 5.83776
3273.89 7.07311
3273.91 9.32285
3273.94 13.9015
3273.95 18.1899
3273.96 24.4334
3273.98 37.0358
3274.00 45.7624
3274.02 37.0447
3274.04 24.4436
3274.05 17.0385
3274.07 12.4664
3274.10 8.06284
3274.13 6.11624
3274.16 5.11314
3274.22 4.17255
3274.28 3.76260
3274.41 3.42185
3274.53 3.28558
3275.03 3.12833
3276.02 3.05291
3278.01 2.96493
3279.99 2.87849
3281.97 2.78224
3283.96 2.66692
3284.95 2.59708
3285.94 2.51400
3286.94 2.41112
3287.93 2.28534
3288.42 2.23155
3288.67 2.22930
3288.92 2.28398
3289.17 2.50704
3289.29 2.78542
3289.42 3.33822
3289.54 4.53223
3289.60 5.65803
3289.66 7.51587
3289.73 10.7956
3289.76 13.4087
3289.79 17.1272
3289.82 22.5787
3289.85 30.8236
3289.88 43.6291
3289.91 64.3369
3289.96 107.285
3290.00 142.107
3290.02 137.560
3290.04 120.223
3290.09 80.4093
3290.13 54.2488
3290.17 38.7411
3290.21 28.9676
3290.25 22.8325
3290.33 15.6611
3290.41 11.8962
3290.49 9.62099
3290.57 8.14986
3290.73 6.41386
3290.90 5.43834
3291.06 4.83125
3291.38 4.12249
3291.70 3.72452
3292.02 3.47084
3292.67 3.15995
3293.31 2.96979
3293.96 2.83456
3295.25 2.63795
3297.83 2.34075
3300.41 2.05091
3302.99 1.70802
3304.28 1.50526
3305.57 1.28647
3306.86 1.10189
3307.51 1.08866
3308.15 1.25765
3308.47 1.49994
3308.80 1.95821
3309.12 2.82777
3309.28 3.53034
3309.44 4.52625
3309.60 5.97810
3309.76 8.12527
3309.92 11.4289
3310.09 16.7420
3310.25 25.8600
3310.41 42.4683
3310.49 56.1277
3310.57 75.5355
3310.65 104.248
3310.73 145.563
3310.87 249.468
3311.00 333.688
3311.14 285.270
3311.27 190.300
3311.41 122.673
3311.55 84.0945
3311.69 61.3190
3311.83 47.0578
3311.97 37.6051
3312.11 31.0293
3312.39 22.7092
3312.67 17.8299
3312.95 14.7311
3313.51 11.2948
3314.07 10.0601
3314.35 10.2669
3314.63 11.3843
3314.91 14.3034
3315.05 17.1141
3315.19 21.6597
3315.33 29.3346
3315.47 43.0947
3315.61 69.5964
3315.68 91.7304
3315.75 123.165
3315.88 204.625
3316.00 268.589
3316.12 227.667
3316.25 151.805
3316.35 108.138
3316.45 79.8299
3316.55 61.4274
3316.65 49.1709
3316.85 34.2790
3317.05 26.0960
3317.25 21.0614
3317.45 17.7502
3317.84 13.7140
3318.24 11.3943
3318.64 9.90258
3319.44 8.10211
3320.24 7.04921
3321.04 6.35087
3322.63 5.46471
3324.23 4.90723
3325.82 4.50984
3329.01 3.94291
3332.20 3.50404
3333.80 3.29730
3335.40 3.08755
3336.99 2.87693
3337.79 2.78574
3338.59 2.74057
3339.38 2.85476
3339.78 3.08500
3340.18 3.62015
3340.58 4.91382
3340.78 6.22736
3340.98 8.50533
3341.18 12.8211
3341.28 16.4678
3341.38 21.8666
3341.48 30.3707
3341.58 44.1288
3341.68 67.9390
3341.78 109.146
3341.89 184.123
3342.00 242.729
3342.11 205.573
3342.22 136.805
3342.35 84.0418
3342.48 56.0097
3342.61 40.3042
3342.74 30.8199
3342.87 24.6524
3343.00 20.4767
3343.26 15.2783
3343.52 12.2520
3343.77 10.3286
3344.29 8.06012
3344.81 6.79314
3345.33 5.99166
3346.36 5.03318
3347.39 4.46604
3348.43 4.07521
3350.49 3.52219
3352.56 3.08016
3353.60 2.86982
3354.63 2.67005
3355.66 2.53172
3356.18 2.55040
3356.70 2.74937
3357.21 3.44987
3357.47 4.27615
3357.73 5.84274
3357.99 9.07126
3358.12 11.9666
3358.25 16.5315
3358.38 24.1095
3358.50 37.5097
3358.63 62.9326
3358.70 84.0892
3358.76 113.396
3358.88 193.362
3359.00 258.406
3359.12 221.640
3359.24 148.755
3359.31 114.829
3359.38 90.1777
3359.53 59.7061
3359.67 42.8978
3359.82 32.8376
3359.97 26.3304
3360.11 21.9296
3360.40 16.4523
3360.69 13.2578
3360.98 11.2193
3361.56 8.80165
3362.14 7.44086
3362.72 6.57471
3363.89 5.53295
3365.05 4.91708
3366.21 4.49580
3368.53 3.91142
3370.86 3.45239
3372.02 3.22486
3373.18 2.97893
3374.34 2.70322
3374.92 2.55946
3375.51 2.43799
3376.09 2.43602
3376.38 2.58427
3376.67 3.01163
3376.96 4.16498
3377.10 5.38282
3377.25 7.55162
3377.39 11.6949
3377.47 15.2357
3377.54 20.4604
3377.61 28.6961
3377.68 41.8670
3377.76 64.4430
3377.83 102.685
3377.91 176.422
3378.00 237.456
3378.09 204.757
3378.17 138.071
3378.25 95.5432
3378.33 69.2711
3378.40 52.6476
3378.48 41.6999
3378.63 28.7242
3378.78 21.7290
3378.94 17.4625
3379.09 14.6811
3379.39 11.3241
3379.70 9.40916
3380.00 8.19328
3380.61 6.75486
3381.22 5.93338
3381.83 5.40059
3383.05 4.73357
3384.27 4.30555
3385.49 3.97022
3386.10 3.81444
3386.70 3.67855
3387.01 3.66178
3387.16 3.70586
3387.31 3.84648
3387.47 4.24020
3387.54 4.66174
3387.62 5.42336
3387.69 6.91038
3387.73 8.19982
3387.77 10.1743
3387.81 13.3412
3387.85 18.7070
3387.88 28.3401
3387.90 35.9162
3387.92 46.6457
3387.96 76.7834
3388.00 101.390
3388.04 86.4543
3388.08 58.6659
3388.12 37.9604
3388.16 26.4384
3388.21 19.8610
3388.25 15.9131
3388.29 13.2660
3388.33 11.4833
3388.42 9.21185
3388.50 7.86927
3388.59 7.01857
3388.76 6.00974
3388.93 5.43952
3389.10 5.07980
3389.44 4.64872
3390.12 4.22565
3390.80 4.00277
3391.49 3.85340
3392.17 3.73978
3393.53 3.56493
3396.26 3.30223
3398.98 3.07743
3401.71 2.85031
3403.07 2.72486
3404.43 2.58243
3405.80 2.41090
3406.48 2.30867
3407.16 2.19378
3407.84 2.07553
3408.18 2.03269
3408.52 2.03939
3408.86 2.20904
3409.03 2.46334
3409.20 3.00561
3409.37 4.24771
3409.46 5.44824
3409.54 7.46678
3409.63 11.0972
3409.67 14.0711
3409.71 18.2480
3409.76 24.5947
3409.80 34.0921
3409.84 49.4297
3409.88 73.1809
3409.94 124.888
3410.00 165.874
3410.06 141.265
3410.12 94.7214
3410.19 58.3537
3410.26 38.9806
3410.32 28.1839
3410.39 21.6811
3410.46 17.4828
3410.53 14.6144
3410.67 11.0600
3410.81 8.97450
3410.94 7.64076
3411.22 6.07077
3411.50 5.18751
3411.77 4.63033
3412.32 3.96556
3412.87 3.57790
3413.42 3.31848
3414.52 2.97695
3415.63 2.74257
3416.73 2.55536
3418.93 2.23567
3421.13 1.93793
3422.23 1.80077
3423.33 1.70335
3424.44 1.75637
3424.99 1.95484
3425.54 2.46598
3425.81 2.96800
3426.09 3.78434
3426.36 5.16700
3426.64 7.64735
3426.78 9.64788
3426.91 12.5160
3427.05 16.7697
3427.19 23.2882
3427.33 33.9576
3427.46 52.2524
3427.60 86.3029
3427.74 151.316
3427.87 255.507
3428.00 336.141
3428.13 283.074
3428.26 186.767
3428.34 141.161
3428.43 108.716
3428.59 69.4117
3428.76 48.3819
3428.93 36.0668
3429.09 28.2744
3429.26 23.0299
3429.59 16.5977
3429.92 12.9155
3430.25 10.5840
3430.92 7.85569
3431.58 6.33494
3432.25 5.37001
3433.57 4.20207
3434.90 3.49320
3436.23 2.98672
3438.89 2.22801
3441.54 1.60335
3442.87 1.33935
3444.20 1.18265
3444.86 1.20836
3445.53 1.39113
3446.19 1.89014
3446.52 2.35828
3446.85 3.07449
3447.19 4.17919
3447.52 5.91584
3447.85 8.73031
3448.18 13.4953
3448.51 22.0647
3448.68 28.9522
3448.85 38.7847
3449.01 53.2057
3449.18 74.9516
3449.34 108.500
3449.51 160.382
3449.76 279.285
3450.00 378.414
3450.25 327.597
3450.49 221.385
3450.69 159.253
3450.88 118.131
3451.08 90.9565
3451.27 72.4673
3451.66 49.9452
3452.05 37.3332
3452.44 29.5426
3452.83 24.3630
3453.61 18.0517
3454.39 14.4219
3455.17 12.1044
3456.73 9.34269
3458.29 7.76440
3459.85 6.74310
3461.41 6.03609
3462.19 5.80599
3462.58 5.88497
3462.67 6.04962
3462.77 6.50173
3462.82 7.05859
3462.87 8.26722
3462.89 9.54639
3462.92 11.7801
3462.94 16.2361
3462.95 20.1309
3462.96 26.0528
3462.98 38.3083
3463.00 46.6739
3463.02 38.3038
3463.04 26.0392
3463.06 16.7552
3463.08 12.2746
3463.10 9.92515
3463.12 8.57787
3463.17 7.19335
3463.21 6.53745
3463.30 5.95192
3463.39 5.69766
3463.74 5.35006
3464.45 5.10025
3465.86 4.77369
3468.68 4.31851
3471.50 4.07819
3474.32 4.15508
3477.14 4.96045
3478.55 6.01524
3479.96 8.07086
3481.37 12.3094
3482.08 16.0987
3482.78 22.0208
3483.49 31.7163
3484.19 48.5079
3484.90 79.4109
3485.60 138.357
3486.30 237.705
3487.00 319.830
3487.70 275.228
3488.40 185.154
3488.95 133.802
3489.49 99.8160
3490.04 77.2941
3490.59 61.9357
3491.68 43.1749
3492.77 32.6609
3493.86 26.1505
3494.96 21.8170
3497.14 16.4960
3499.33 13.3748
3501.51 11.2562
3502.60 10.3731
3503.15 9.94814
3503.70 9.52749
3504.24 9.12783
3504.51 8.96723
3504.79 8.90080
3505.06 9.12106
3505.20 9.51980
3505.33 10.3825
3505.47 12.3283
3505.54 14.1494
3505.61 17.1013
3505.68 22.2310
3505.74 31.4641
3505.81 49.5633
3505.85 64.8930
3505.88 86.9174
3505.94 146.204
3506.00 195.113
3506.06 169.780
3506.12 117.558
3506.17 86.3271
3506.22 65.8273
3506.27 52.3726
3506.32 43.4173
3506.41 32.3763
3506.51 26.1868
3506.61 22.3544
3506.70 19.7979
3506.90 16.6604
3507.09 14.8312
3507.29 13.6531
3507.68 12.2161
3508.06 11.3599
3508.45 10.7817
3509.23 10.0191
3510.01 9.51193
3510.78 9.13169
3512.34 8.56828
3513.89 8.14779
3515.45 7.80942
3518.55 7.28086
3524.77 6.54579
3530.99 6.02812
3537.20 5.61117
3543.42 5.21166
3546.53 4.97641
3548.08 4.83220
3549.63 4.65355
3550.41 4.54379
3551.19 4.41384
3551.96 4.25632
3552.74 4.06228
3553.52 3.82986
3553.91 3.71360
3554.30 3.64069
3554.68 3.75137
3554.88 4.01589
3555.07 4.64987
3555.27 6.18086
3555.36 7.69902
3555.46 10.2633
3555.56 14.8467
3555.61 18.5470
3555.65 23.6802
3555.70 31.2878
3555.75 42.3684
3555.80 59.5235
3555.85 85.0027
3555.92 147.115
3556.00 200.384
3556.08 175.580
3556.15 120.583
3556.22 86.1634
3556.28 64.2701
3556.35 50.0518
3556.41 40.4983
3556.54 28.9918
3556.67 22.6057
3556.79 18.6772
3556.92 16.0701
3557.18 12.8925
3557.43 11.0622
3557.69 9.89784
3557.95 9.09618
3558.20 8.51351
3558.72 7.72566
3559.23 7.22111
3559.74 6.86924
3560.25 6.61021
3561.28 6.25123
3562.30 6.01171
3564.35 5.70432
3566.40 5.50751
3568.45 5.36469
3572.55 5.15954
3576.65 5.00894
3580.75 4.88743
3584.85 4.78996
3586.90 4.77630
3587.42 4.80006
3587.93 4.88642
3588.18 5.01165
3588.44 5.35388
3588.57 5.79425
3588.70 6.88625
3588.76 8.15789
3588.82 10.9180
3588.86 13.6686
3588.89 18.5812
3588.92 28.2804
3588.94 36.6815
3588.95 49.5519
3588.98 76.7496
3589.00 94.5096
3589.02 76.7869
3589.05 49.5984
3589.08 31.0961
3589.10 21.1953
3589.13 15.7716
3589.16 12.5740
3589.21 9.21589
3589.26 7.60423
3589.37 6.17504
3589.48 5.58074
3589.70 5.10331
3589.91 4.91816
3590.34 4.77267
3590.78 4.71401
3592.50 4.63409
3594.23 4.62802
3594.66 4.65831
3595.10 4.75984
3595.31 4.90382
3595.53 5.29455
3595.64 5.79680
3595.74 7.04511
3595.80 8.50491
3595.85 11.6941
3595.88 14.8969
3595.91 20.6688
3595.92 25.5928
3595.93 32.2230
3595.95 42.8228
3595.96 57.7854
3595.98 89.4396
3596.00 110.950
3596.02 89.4145
3596.04 57.7539
3596.06 40.1371
3596.07 28.8287
3596.09 21.8694
3596.11 17.6243
3596.14 12.5564
3596.17 9.91107
3596.24 7.40710
3596.30 6.30915
3596.44 5.39310
3596.57 5.03493
3596.83 4.75463
3597.10 4.64755
3597.63 4.56095
3598.16 4.52270
3600.27 4.45214
3604.50 4.35901
3608.74 4.27201
3610.85 4.23485
3611.91 4.24426
3612.44 4.35459
3612.57 4.46912
3612.70 4.77104
3612.77 5.14672
3612.84 6.03800
3612.87 7.02276
3612.90 9.01738
3612.93 13.8755
3612.95 19.3403
3612.97 28.7847
3612.98 43.8899
3613.00 53.4024
3613.02 43.8969
3613.03 28.7931
3613.05 20.2355
3613.06 14.8916
3613.09 9.80629
3613.12 7.57824
3613.15 6.43645
3613.21 5.35989
3613.27 4.90379
3613.38 4.52415
3613.50 4.37556
3613.97 4.21033
3614.90 4.14652
3616.77 4.09000
3620.50 3.98587
3622.36 3.92737
3624.23 3.86243
3626.10 3.80137
3627.03 3.83938
3627.26 3.91384
3627.50 4.13644
3627.61 4.43740
3627.73 5.20175
3627.79 6.13914
3627.85 8.22757
3627.88 10.3996
3627.90 14.4793
3627.92 18.1017
3627.93 23.2098
3627.95 31.7757
3627.96 45.3629
3627.98 69.8068
3628.00 87.2308
3628.02 69.8582
3628.04 45.4245
3628.05 34.0920
3628.06 26.7584
3628.08 17.5663
3628.11 12.7725
3628.13 10.0372
3628.18 7.24585
3628.22 5.95929
3628.31 4.80635
3628.40 4.33600
3628.59 3.95216
3628.77 3.79718
3629.14 3.66007
3629.50 3.58718
3630.23 3.47876
3630.96 3.36993
3631.70 3.24551
3632.06 3.18256
3632.43 3.13912
3632.79 3.18351
3632.98 3.31008
3633.16 3.62541
3633.34 4.42461
3633.43 5.25427
3633.52 6.69388
3633.62 9.43793
3633.66 11.7476
3633.71 15.0943
3633.75 20.3536
3633.80 28.5810
3633.84 42.5656
3633.89 66.0028
3633.94 111.516
3634.00 149.424
3634.06 128.636
3634.11 87.3361
3634.16 60.5818
3634.21 44.1660
3634.26 33.6870
3634.31 26.9838
3634.41 19.0548
3634.52 14.7849
3634.62 12.2122
3634.72 10.5308
3634.92 8.52131
3635.12 7.37923
3635.32 6.65816
3635.52 6.16636
3635.73 5.81299
3636.13 5.33680
3636.53 5.03384
3637.34 4.66815
3638.15 4.45183
3638.95 4.30545
3640.57 4.11089
3642.18 3.97681
3643.79 3.86980
3647.02 3.68692
3650.25 3.50874
3653.47 3.30496
3655.09 3.17979
3656.70 3.02112
3657.51 2.91785
3658.31 2.78728
3658.72 2.71407
3659.12 2.67726
3659.32 2.74788
3659.52 3.11817
3659.62 3.70363
3659.68 4.27972
3659.73 5.22660
3659.78 6.95394
3659.83 10.2457
3659.85 13.0699
3659.88 17.3160
3659.90 23.8525
3659.93 34.2969
3659.95 44.7316
3659.96 57.0438
3660.00 76.1311
3660.02 74.0913
3660.04 65.5304
3660.07 44.8436
3660.10 34.2923
3660.12 27.0447
3660.17 18.1508
3660.22 13.4410
3660.27 10.7376
3660.32 8.98428
3660.37 7.80295
3660.46 6.35895
3660.66 4.98022
3660.85 4.34116
3661.24 3.74303
3661.63 3.45311
3662.41 3.14604
3663.19 2.96027
3664.75 2.69409
3666.31 2.49074
3667.09 2.42413
3667.87 2.41358
3668.65 2.52647
3669.43 2.93100
3670.21 4.10420
3670.60 5.38572
3670.99 7.71024
3671.38 12.2283
3671.58 16.1062
3671.77 21.9656
3671.97 31.1746
3672.16 46.3099
3672.36 72.3041
3672.55 117.504
3672.78 203.094
3673.00 274.118
3673.23 236.936
3673.45 160.262
3673.68 106.388
3673.90 74.6244
3674.13 55.5287
3674.35 43.4071
3674.58 35.2851
3674.81 29.5832
3675.26 22.2953
3675.71 17.9326
3676.16 15.0921
3677.06 11.6864
3677.97 9.74617
3678.87 8.50550
3679.77 7.64197
3680.68 7.00109
3682.48 6.08563
3684.29 5.40026
3685.19 5.07883
3686.10 4.74999
3686.55 4.60780
3686.77 4.57651
3687.00 4.63277
3687.23 4.94261
3687.34 5.34361
3687.45 6.13965
3687.56 7.82994
3687.62 9.40370
3687.68 11.8873
3687.73 16.1813
3687.79 23.8530
3687.82 30.0506
3687.85 38.8832
3687.87 51.6465
3687.90 70.6667
3687.95 118.191
3688.00 157.815
3688.05 135.506
3688.10 92.1877
3688.16 57.8566
3688.21 39.5121
3688.27 29.3041
3688.33 23.2431
3688.39 19.2469
3688.44 16.5561
3688.56 13.1558
3688.67 11.1678
3688.79 9.88883
3689.02 8.36634
3689.25 7.49972
3689.48 6.94654
3689.94 6.27318
3690.40 5.86838
3690.86 5.58981
3691.78 5.20829
3692.70 4.93524
3693.62 4.71049
3695.46 4.31136
3697.31 3.89467
3698.23 3.65185
3699.15 3.36809
3700.07 3.03174
3700.53 2.85198
3700.99 2.69978
3701.45 2.69825
3701.68 2.88224
3701.91 3.40441
3702.14 4.76866
3702.25 6.17130
3702.37 8.59339
3702.48 13.0188
3702.54 16.6460
3702.60 21.7627
3702.66 29.4391
3702.71 40.8605
3702.77 58.8604
3702.83 86.2986
3702.92 150.727
3703.00 205.275
3703.09 179.784
3703.17 123.595
3703.25 87.7366
3703.32 64.9597
3703.39 50.2186
3703.46 40.3384
3703.61 28.4025
3703.76 21.8381
3703.90 17.7698
3704.05 15.0823
3704.34 11.7728
3704.64 9.84581
3704.93 8.58958
3705.51 7.04534
3706.10 6.15755
3706.39 5.91330
3706.69 5.89285
3706.98 6.39504
3707.13 7.11900
3707.27 8.55920
3707.42 11.5995
3707.49 14.3275
3707.57 18.6114
3707.64 25.6591
3707.71 37.9297
3707.78 60.6527
3707.82 79.2641
3707.86 104.293
3707.93 177.477
3708.00 236.852
3708.07 204.209
3708.14 138.973
3708.21 93.9864
3708.28 67.3998
3708.35 50.9569
3708.42 40.5725
3708.49 33.4642
3708.56 28.5220
3708.70 22.1100
3708.84 18.2636
3708.98 15.7500
3709.25 12.7292
3709.53 10.9955
3709.81 9.88725
3710.36 8.54903
3710.92 7.76653
3711.48 7.24909
3712.59 6.59252
3713.70 6.17998
3714.81 5.88719
3717.03 5.47559
3719.25 5.16700
3721.47 4.87389
3722.58 4.70037
3723.13 4.59556
3723.69 4.47013
3724.24 4.31576
3724.80 4.14358
3725.08 4.10671
3725.22 4.15587
3725.35 4.33590
3725.49 4.86339
3725.56 5.44206
3725.63 6.46580
3725.70 8.44945
3725.77 12.5294
3725.81 16.3067
3725.84 22.0995
3725.88 31.8265
3725.91 47.4768
3725.93 62.5338
3725.96 81.0136
3726.00 109.209
3726.05 96.2776
3726.09 66.6551
3726.14 44.2197
3726.19 31.5766
3726.24 24.2035
3726.29 19.6152
3726.34 16.5794
3726.39 14.4650
3726.49 11.7747
3726.59 10.1744
3726.69 9.13252
3726.89 7.87973
3727.09 7.16182
3727.29 6.70443
3727.69 6.15388
3728.09 5.83205
3728.49 5.61902
3729.29 5.34542
3730.10 5.16785
3730.90 5.03459
3732.50 4.82416
3734.10 4.62883
3734.90 4.52013
3735.70 4.39293
3736.50 4.23462
3736.90 4.14090
3737.30 4.04244
3737.70 3.97141
3737.90 3.98679
3738.10 4.11289
3738.30 4.55186
3738.40 5.06843
3738.50 6.05081
3738.60 8.05863
3738.65 9.85447
3738.70 12.6672
3738.75 17.2894
3738.80 25.3378
3738.83 31.6066
3738.85 40.2591
3738.88 52.3051
3738.90 69.1417
3738.95 117.025
3739.00 156.968
3739.05 135.834
3739.10 92.6182
3739.15 59.1585
3739.21 40.9118
3739.27 30.3911
3739.32 24.0993
3739.38 19.9285
3739.44 17.1114
3739.55 13.5396
3739.66 11.4472
3739.78 10.1011
3740.00 8.50910
3740.23 7.60957
3740.45 7.04313
3740.90 6.37172
3741.35 5.99004
3741.80 5.74360
3742.71 5.44152
3743.61 5.25986
3744.51 5.13560
3746.31 4.97044
3748.12 4.85991
3749.92 4.77674
3753.53 4.65260
3757.14 4.55830
3760.75 4.48092
3764.35 4.41983
3766.16 4.41904
3766.61 4.44284
3767.06 4.52256
3767.29 4.63655
3767.51 4.94681
3767.62 5.35096
3767.74 6.35575
3767.79 7.56965
3767.85 10.2265
3767.88 12.9382
3767.91 17.9183
3767.92 22.0637
3767.93 28.1869
3767.95 37.4673
3767.96 51.7991
3767.98 80.8660
3768.00 99.1963
3768.02 80.8847
3768.04 51.8224
3768.06 35.1559
3768.07 24.8349
3768.09 18.6968
3768.11 15.0349
3768.14 10.7801
3768.18 8.61173
3768.25 6.59802
3768.32 5.72896
3768.46 5.01481
3768.60 4.73492
3768.88 4.51762
3769.16 4.43440
3770.28 4.33713
3772.52 4.28141
3777.00 4.20927
3781.49 4.14513
3783.73 4.11774
3784.85 4.11849
3785.41 4.17258
3785.69 4.38678
3785.83 5.05825
3785.90 6.70260
3785.93 9.52543
3785.95 12.8573
3785.97 18.8341
3785.98 27.6737
3786.00 33.6315
3786.02 27.7098
3786.03 18.8787
3786.05 13.4214
3786.06 10.2844
3786.09 7.20489
3786.16 5.28912
3786.22 4.71017
3786.28 4.46418
3786.53 4.18504
3787.02 4.09800
3788.01 4.06331
3790.00 4.03551
3791.98 4.03905
3792.47 4.06538
3792.97 4.15116
3793.22 4.27306
3793.47 4.60717
3793.59 5.04268
3793.71 6.14804
3793.78 7.47451
3793.84 10.4771
3793.87 13.6180
3793.90 19.5583
3793.92 24.8544
3793.93 32.3984
3793.95 44.0806
3793.96 63.4927
3793.98 98.3807
3794.00 122.920
3794.02 98.4088
3794.04 63.5272
3794.06 44.1128
3794.07 31.8174
3794.09 24.0897
3794.10 19.3144
3794.13 13.5006
3794.16 10.4137
3794.23 7.44998
3794.29 6.13441
3794.41 5.02710
3794.54 4.59196
3794.79 4.25133
3795.04 4.12219
3795.53 4.02149
3796.03 3.98034
3798.02 3.91691
3802.01 3.84566
3805.99 3.77608
3809.97 3.69857
3813.95 3.60474
3815.95 3.54642
3817.94 3.47421
3819.93 3.37682
3820.92 3.31142
3821.92 3.22710
3822.92 3.11283
3823.41 3.04019
3823.91 2.95786
3824.41 2.88213
3824.66 2.87107
3824.91 2.92774
3825.16 3.19135
3825.28 3.53230
3825.40 4.21043
3825.53 5.68920
3825.59 7.06508
3825.65 9.30887
3825.72 13.1930
3825.75 16.2245
3825.78 20.4535
3825.81 26.4966
3825.84 35.3402
3825.87 48.5215
3825.90 68.3875
3825.95 116.123
3826.00 154.374
3826.05 132.960
3826.10 89.5192
3826.14 65.1042
3826.18 48.6541
3826.22 37.8244
3826.25 30.4834
3826.33 21.5869
3826.41 16.6881
3826.49 13.6344
3826.57 11.6185
3826.72 9.19422
3826.88 7.80883
3827.03 6.93925
3827.34 5.91744
3827.65 5.34823
3827.96 4.98917
3828.59 4.56402
3829.21 4.32056
3829.83 4.16164
3831.07 3.96281
3832.32 3.83843
3833.56 3.74912
3836.05 3.61974
3841.02 3.43242
3846.00 3.26561
3850.97 3.08517
3855.95 2.86111
3858.43 2.71373
3859.68 2.62319
3860.92 2.51448
3862.17 2.37760
3862.79 2.29444
3863.41 2.20108
3864.03 2.10890
3864.34 2.08178
3864.65 2.10671
3864.96 2.29688
3865.12 2.56321
3865.27 3.11419
3865.43 4.35772
3865.51 5.56073
3865.59 7.55121
3865.66 11.1754
3865.70 14.1141
3865.74 18.2270
3865.78 24.4885
3865.82 34.1434
3865.86 49.4838
3865.90 73.7046
3865.95 124.547
3866.00 164.731
3866.05 140.507
3866.10 93.7021
3866.14 70.7124
3866.17 54.7573
3866.24 35.3297
3866.31 25.0596
3866.38 19.0857
3866.45 15.3187
3866.52 12.7873
3866.66 9.68367
3866.79 7.90511
3866.93 6.77716
3867.21 5.45837
3867.48 4.71987
3867.76 4.25314
3868.31 3.69644
3868.86 3.36891
3869.41 3.14657
3870.52 2.84213
3871.62 2.61496
3872.72 2.40656
3873.27 2.29969
3873.82 2.20413
3874.10 2.19599
3874.38 2.34491
3874.51 2.65000
3874.65 3.55722
3874.72 4.68440
3874.79 7.12761
3874.82 9.51147
3874.86 13.3820
3874.89 20.1465
3874.91 25.3431
3874.93 32.6071
3874.95 42.4436
3874.96 53.9779
3875.00 71.4850
3875.02 69.2335
3875.04 60.9287
3875.07 41.2424
3875.12 26.2327
3875.16 18.0172
3875.20 13.3848
3875.24 10.5745
3875.33 7.50254
3875.41 5.94152
3875.58 4.44611
3875.75 3.75184
3876.08 3.10572
3876.42 2.79563
3877.09 2.47093
3877.76 2.27686
3879.11 1.99886
3880.45 1.76378
3881.79 1.55000
3882.47 1.46620
3883.14 1.43454
3883.81 1.55887
3884.15 1.77755
3884.48 2.25836
3884.82 3.36981
3884.99 4.46557
3885.15 6.34619
3885.32 9.85050
3885.41 12.7951
3885.49 17.2050
3885.57 24.1177
3885.66 35.5448
3885.74 55.4941
3885.83 91.2771
3885.91 151.459
3886.00 195.637
3886.09 161.877
3886.18 105.154
3886.26 67.3288
3886.35 45.7124
3886.44 32.7579
3886.52 24.7434
3886.69 15.7064
3886.87 11.0466
3887.04 8.32014
3887.21 6.57330
3887.56 4.51019
3887.91 3.35121
3888.25 2.61529
3888.94 1.77303
3889.29 1.57020
3889.64 1.53473
3889.98 1.76660
3890.15 2.05160
3890.33 2.52097
3890.50 3.27269
3890.67 4.47477
3890.85 6.42955
3891.02 9.71408
3891.19 15.5113
3891.28 20.1042
3891.37 26.4536
3891.45 35.6332
3891.54 48.8713
3891.63 68.7212
3891.71 97.7459
3891.86 172.485
3892.00 236.259
3892.15 206.389
3892.29 140.695
3892.46 87.6075
3892.63 58.8784
3892.81 42.6715
3892.98 32.8472
3893.15 26.3930
3893.32 21.9620
3893.66 16.3442
3894.01 13.0104
3894.35 10.8512
3895.04 8.26005
3895.72 6.79955
3896.41 5.91149
3897.78 5.13224
3899.15 5.62671
3899.84 6.71310
3900.53 8.98731
3901.21 13.7839
3901.56 18.0708
3901.90 24.7282
3902.24 35.4995
3902.59 53.8087
3902.93 86.5825
3903.27 146.844
3903.64 253.845
3904.00 343.575
3904.36 297.900
3904.73 201.848
3904.97 153.965
3905.21 119.926
3905.68 78.5426
3906.16 56.2567
3906.63 43.0953
3907.11 34.6730
3907.59 28.9611
3908.54 21.8523
3909.49 17.6969
3910.44 15.0194
3912.35 11.8116
3914.25 9.97349
3916.16 8.78628
3918.06 7.96328
3919.01 7.68611
3919.25 7.66569
3919.49 7.74341
3919.61 7.90503
3919.73 8.37463
3919.79 8.97664
3919.85 10.3598
3919.88 11.8687
3919.91 14.8204
3919.94 21.5539
3919.95 28.3047
3919.97 39.3438
3919.98 58.6635
3920.00 71.3433
3920.02 58.6805
3920.03 39.3579
3920.05 25.6606
3920.07 18.8403
3920.09 14.9313
3920.11 12.7552
3920.15 10.4018
3920.19 9.29391
3920.27 8.28039
3920.34 7.84661
3920.50 7.47463
3920.65 7.30725
3921.27 7.01934
3922.50 6.70297
3923.73 6.46496
3924.35 6.42574
3924.66 6.64433
3924.74 6.88044
3924.81 7.47142
3924.85 8.16239
3924.89 9.58109
3924.93 13.3957
3924.95 17.7634
3924.97 26.7992
3924.98 38.8010
3925.00 47.4090
3925.02 38.8158
3925.03 26.8133
3925.05 20.2646
3925.06 16.0687
3925.08 11.7361
3925.11 9.61301
3925.14 8.52298
3925.19 7.44096
3925.24 6.96157
3925.34 6.54212
3925.44 6.36476
3925.84 6.12649
3926.65 5.95095
3928.27 5.70188
3931.50 5.28251
3934.74 4.91221
3936.35 4.74056
3937.16 4.67364
3937.56 4.70490
3937.77 4.93228
3937.87 5.61943
3937.92 7.10484
3937.94 9.18083
3937.97 14.3823
3937.98 20.1922
3938.00 24.1970
3938.02 20.1915
3938.03 14.3789
3938.05 10.1613
3938.07 7.95718
3938.11 6.14940
3938.18 5.11802
3938.33 4.69770
3938.63 4.53713
3939.23 4.43630
3940.43 4.29723
3942.82 4.03385
3945.21 3.77496
3947.61 3.55135
3950.00 3.50038
3951.20 3.68768
3952.40 4.27177
3953.59 5.86477
3954.19 7.54424
3954.79 10.4944
3955.39 16.0193
3955.69 20.5869
3955.99 27.2619
3956.29 37.3593
3956.59 53.0323
3956.88 78.1322
3957.18 118.603
3957.59 206.319
3958.00 280.989
3958.41 245.414
3958.82 167.737
3959.29 106.580
3959.76 73.0030
3960.23 53.8305
3960.70 42.0692
3961.17 34.3641
3961.64 29.0354
3962.59 22.3014
3963.53 18.3172
3964.47 15.7368
3966.36 12.6441
3968.24 10.8831
3970.12 9.75768
3973.89 8.40879
3977.66 7.62863
3981.43 7.11810
3985.20 6.75709
3987.08 6.61862
3988.03 6.57872
3988.50 6.64269
3988.73 6.95322
3988.79 7.23644
3988.85 7.90062
3988.91 10.0404
3988.94 13.2384
3988.95 16.5886
3988.97 21.7890
3988.98 31.2797
3989.00 37.1193
3989.02 30.6929
3989.03 21.7971
3989.06 14.5873
3989.08 11.3367
3989.12 8.66213
3989.16 7.69223
3989.21 7.24262
3989.38 6.69191
3989.72 6.50078
3990.40 6.41248
3991.78 6.32345
3994.52 6.18437
4000.00 5.96326
4000.00 8.44253
5000.00 7.96397
6000.00 7.61382
7000.00 7.34402
8000.00 7.12837
9000.00 6.95121
10000.0 6.80256
12500.0 6.51625
15000.0 6.30887
17000.0 6.17920
20000.0 6.02509
25000.0 5.83758
30000.0 5.70305
35000.0 5.60105
40000.0 5.52056
45000.0 5.45506
50000.0 5.40044
55000.0 5.35398
60000.0 5.31378
65000.0 5.27851
70000.0 5.24717
75000.0 5.21902
80000.0 5.19350
81607.0 5.18578
81607.0 5.26590
81614.7 5.26587
81614.8 5.26587
90000.0 5.24092
100000 5.21115
150000 5.16308
161829 5.17491
177205 5.19029
200000 5.21308
255797 5.32980
300000 5.42226
328736 5.49501
386763 5.64193
386763 5.64193
392708 5.65698
400000 5.67544
440327 5.77754
440327 5.77754
500000 5.92862
600000 6.16608
637361 6.24790
637361 6.24790
645250 6.26518
645250 6.26518
700000 6.38509
710895 6.40610
710895 6.40610
733827 6.45033
733827 6.45033
773536 6.52690
773537 6.52691
794766 6.56785
794766 6.56785
800000 6.57794
825276 6.61610
825276 6.61611
878437 6.69637
878437 6.69637
891000 6.71534
891000 6.71534
900000 6.72893
923043 6.75582
923043 6.75582
948746 6.78581
948746 6.78581
1.00000E+06 6.84562
1.15000E+06 6.95476
1.30000E+06 6.98821
1.50000E+06 6.93209
1.80000E+06 6.69715
2.00000E+06 6.48046
2.01216E+06 6.46729
2.60000E+06 5.83040
3.00000E+06 5.47390
3.50000E+06 5.12492
4.00000E+06 4.84414
5.00000E+06 4.49434
6.00000E+06 4.25228
6.13118E+06 4.25006
6.13118E+06 4.25006
7.00000E+06 4.23533
8.00000E+06 4.35739
9.00000E+06 4.52276
9.05521E+06 4.53109
9.05521E+06 4.53109
1.00000E+07 4.67365
1.09122E+07 4.77727
1.10000E+07 4.78724
1.20000E+07 4.86029
1.30000E+07 4.89739
1.40000E+07 4.90414
1.45000E+07 4.89445
1.50000E+07 4.88475
1.51340E+07 4.87909
1.60000E+07 4.84248
1.62776E+07 4.82508
1.62776E+07 4.82508
1.70000E+07 4.77979
1.80000E+07 4.69774
1.90000E+07 4.59747
2.00000E+07 4.48254