Ba-130(n,tot) ENDF/B-VII.1
Energy(eV) XS(b)
1.00000E-05 438.683
1.25000E-05 392.474
1.50000E-05 358.365
2.00000E-05 310.485
2.75000E-05 264.929
3.50000E-05 234.946
4.25000E-05 213.302
5.00000E-05 196.732
6.25000E-05 176.067
7.50000E-05 160.812
0.000100000 139.400
0.000125000 124.787
0.000150000 114.001
0.000200000 98.8597
0.000275000 84.4530
0.000350000 74.9715
0.000425000 68.1266
0.000500000 62.8865
0.000625000 56.3512
0.000750000 51.5270
0.00100000 44.7552
0.00125000 40.1338
0.00150000 36.7223
0.00200000 31.9335
0.00275000 27.3766
0.00350000 24.3773
0.00425000 22.2119
0.00500000 20.5540
0.00625000 18.4862
0.00750000 16.9596
0.0100000 14.8163
0.0125000 13.3531
0.0150000 12.2728
0.0200000 10.7557
0.0253000 9.66753
0.0314750 8.76442
0.0376500 8.09333
0.0500000 7.14520
0.0625000 6.48743
0.0750000 6.00116
0.100000 5.31716
0.125000 4.84902
0.150000 4.50247
0.200000 4.01407
0.275000 3.54631
0.350000 3.23611
0.500000 2.83676
0.750000 2.45545
1.00000 2.22429
1.50000 1.94511
2.00000 1.77560
2.75000 1.61178
3.50000 1.50226
5.00000 1.35938
7.50000 1.21705
10.0000 1.12273
15.0000 0.988602
20.0000 0.889846
26.5554 0.818078
29.8331 0.836093
33.1108 0.945704
34.7496 1.07032
35.5690 1.16292
35.9787 1.21958
36.1836 1.25099
36.3884 1.28465
36.5933 1.32077
36.7982 1.35955
37.0030 1.40121
37.2079 1.44599
37.4127 1.49420
37.6176 1.54613
38.0273 1.66259
38.4370 1.79873
38.8467 1.95878
39.2564 2.14820
39.6661 2.37417
40.4856 2.97718
41.3050 3.89477
42.1244 5.38651
42.5341 6.51043
42.9438 8.05703
43.3535 10.2718
43.7632 13.6110
44.1730 19.0048
44.5827 28.6019
44.7875 36.5118
44.9924 48.3516
45.1972 67.2592
45.4021 100.264
45.6069 165.930
45.7094 226.382
45.8118 327.254
45.9142 514.079
45.9654 673.280
46.0167 917.823
46.0679 1318.71
46.1191 2031.82
46.1703 3431.16
46.1959 4635.30
46.2215 6387.27
46.2608 10204.3
46.3000 12735.0
46.3393 10172.0
46.3785 6348.41
46.4068 4449.13
46.4351 3198.88
46.4634 2374.31
46.4917 1816.73
46.5483 1147.54
46.6049 783.764
46.6614 566.792
46.7180 427.931
46.8312 267.707
46.9444 182.709
47.0575 132.450
47.1707 100.351
47.2839 78.6420
47.5102 52.0667
47.7366 37.0896
47.9629 27.8668
48.1893 21.8195
48.4156 17.6677
48.6419 14.7194
48.8683 12.5734
49.0946 10.9858
49.3210 9.80087
49.5473 8.91673
49.7737 8.26441
49.8868 8.00978
50.0000 7.79662
50.0607 7.69812
50.1213 7.60998
50.1820 7.53175
50.2427 7.46303
50.3034 7.40345
50.3640 7.35269
50.4247 7.31046
50.4854 7.27649
50.6067 7.23243
50.7280 7.21895
50.9707 7.27939
51.2134 7.45239
51.4560 7.73718
51.9414 8.66027
52.4267 10.1287
52.9121 12.3056
53.3974 15.4776
53.8828 20.1401
54.3681 27.1765
54.8534 38.2584
55.3388 56.8309
55.8241 90.8890
56.0668 119.429
56.3095 162.490
56.5522 231.497
56.7948 351.544
56.9162 447.582
57.0375 586.567
57.1588 797.770
57.2802 1139.55
57.4015 1741.41
57.4622 2226.94
57.5228 2931.93
57.5835 4000.36
57.6442 5698.84
57.7048 8527.84
57.7655 13324.0
57.8328 21461.8
57.9000 26996.1
57.9673 21732.4
58.0345 13673.3
58.0755 10161.5
58.1165 7680.42
58.1984 4694.38
58.2804 3115.49
58.3624 2205.45
58.4443 1639.93
58.5263 1266.74
58.6902 822.130
58.8542 578.121
59.0181 430.043
59.3459 266.864
59.6738 183.416
60.0016 134.903
60.3295 104.116
60.6574 83.2934
61.3131 57.6136
61.9688 42.8671
62.6245 33.5517
63.2802 27.2523
64.5916 19.4490
65.9030 14.9194
67.2145 12.0183
68.5259 10.0262
71.1487 7.49992
73.7716 5.98126
76.3944 4.97170
79.0173 4.25012
84.2629 3.27411
89.5086 2.62159
94.7543 2.12842
100.000 1.71886
109.003 1.11136
113.504 0.845404
118.005 0.651578
120.256 0.628864
120.818 0.638449
121.381 0.656694
121.944 0.685417
122.506 0.726849
122.788 0.753193
123.069 0.783810
123.350 0.819173
123.632 0.859806
123.913 0.906318
124.194 0.959344
124.757 1.08812
125.320 1.25359
125.882 1.46541
126.445 1.73648
127.008 2.08394
127.570 2.53144
128.133 3.11153
128.696 3.87041
129.258 4.87472
129.821 6.22423
130.384 8.07085
130.946 10.6576
131.509 14.3863
132.072 19.9645
132.634 28.7150
133.197 43.3539
133.759 70.1216
134.041 92.4770
134.322 126.041
134.603 179.435
134.885 271.224
135.166 447.434
135.307 602.294
135.447 846.703
135.588 1262.08
135.729 2037.59
135.799 2693.87
135.869 3674.64
135.940 5183.78
136.010 7513.27
136.105 12142.6
136.200 15325.6
136.295 12379.0
136.390 7813.80
136.484 4886.96
136.577 3224.23
136.671 2252.62
136.765 1653.32
136.858 1261.93
136.952 994.505
137.139 663.991
137.327 476.055
137.514 359.233
137.888 227.540
138.263 158.669
138.638 118.028
139.012 91.9517
139.387 74.1654
140.136 52.0089
140.885 39.1470
141.634 30.9484
142.383 25.3622
143.882 18.3736
145.380 14.2636
146.878 11.5966
148.376 9.73954
151.373 7.32930
154.369 5.82031
157.366 4.76162
160.363 3.94966
166.356 2.69008
169.352 2.15358
172.349 1.68177
173.847 1.50438
175.345 1.42730
176.095 1.46181
176.844 1.58215
177.218 1.68945
177.406 1.75861
177.593 1.83992
177.780 1.93515
177.967 2.04620
178.155 2.17534
178.342 2.32514
178.529 2.49886
178.717 2.70010
178.904 2.93323
179.091 3.20344
179.466 3.88119
179.840 4.79996
180.215 6.05994
180.589 7.81408
180.964 10.3062
181.339 13.9400
181.713 19.4258
182.088 28.0866
182.462 42.6121
182.837 69.1083
183.024 91.1029
183.211 123.876
183.399 175.364
183.586 262.076
183.773 423.135
183.867 559.744
183.961 767.266
184.054 1101.49
184.148 1676.75
184.241 2746.61
184.335 4836.05
184.418 7864.63
184.500 9989.36
184.583 8119.68
184.665 5156.72
184.725 3648.99
184.785 2651.35
184.845 1989.75
184.905 1539.68
185.025 995.248
185.144 695.795
185.264 515.117
185.384 398.096
185.624 260.824
185.863 186.274
186.103 141.150
186.342 111.659
186.582 91.2531
187.061 65.4470
187.540 50.2252
188.020 40.4070
188.499 33.6540
189.457 25.1218
190.416 20.0562
191.374 16.7515
192.333 14.4468
194.249 11.4701
196.166 9.64412
198.083 8.41298
200.000 7.52569
203.237 6.47661
206.475 5.75065
209.712 5.20640
210.522 5.09247
211.331 5.00130
211.736 4.98806
211.938 5.00869
212.140 5.07663
212.343 5.26582
212.444 5.47241
212.545 5.85710
212.646 6.65847
212.697 7.40929
212.747 8.66042
212.798 10.9486
212.823 12.8523
212.848 15.6919
212.874 20.1383
212.899 27.5096
212.924 40.4791
212.950 63.8876
212.975 101.303
213.000 127.704
213.025 104.961
213.051 68.6500
213.069 50.2888
213.087 38.0810
213.105 29.8798
213.123 24.2985
213.159 17.4793
213.195 13.7091
213.231 11.4133
213.267 9.91923
213.339 8.15726
213.411 7.19009
213.483 6.59976
213.628 5.93599
213.772 5.58310
213.916 5.36756
214.205 5.11788
214.494 4.97430
214.782 4.87708
215.359 4.74437
216.514 4.57079
217.668 4.44040
222.286 4.04817
231.521 3.49096
240.756 3.06959
249.991 2.71260
259.227 2.38122
268.462 2.04027
273.079 1.84871
275.388 1.74177
277.697 1.62403
280.006 1.49615
281.160 1.43484
282.315 1.39372
282.892 1.39615
283.469 1.43631
284.046 1.55824
284.623 1.87514
284.912 2.19470
285.201 2.73595
285.345 3.14654
285.489 3.70495
285.561 4.06048
285.633 4.48185
285.706 4.98636
285.778 5.59373
285.850 6.33385
285.886 6.76486
285.922 7.24280
285.994 8.37579
286.066 9.80375
286.139 11.6377
286.211 14.0310
286.283 17.2334
286.355 21.6221
286.427 27.8530
286.499 37.0400
286.571 51.3468
286.644 75.1333
286.680 93.3674
286.716 118.679
286.752 155.077
286.788 209.527
286.824 295.824
286.860 440.539
286.896 701.489
286.932 1187.50
286.966 1925.37
287.000 2439.22
287.034 1978.06
287.068 1253.41
287.092 895.607
287.116 656.306
287.140 495.102
287.163 384.916
287.211 250.088
287.259 175.317
287.307 129.987
287.354 100.547
287.450 65.9749
287.545 47.1644
287.640 35.7893
287.736 28.3669
287.831 23.2457
288.022 16.7827
288.213 12.9888
288.403 10.5513
288.594 8.88302
288.976 6.78667
289.357 5.55064
289.739 4.74888
290.120 4.19225
290.883 3.47577
291.646 3.03661
292.409 2.73911
293.172 2.52267
294.698 2.22325
296.224 2.01877
299.275 1.73725
302.327 1.53145
305.379 1.35838
311.483 1.05118
317.587 0.761285
320.638 0.622069
323.690 0.497877
326.742 0.428483
328.268 0.456749
329.031 0.508038
329.413 0.549031
329.794 0.604136
329.985 0.638270
330.175 0.677617
330.557 0.775323
330.938 0.905527
331.320 1.08013
331.701 1.31695
332.083 1.64312
332.464 2.10179
332.846 2.76451
333.227 3.75755
333.609 5.31771
333.990 7.93247
334.181 9.94009
334.372 12.7322
334.562 16.7620
334.753 22.8473
334.944 32.6211
335.135 49.6544
335.230 63.3177
335.325 83.1368
335.421 113.339
335.516 162.348
335.612 249.213
335.659 319.694
335.707 422.367
335.755 579.362
335.802 831.423
335.850 1256.93
335.898 1988.53
335.949 3204.18
336.000 4030.10
336.051 3244.04
336.103 2041.67
336.145 1365.52
336.188 946.716
336.231 684.765
336.273 514.928
336.359 318.593
336.444 215.798
336.529 155.726
336.615 117.810
336.785 74.4576
336.956 51.5431
337.127 37.9674
337.297 29.2504
337.468 23.3130
337.809 15.9404
338.151 11.6902
338.492 9.00205
338.833 7.18472
339.516 4.93643
340.199 3.63400
340.881 2.80055
341.564 2.22793
342.929 1.49928
344.295 1.05904
345.660 0.767138
347.025 0.563684
348.391 0.420530
349.756 0.324629
350.439 0.292744
351.121 0.271539
351.804 0.261510
352.487 0.263668
353.169 0.279764
353.852 0.312803
354.535 0.368314
355.217 0.457892
355.900 0.611657
356.241 0.738408
356.583 0.938616
356.924 1.30829
357.095 1.64056
357.265 2.20080
357.436 3.29175
357.521 4.28995
357.607 5.96332
357.692 9.11762
357.735 11.8678
357.777 16.1959
357.820 23.6011
357.863 37.6209
357.884 49.7791
357.905 68.3216
357.927 97.7562
357.948 144.877
357.974 229.825
357.987 269.325
358.000 285.110
358.026 226.598
358.052 140.851
358.073 94.8306
358.094 66.1242
358.114 47.9697
358.135 36.0893
358.156 28.0122
358.176 22.3226
358.197 18.1877
358.218 15.1006
358.238 12.7414
358.259 10.9020
358.280 9.44268
358.301 8.26707
358.342 6.51436
358.383 5.29453
358.466 3.75935
358.549 2.87639
358.715 1.96834
358.880 1.55163
359.046 1.34098
359.377 1.17735
359.709 1.15777
360.040 1.20025
360.702 1.37618
362.027 1.93947
363.353 2.76538
364.678 3.93429
366.003 5.59453
367.328 7.98777
368.653 11.5162
369.978 16.8819
371.303 25.3863
372.628 39.6481
373.954 65.5215
374.616 86.8043
375.279 118.183
375.941 166.711
376.604 246.555
377.266 389.362
377.598 505.729
377.929 675.741
378.260 934.877
378.592 1348.74
378.923 2040.55
379.254 3217.34
379.627 5273.38
380.000 6746.55
380.373 5522.27
380.746 3532.29
380.997 2576.40
381.247 1919.73
381.498 1470.34
381.749 1156.81
382.250 766.781
382.751 546.067
383.253 410.194
383.754 320.852
384.757 214.350
385.759 155.500
386.762 119.403
387.764 95.5528
388.767 78.8946
390.772 57.5863
392.777 44.8365
394.783 36.5120
396.788 30.7235
400.798 23.3063
404.809 18.8196
408.819 15.8382
412.829 13.7157
420.850 10.8590
424.861 9.81268
428.871 8.88890
432.881 7.99422
434.887 7.51555
436.892 6.97521
437.894 6.66493
438.897 6.31399
439.900 5.90841
440.902 5.43648
441.403 5.17953
441.905 4.92619
442.406 4.72597
442.907 4.73271
443.158 4.94679
443.409 5.48572
443.659 6.69711
443.785 7.78169
443.847 8.51841
443.910 9.42933
443.973 10.5667
444.035 11.9960
444.067 12.8490
444.098 13.8092
444.129 14.8963
444.161 16.1311
444.223 19.1540
444.286 23.1390
444.349 28.5092
444.411 35.8876
444.474 46.3413
444.537 61.6414
444.599 85.0039
444.662 122.580
444.725 187.615
444.756 238.641
444.787 310.585
444.819 415.539
444.850 572.516
444.881 814.183
444.913 1187.42
444.956 1970.40
445.000 2552.57
445.044 2116.95
445.088 1372.99
445.114 1036.64
445.141 797.021
445.195 504.453
445.249 346.694
445.302 254.397
445.356 196.004
445.409 156.930
445.517 109.348
445.624 82.4234
445.731 65.6329
445.946 46.4098
446.160 36.0716
446.375 29.7743
446.589 25.6001
446.804 22.6591
447.233 18.8301
447.662 16.4713
448.091 14.8827
448.520 13.7430
449.378 12.2174
450.236 11.2393
451.094 10.5536
451.952 10.0417
453.668 9.31709
455.384 8.81633
458.816 8.13989
462.248 7.67859
465.680 7.32757
472.544 6.80230
479.408 6.40863
486.272 6.09168
500.000 5.59488
514.486 5.18621
528.973 4.83708
536.216 4.66818
543.459 4.48724
547.080 4.38227
548.891 4.32166
550.702 4.25139
552.513 4.16461
553.418 4.11113
554.324 4.04771
554.776 4.01163
555.229 3.97311
555.682 3.93491
556.134 3.90738
556.361 3.90744
556.587 3.93115
556.813 4.00689
557.040 4.20680
557.153 4.40866
557.266 4.74875
557.379 5.35028
557.492 6.49505
557.606 8.94323
557.662 11.2844
557.719 15.2499
557.775 22.6307
557.804 28.8582
557.818 33.0649
557.832 38.2518
557.846 44.8244
557.860 53.1530
557.874 64.0244
557.889 78.2428
557.903 97.4125
557.917 123.254
557.931 158.575
557.945 206.506
557.959 267.497
557.973 338.146
558.000 434.474
558.014 415.060
558.028 358.709
558.055 232.210
558.078 158.227
558.102 112.353
558.125 83.4986
558.148 64.6406
558.195 42.6909
558.242 31.0165
558.288 24.0983
558.335 19.6589
558.428 14.4739
558.521 11.6494
558.614 9.92896
558.708 8.79297
558.801 7.99781
558.987 6.97404
559.174 6.35483
559.360 5.94496
559.547 5.65605
559.920 5.27783
560.292 5.04198
560.665 4.88039
561.038 4.76196
561.784 4.59723
562.530 4.48442
564.021 4.32888
565.513 4.21385
567.004 4.11387
569.988 3.91729
571.479 3.80714
572.971 3.67979
574.462 3.52550
575.954 3.33026
576.700 3.21173
577.445 3.07707
578.191 2.92938
578.937 2.79040
579.310 2.74836
579.683 2.76315
580.056 2.91423
580.429 3.41110
580.615 3.95382
580.801 4.90561
580.895 5.64112
580.941 6.10410
580.988 6.64844
581.035 7.29166
581.081 8.05605
581.128 8.97020
581.174 10.0713
581.221 11.4114
581.268 13.0504
581.314 15.0795
581.361 17.6215
581.407 20.8494
581.454 25.0130
581.501 30.4824
581.547 37.8230
581.594 47.9301
581.640 62.2815
581.687 83.4389
581.734 116.111
581.780 169.564
581.827 263.469
581.850 337.832
581.873 442.371
581.897 591.306
581.920 802.470
581.960 1323.41
582.000 1705.71
582.040 1407.46
582.080 907.567
582.108 655.195
582.137 484.686
582.165 369.760
582.193 290.743
582.250 193.256
582.306 138.754
582.363 105.323
582.419 83.4372
582.532 57.3382
582.646 42.8907
582.759 33.9973
582.872 28.0954
582.985 23.9538
583.211 18.6198
583.437 15.3982
583.663 13.2764
583.890 11.7900
584.342 9.86610
584.794 8.69038
585.247 7.90453
585.699 7.34513
586.604 6.60458
587.509 6.13777
588.413 5.81637
589.318 5.58100
591.128 5.25713
592.937 5.04196
594.747 4.88606
596.556 4.76596
600.175 4.58829
603.794 4.45793
611.032 4.26598
618.270 4.11814
625.508 3.99045
639.984 3.75571
654.460 3.50851
661.698 3.36362
668.936 3.18848
676.174 2.95627
679.793 2.80129
683.412 2.60063
685.221 2.47430
687.031 2.32299
688.840 2.13817
690.650 1.91002
691.554 1.77847
692.459 1.63997
693.364 1.51178
694.269 1.45337
694.721 1.50441
695.173 1.68674
695.400 1.86823
695.626 2.15090
695.739 2.34609
695.852 2.58946
695.965 2.89382
696.078 3.27577
696.191 3.75885
696.304 4.37401
696.417 5.16482
696.531 6.19314
696.644 7.54903
696.757 9.36707
696.870 11.8549
696.983 15.3414
697.096 20.3891
697.209 27.9797
697.322 39.9763
697.435 60.2230
697.548 97.6008
697.605 128.983
697.661 175.985
697.718 250.181
697.775 373.788
697.831 592.806
697.888 993.549
697.944 1636.53
698.000 2104.13
698.056 1731.35
698.113 1113.63
698.170 696.082
698.228 461.187
698.286 325.142
698.344 241.537
698.402 186.894
698.460 149.447
698.576 102.987
698.691 76.2818
698.807 59.5046
699.039 40.2466
699.270 29.9204
699.502 23.6728
699.733 19.5659
699.964 16.6988
700.427 13.0110
700.890 10.7772
701.353 9.29548
701.816 8.24658
702.742 6.86266
703.668 5.98565
704.594 5.36944
705.520 4.89994
707.372 4.18096
708.298 3.86915
709.224 3.56305
710.150 3.26278
710.613 3.13731
711.076 3.08903
711.307 3.14228
711.539 3.31509
711.770 3.73628
712.002 4.72326
712.117 5.66665
712.233 7.20227
712.291 8.33309
712.349 9.83450
712.378 10.7730
712.407 11.8667
712.436 13.1533
712.465 14.6767
712.494 16.5009
712.523 18.6884
712.552 21.3542
712.580 24.6142
712.609 28.6760
712.638 33.7690
712.667 40.2726
712.696 48.7228
712.725 59.9691
712.754 75.1837
712.783 96.3940
712.812 126.905
712.841 172.587
712.870 243.195
712.899 356.555
712.928 540.321
712.964 893.244
713.000 1153.20
713.036 953.572
713.073 617.006
713.103 422.947
713.133 300.537
713.163 222.792
713.193 171.600
713.253 111.550
713.313 79.3962
713.373 60.1946
713.434 47.8365
713.554 33.3140
713.674 25.3635
713.794 20.4916
713.915 17.2617
714.035 14.9927
714.276 12.0581
714.516 10.2725
714.757 9.08488
714.998 8.24332
715.479 7.13524
715.960 6.43978
716.441 5.96106
716.923 5.60948
717.885 5.12111
718.848 4.79015
720.773 4.34856
722.698 4.04379
724.623 3.80012
728.473 3.37725
730.398 3.16484
732.323 2.93354
734.248 2.66773
736.173 2.34853
737.135 2.16363
738.098 1.96339
739.060 1.76223
740.023 1.61780
740.504 1.62251
740.985 1.76100
741.226 1.92479
741.466 2.19607
741.587 2.38941
741.707 2.63471
741.827 2.94604
741.948 3.34210
742.068 3.84860
742.188 4.49925
742.309 5.34258
742.429 6.44703
742.549 7.91224
742.669 9.88707
742.790 12.6010
742.910 16.4209
743.030 21.9652
743.151 30.3054
743.271 43.4781
743.391 65.6424
743.512 106.281
743.572 140.116
743.632 190.342
743.692 268.612
743.752 396.664
743.812 618.255
743.873 1010.07
743.936 1671.99
744.000 2160.31
744.064 1786.13
744.128 1154.17
744.173 832.924
744.218 615.973
744.263 469.809
744.309 369.041
744.399 245.222
744.490 175.922
744.580 133.410
744.671 105.534
744.852 72.2551
745.033 53.7926
745.214 42.4029
745.395 34.8283
745.576 29.5021
745.939 22.6234
746.301 18.4538
746.663 15.6985
747.025 13.7615
747.750 11.2450
748.474 9.69917
749.199 8.66080
749.923 7.91804
751.372 6.92865
752.821 6.29957
754.269 5.86282
755.718 5.54026
758.616 5.09097
761.514 4.78720
767.309 4.38668
773.104 4.11686
778.899 3.90704
790.490 3.55775
802.081 3.20854
807.876 3.00241
813.671 2.74901
819.467 2.40906
822.364 2.18389
825.262 1.90073
826.711 1.73055
828.160 1.53858
829.608 1.32829
831.057 1.12458
831.782 1.05288
832.506 1.04519
832.868 1.08977
833.231 1.19174
833.593 1.38542
833.774 1.53364
833.955 1.72987
834.136 1.98906
834.317 2.33187
834.498 2.78737
834.679 3.39730
834.860 4.22305
835.042 5.35749
835.223 6.94578
835.404 9.22381
835.585 12.5934
835.766 17.7797
835.947 26.1905
836.128 40.8297
836.219 52.4380
836.309 68.9721
836.400 93.5122
836.490 131.657
836.581 194.817
836.671 307.438
836.717 398.129
836.762 527.486
836.807 714.979
836.853 985.065
836.926 1622.79
837.000 2086.78
837.074 1717.02
837.148 1104.04
837.197 807.212
837.247 602.992
837.297 463.078
837.346 365.324
837.446 243.576
837.545 174.526
837.645 131.920
837.744 103.837
837.943 70.2436
838.142 51.5884
838.340 40.0883
838.738 27.0892
839.136 20.1774
839.533 15.9929
839.931 13.2247
840.328 11.2710
841.123 8.70006
841.919 7.06906
842.714 5.91357
843.509 5.02096
845.099 3.63480
845.894 3.06364
846.689 2.61641
847.087 2.50448
847.485 2.56941
847.683 2.72377
847.882 3.01529
847.982 3.23427
848.081 3.51888
848.180 3.88666
848.280 4.36029
848.379 4.97188
848.479 5.76354
848.578 6.79419
848.677 8.14714
848.777 9.94274
848.876 12.3593
848.976 15.6686
849.075 20.2998
849.174 26.9581
849.274 36.8601
849.373 52.2333
849.473 77.4660
849.572 122.036
849.622 157.728
849.671 208.889
849.721 284.729
849.771 401.250
849.820 586.042
849.870 880.512
849.935 1469.84
850.000 1916.17
850.065 1598.14
850.130 1040.92
850.182 728.647
850.233 526.844
850.285 395.552
850.336 307.756
850.439 202.742
850.542 145.374
850.646 110.722
850.749 88.1554
850.955 61.3746
851.161 46.5197
851.367 37.3301
851.573 31.1836
851.779 26.8367
852.192 21.1644
852.604 17.6770
853.016 15.3386
853.429 13.6708
854.253 11.4604
855.078 10.0658
855.903 9.10532
856.727 8.40216
858.377 7.43651
860.026 6.79878
863.324 5.99376
866.623 5.49242
869.922 5.13873
876.519 4.64232
883.116 4.25972
886.415 4.07162
889.713 3.86168
893.012 3.59626
894.661 3.42227
896.310 3.19937
897.135 3.06112
897.960 2.89923
898.784 2.71053
899.609 2.50222
900.021 2.40440
900.434 2.33647
900.846 2.35561
901.258 2.61989
901.465 2.97167
901.671 3.63824
901.774 4.17402
901.877 4.92520
901.980 5.99520
902.031 6.69789
902.083 7.55053
902.135 8.59509
902.186 9.88072
902.238 11.4848
902.289 13.5011
902.341 16.0785
902.392 19.4104
902.444 23.8014
902.495 29.7094
902.547 37.8758
902.598 49.4588
902.650 66.5605
902.701 92.8548
902.753 135.738
902.805 210.225
902.830 268.720
902.856 349.819
902.882 464.435
902.908 624.274
902.954 1037.72
903.000 1346.62
903.046 1118.61
903.093 726.572
903.140 459.636
903.187 308.301
903.235 219.903
903.282 165.118
903.329 129.105
903.377 104.351
903.471 73.4039
903.566 55.4628
903.660 44.1092
903.850 30.9563
904.039 23.8143
904.228 19.4483
904.418 16.5520
904.607 14.5140
904.985 11.8668
905.364 10.2462
905.742 9.16263
906.121 8.39213
906.878 7.37476
907.635 6.73634
908.392 6.29921
909.149 5.98101
910.664 5.54744
912.178 5.26378
913.692 5.06175
915.206 4.90907
918.234 4.68996
921.263 4.53648
927.319 4.32654
933.376 4.18147
939.433 4.06960
951.546 3.89763
975.773 3.64363
1000.00 3.42838
1024.45 3.20182
1036.68 3.06863
1048.90 2.90583
1061.13 2.68514
1067.24 2.53396
1073.35 2.33287
1076.41 2.20282
1079.47 2.04318
1082.52 1.84150
1085.58 1.57947
1087.11 1.41859
1088.64 1.23568
1090.17 1.03657
1091.69 0.855389
1092.46 0.808170
1093.22 0.847057
1093.60 0.930341
1093.99 1.08842
1094.37 1.36512
1094.56 1.56953
1094.75 1.83537
1094.94 2.18145
1095.13 2.63368
1095.32 3.22830
1095.51 4.01707
1095.70 5.07561
1095.90 6.51744
1096.09 8.51835
1096.28 11.3608
1096.47 15.5190
1096.66 21.8335
1096.85 31.8974
1097.04 48.9983
1097.23 80.7180
1097.33 107.534
1097.42 147.337
1097.52 210.622
1097.61 314.701
1097.71 499.906
1097.81 832.069
1097.90 1383.68
1098.00 1788.80
1098.10 1479.92
1098.20 959.766
1098.27 685.054
1098.34 502.227
1098.41 380.644
1098.48 297.674
1098.63 196.770
1098.77 141.077
1098.91 106.861
1099.06 84.4871
1099.35 57.9447
1099.63 43.1837
1099.92 34.1082
1100.21 28.0460
1100.50 23.7933
1101.07 18.2788
1101.65 14.9265
1102.22 12.7049
1102.79 11.1411
1103.94 9.09838
1105.09 7.83762
1106.24 6.98721
1107.39 6.37688
1109.69 5.55829
1111.99 5.03301
1114.29 4.66392
1116.59 4.38707
1121.19 3.98913
1125.79 3.70251
1134.99 3.26325
1144.18 2.84802
1148.78 2.60351
1153.38 2.29937
1155.68 2.11092
1157.98 1.88722
1160.28 1.61725
1162.58 1.29351
1163.73 1.11607
1164.88 0.944696
1166.03 0.823606
1166.60 0.816531
1167.18 0.887018
1167.47 0.970649
1167.75 1.10257
1168.04 1.30293
1168.33 1.59830
1168.62 2.03283
1168.90 2.66789
1169.19 3.60673
1169.48 5.01756
1169.76 7.20050
1170.05 10.6749
1170.34 16.5245
1170.63 26.9977
1170.77 35.5105
1170.91 47.8496
1171.06 66.4598
1171.20 95.7049
1171.35 145.356
1171.49 235.372
1171.56 309.690
1171.63 417.567
1171.70 577.098
1171.78 808.652
1171.89 1350.13
1172.00 1753.11
1172.11 1456.56
1172.23 947.986
1172.30 697.533
1172.38 524.384
1172.45 405.283
1172.53 321.770
1172.68 217.256
1172.83 157.600
1172.99 120.566
1173.14 96.0145
1173.44 66.4910
1173.74 49.8630
1174.05 39.5503
1174.35 32.6213
1174.65 27.7373
1175.26 21.3669
1175.87 17.4833
1176.48 14.9008
1177.08 13.0758
1178.30 10.6893
1179.51 9.21494
1180.73 8.21903
1181.94 7.50472
1184.37 6.54963
1186.80 5.94077
1189.23 5.51781
1191.66 5.20580
1196.51 4.77227
1201.37 4.48085
1206.23 4.26714
1211.09 4.10011
1220.80 3.84476
1230.52 3.64041
1235.38 3.54294
1240.23 3.43864
1242.66 3.37871
1245.09 3.30607
1246.31 3.26000
1246.91 3.23267
1247.52 3.20138
1248.13 3.16637
1248.43 3.14953
1248.73 3.13903
1249.04 3.15438
1249.19 3.19243
1249.34 3.28644
1249.49 3.53088
1249.57 3.79318
1249.65 4.27756
1249.72 5.26868
1249.76 6.17629
1249.80 7.64977
1249.84 10.2184
1249.87 15.1360
1249.89 19.3569
1249.91 25.7347
1249.93 35.6282
1249.94 42.0943
1249.95 50.0088
1249.96 64.1952
1249.97 80.7634
1250.00 103.673
1250.01 98.9676
1250.03 85.8732
1250.05 56.9276
1250.08 35.0036
1250.12 23.5502
1250.15 17.2608
1250.18 13.5216
1250.21 11.1365
1250.24 9.52534
1250.30 7.54856
1250.36 6.42207
1250.43 5.71466
1250.55 4.89977
1250.67 4.45787
1250.80 4.18654
1251.05 3.87621
1251.29 3.70570
1251.54 3.59789
1252.04 3.46711
1253.03 3.33039
1254.02 3.24651
1256.00 3.11462
1257.99 2.97727
1258.98 2.89533
1259.97 2.79801
1260.96 2.67836
1261.95 2.52746
1262.45 2.43758
1262.95 2.33901
1263.44 2.23937
1263.94 2.16889
1264.19 2.17332
1264.43 2.24683
1264.68 2.47281
1264.93 3.06189
1265.05 3.65198
1265.12 4.08019
1265.18 4.63887
1265.24 5.37678
1265.30 6.36617
1265.36 7.71735
1265.43 9.60454
1265.49 12.3145
1265.52 14.1203
1265.55 16.3428
1265.58 19.1096
1265.61 22.5991
1265.64 27.0658
1265.67 32.8815
1265.70 40.6036
1265.74 51.0924
1265.77 65.7194
1265.80 86.7467
1265.83 118.034
1265.86 166.330
1265.89 243.347
1265.92 362.077
1265.96 602.634
1266.00 784.141
1266.04 653.363
1266.08 425.493
1266.12 281.699
1266.15 195.284
1266.19 142.550
1266.23 109.564
1266.30 71.0490
1266.37 50.7650
1266.45 38.6550
1266.52 31.0080
1266.67 22.0381
1266.81 17.0899
1266.96 14.0699
1267.11 12.0573
1267.25 10.6363
1267.54 8.78192
1267.84 7.64900
1268.13 6.88892
1268.42 6.35036
1269.01 5.63880
1269.59 5.19329
1270.18 4.88907
1270.76 4.66827
1271.93 4.36878
1273.10 4.17410
1274.27 4.03634
1275.44 3.93284
1277.78 3.78538
1280.12 3.68294
1284.80 3.54341
1289.48 3.44646
1294.16 3.37050
1303.52 3.24957
1322.25 3.05608
1340.97 2.87654
1359.69 2.68051
1369.05 2.56533
1378.41 2.42749
1387.77 2.24743
1392.45 2.12834
1397.13 1.97416
1399.47 1.87640
1401.81 1.75796
1404.15 1.61012
1406.49 1.41976
1407.66 1.30339
1408.83 1.17089
1410.00 1.02553
1411.17 0.888914
1411.76 0.847725
1412.34 0.862277
1412.64 0.911483
1412.93 1.00976
1413.22 1.18708
1413.29 1.24873
1413.37 1.31927
1413.51 1.49221
1413.81 2.01758
1413.95 2.40989
1414.10 2.93177
1414.25 3.63942
1414.39 4.59981
1414.54 5.93519
1414.68 7.83550
1414.83 10.6431
1414.98 14.8906
1415.12 21.6725
1415.27 33.2193
1415.34 42.3184
1415.42 54.8924
1415.49 73.0622
1415.56 100.387
1415.63 143.499
1415.71 215.456
1415.78 342.800
1415.85 575.124
1415.93 955.106
1416.00 1232.33
1416.07 1020.53
1416.15 659.601
1416.20 480.918
1416.25 358.784
1416.30 275.587
1416.35 218.659
1416.45 146.913
1416.55 106.161
1416.65 80.9536
1416.76 64.2917
1416.96 44.2742
1417.16 33.0902
1417.36 26.1563
1417.56 21.5277
1417.77 18.2632
1418.17 14.0250
1418.57 11.4540
1418.98 9.74976
1419.38 8.54849
1420.19 6.98162
1421.00 6.01660
1421.81 5.36530
1422.62 4.89831
1424.23 4.27222
1425.85 3.87014
1427.47 3.58738
1429.08 3.37511
1432.32 3.07000
1435.55 2.85114
1442.02 2.52400
1448.49 2.23905
1451.72 2.08670
1454.96 1.91137
1458.19 1.69104
1459.81 1.55205
1461.42 1.38406
1462.23 1.28708
1463.04 1.18280
1463.85 1.07850
1464.66 1.00320
1465.06 1.00376
1465.47 1.07005
1465.87 1.28076
1466.07 1.49331
1466.27 1.83563
1466.48 2.39418
1466.58 2.80068
1466.68 3.33231
1466.78 4.03655
1466.88 4.98420
1466.98 6.28418
1467.08 8.11031
1467.18 10.7522
1467.28 14.7183
1467.39 20.9623
1467.49 31.4249
1467.59 50.4994
1467.64 66.4656
1467.69 89.6181
1467.74 126.132
1467.79 184.257
1467.84 285.511
1467.89 458.609
1467.95 758.863
1468.00 980.919
1468.06 811.399
1468.11 524.287
1468.16 336.116
1468.22 227.057
1468.27 162.403
1468.33 121.932
1468.38 95.1994
1468.43 76.6993
1468.54 53.4899
1468.65 40.0160
1468.76 31.4754
1468.97 21.6249
1469.19 16.2618
1469.41 12.9939
1469.62 10.8326
1469.84 9.32075
1470.27 7.35244
1470.70 6.15068
1471.13 5.34493
1471.56 4.76815
1472.42 3.99345
1473.29 3.48890
1474.15 3.12261
1475.01 2.83288
1476.74 2.35909
1477.60 2.14006
1478.46 1.92081
1478.90 1.81325
1479.33 1.71640
1479.76 1.65291
1480.19 1.69016
1480.40 1.80320
1480.62 2.05591
1480.84 2.58981
1480.94 3.05358
1481.05 3.73763
1481.16 4.79210
1481.21 5.52797
1481.27 6.46398
1481.32 7.67018
1481.38 9.24855
1481.43 11.3517
1481.48 14.1536
1481.54 18.1298
1481.59 23.8617
1481.64 32.4521
1481.70 45.9680
1481.75 68.5809
1481.81 109.450
1481.83 142.638
1481.86 190.299
1481.89 259.846
1481.91 356.456
1481.96 593.125
1482.00 764.529
1482.04 634.265
1482.09 410.691
1482.14 245.255
1482.19 159.420
1482.24 110.844
1482.29 82.3708
1482.34 63.7615
1482.39 51.4080
1482.49 36.0378
1482.59 27.2668
1482.69 21.7573
1482.90 15.4157
1483.10 11.9854
1483.30 9.88724
1483.50 8.49180
1483.70 7.50982
1484.11 6.21882
1484.51 5.42056
1484.91 4.87807
1485.32 4.48716
1486.12 3.95752
1486.93 3.61236
1488.55 3.17885
1490.16 2.90607
1491.77 2.70936
1495.00 2.42476
1498.23 2.20812
1501.46 2.02061
1507.91 1.66803
1514.37 1.28338
1517.60 1.05929
1520.83 0.805999
1522.44 0.670971
1524.05 0.539753
1525.67 0.437695
1526.48 0.417466
1527.28 0.441991
1528.09 0.550116
1528.49 0.657555
1528.90 0.820137
1529.30 1.06319
1529.70 1.42323
1530.11 1.96249
1530.51 2.77839
1530.91 4.05015
1531.32 6.09507
1531.72 9.57342
1532.12 15.9044
1532.33 21.1233
1532.53 28.7954
1532.73 40.5840
1532.93 59.6349
1533.13 93.1342
1533.34 157.957
1533.44 214.329
1533.54 300.733
1533.64 437.456
1533.74 652.563
1533.87 1078.35
1534.00 1391.96
1534.13 1147.92
1534.26 741.065
1534.34 557.270
1534.43 426.351
1534.59 267.340
1534.75 182.207
1534.91 132.497
1535.07 101.204
1535.24 80.2791
1535.56 54.9430
1535.88 40.6204
1536.21 31.7106
1536.85 21.5657
1537.50 16.1216
1538.15 12.8190
1538.80 10.6292
1539.44 9.08896
1540.74 7.07768
1542.03 5.82993
1543.33 4.97917
1544.62 4.35773
1547.21 3.49411
1549.80 2.89783
1554.98 2.04276
1560.16 1.34209
1562.75 1.00349
1565.34 0.680635
1566.64 0.545277
1567.93 0.462228
1568.58 0.460177
1569.23 0.504961
1569.87 0.624952
1570.20 0.727144
1570.52 0.868298
1570.85 1.06159
1571.17 1.32366
1571.49 1.67841
1571.82 2.15841
1572.14 2.81679
1572.46 3.72814
1572.79 5.01058
1573.11 6.84834
1573.44 9.57516
1573.76 13.7644
1574.08 20.5253
1574.41 32.1392
1574.73 54.1575
1574.89 73.0043
1575.05 101.567
1575.22 147.784
1575.38 227.121
1575.54 373.188
1575.70 651.400
1575.85 1078.88
1576.00 1395.03
1576.15 1153.70
1576.30 744.974
1576.48 441.005
1576.65 281.687
1576.83 194.140
1577.00 142.130
1577.18 109.000
1577.35 86.6603
1577.70 59.3821
1578.05 43.8424
1578.40 34.1219
1579.10 22.9884
1579.80 16.9711
1580.50 13.2919
1581.20 10.8326
1581.90 9.07915
1583.29 6.73683
1584.69 5.21745
1587.49 3.24415
1590.29 1.86387
1591.69 1.31252
1593.09 0.951132
1593.44 0.924051
1593.79 0.942245
1594.14 1.02376
1594.48 1.19456
1594.83 1.49567
1595.18 1.98867
1595.36 2.33589
1595.53 2.77219
1595.88 4.00475
1596.23 5.97375
1596.58 9.18859
1596.93 14.6506
1597.28 24.4621
1597.46 32.3983
1597.63 43.8136
1597.81 60.8158
1597.98 87.0653
1598.16 130.304
1598.33 205.963
1598.51 348.236
1598.59 464.101
1598.68 626.099
1598.84 1057.95
1599.00 1394.67
1599.16 1175.14
1599.32 772.631
1599.49 490.666
1599.65 330.523
1599.82 237.022
1599.99 179.006
1600.16 140.844
1600.32 114.463
1600.66 81.3820
1600.99 61.9901
1601.32 49.5997
1601.99 35.0898
1602.66 27.0669
1603.33 22.0887
1603.99 18.7330
1604.66 16.3341
1605.99 13.1521
1607.33 11.1483
1608.66 9.77229
1610.00 8.76825
1612.67 7.39184
1615.34 6.48353
1620.68 5.32876
1626.01 4.59308
1631.35 4.05539
1642.03 3.24781
1652.71 2.56184
1658.05 2.20993
1663.39 1.82274
1668.72 1.36891
1671.39 1.10529
1674.06 0.817354
1675.40 0.672135
1676.73 0.542847
1678.07 0.468558
1678.74 0.480860
1679.40 0.559911
1679.74 0.639590
1680.07 0.758915
1680.40 0.932699
1680.74 1.18156
1681.07 1.53888
1681.40 2.05102
1681.74 2.79794
1682.07 3.90076
1682.41 5.58308
1682.74 8.23878
1683.07 12.6471
1683.41 20.4621
1683.57 26.7677
1683.74 35.8649
1683.91 49.5233
1684.07 70.9199
1684.24 107.070
1684.41 172.981
1684.49 227.403
1684.57 305.356
1684.66 420.235
1684.74 589.217
1684.87 976.888
1685.00 1264.54
1685.13 1047.01
1685.26 676.900
1685.40 419.495
1685.54 277.344
1685.67 195.062
1685.81 145.046
1685.95 112.266
1686.09 89.9913
1686.36 62.2181
1686.64 46.2432
1686.91 36.1696
1687.46 24.5512
1688.01 18.2663
1688.56 14.4263
1689.11 11.8750
1689.66 10.0754
1690.76 7.71436
1691.86 6.24190
1694.06 4.48817
1696.26 3.43986
1698.46 2.70099
1702.86 1.61979
1705.06 1.17759
1707.25 0.790436
1709.45 0.502795
1710.55 0.437841
1711.10 0.440593
1711.65 0.477206
1712.20 0.559454
1712.75 0.703660
1713.30 0.933138
1713.85 1.28175
1714.40 1.79978
1714.95 2.56382
1715.50 3.69422
1716.05 5.38322
1716.60 7.96997
1717.15 12.0507
1717.70 18.7758
1718.25 30.5248
1718.53 39.8192
1718.80 52.9695
1719.08 72.1962
1719.35 101.450
1719.63 148.163
1719.90 227.125
1720.18 368.864
1720.45 630.515
1720.73 1061.66
1721.00 1394.61
1721.28 1170.98
1721.55 767.260
1721.79 519.165
1722.04 366.259
1722.28 270.589
1722.52 208.222
1723.00 135.614
1723.49 96.8208
1723.97 73.6632
1724.46 58.6741
1725.42 40.9348
1726.39 31.0918
1727.36 24.9734
1728.33 20.8580
1729.30 17.9248
1731.23 14.0517
1733.17 11.6259
1735.10 9.96381
1737.04 8.74878
1740.91 7.06806
1744.79 5.92496
1752.53 4.33360
1760.28 3.05786
1764.15 2.41417
1768.02 1.72115
1769.96 1.35350
1771.89 0.985672
1773.83 0.662640
1774.80 0.555169
1775.28 0.528786
1775.77 0.530046
1776.25 0.569620
1776.73 0.662245
1777.22 0.829286
1777.70 1.10188
1778.19 1.52650
1778.67 2.17426
1779.15 3.15735
1779.64 4.65926
1780.12 6.99334
1780.61 10.7242
1781.09 16.9390
1781.57 27.9176
1781.82 36.6353
1782.06 49.0055
1782.30 67.1335
1782.54 94.7602
1782.78 138.906
1783.03 213.493
1783.27 347.117
1783.51 594.258
1783.76 1006.47
1784.00 1329.60
1784.25 1122.49
1784.49 739.356
1784.64 559.985
1784.80 431.686
1785.11 275.622
1785.41 191.427
1785.72 141.854
1786.03 110.376
1786.33 89.1399
1786.95 63.0470
1787.56 48.0994
1788.18 38.6453
1789.40 27.6303
1790.63 21.5578
1791.86 17.7692
1793.09 15.1978
1794.32 13.3421
1796.77 10.8354
1799.23 9.20048
1801.68 8.01999
1804.14 7.09521
1809.05 5.60856
1811.51 4.91566
1813.97 4.17414
1816.42 3.30014
1817.65 2.78064
1818.88 2.19976
1819.49 1.90209
1820.11 1.63581
1820.72 1.48714
1821.03 1.52051
1821.33 1.69972
1821.64 2.13867
1821.80 2.51901
1821.95 3.05760
1822.10 3.82695
1822.26 4.91427
1822.41 6.48483
1822.56 8.75671
1822.72 12.1581
1822.87 17.3305
1823.02 25.6141
1823.18 39.3914
1823.33 64.2617
1823.41 84.3539
1823.48 112.816
1823.56 155.520
1823.64 221.031
1823.71 324.438
1823.79 485.927
1823.90 829.887
1824.00 1105.65
1824.11 941.399
1824.21 625.334
1824.32 405.310
1824.42 278.642
1824.53 203.158
1824.64 155.593
1824.74 123.683
1824.85 101.658
1825.06 73.6678
1825.27 57.0604
1825.49 46.4073
1825.91 33.7622
1826.34 26.7097
1826.76 22.2926
1827.19 19.2974
1827.61 17.1503
1828.46 14.2803
1829.31 12.4635
1830.16 11.2083
1831.01 10.2892
1832.71 9.02332
1834.41 8.18292
1837.80 7.10788
1841.20 6.42049
1844.60 5.92101
1851.40 5.19789
1858.19 4.65261
1864.99 4.18748
1878.58 3.32722
1892.17 2.38889
1898.97 1.83342
1905.77 1.19761
1909.16 0.857778
1912.56 0.532061
1914.26 0.394244
1915.96 0.295551
1916.81 0.270242
1917.66 0.268546
1918.51 0.298612
1919.36 0.371433
1920.21 0.502428
1921.06 0.712521
1921.91 1.03235
1922.76 1.50459
1923.61 2.19449
1924.46 3.19717
1925.31 4.66566
1926.15 6.83860
1927.00 10.1275
1927.85 15.2392
1928.70 23.5251
1929.55 37.6660
1930.40 63.7101
1930.83 85.2172
1931.25 116.695
1931.68 164.697
1932.10 240.727
1932.53 365.706
1932.95 573.077
1933.48 977.862
1934.00 1300.79
1934.53 1105.36
1935.05 732.642
1935.56 483.684
1936.07 335.694
1936.57 245.834
1937.08 188.669
1937.59 150.239
1938.10 123.327
1939.11 88.9308
1940.13 68.5245
1941.14 55.3392
1943.17 39.7183
1945.20 31.0027
1947.23 25.5525
1949.26 21.8653
1951.29 19.2248
1955.35 15.7182
1959.41 13.5113
1963.47 11.9992
1967.53 10.8990
1975.64 9.40102
1983.76 8.42089
1991.88 7.72055
2000.00 7.18687
2011.86 6.58668
2023.72 6.11138
2035.57 5.70208
2047.43 5.31674
2059.29 4.91117
2065.22 4.67991
2071.15 4.40845
2077.07 4.06172
2080.04 3.83744
2083.00 3.55322
2085.97 3.16511
2087.45 2.90540
2088.93 2.57541
2089.67 2.37482
2090.41 2.14584
2091.16 1.89034
2091.90 1.63298
2092.27 1.53290
2092.64 1.49964
2093.01 1.63088
2093.19 1.82496
2093.38 2.17891
2093.56 2.80724
2093.75 3.91127
2093.84 4.76472
2093.93 5.91249
2094.03 7.51380
2094.12 9.74154
2094.21 12.9864
2094.31 17.8162
2094.40 25.2907
2094.49 37.2835
2094.58 58.2584
2094.63 74.5060
2094.68 97.2270
2094.72 130.697
2094.77 179.181
2094.81 252.171
2094.86 362.085
2094.93 613.375
2095.00 811.213
2095.07 686.126
2095.14 453.028
2095.19 331.411
2095.24 248.443
2095.29 192.086
2095.34 152.944
2095.44 104.376
2095.54 76.8131
2095.64 59.7188
2095.74 48.3671
2095.94 34.6642
2096.14 26.8569
2096.34 21.9509
2096.54 18.6314
2096.74 16.2690
2097.14 13.1329
2097.54 11.1805
2097.94 9.85360
2098.34 8.89513
2099.13 7.59970
2099.93 6.75832
2101.53 5.69972
2103.13 5.01634
2104.73 4.49455
2107.92 3.61686
2109.52 3.18206
2111.12 2.71535
2112.71 2.19680
2114.31 1.62593
2115.11 1.34015
2115.91 1.09696
2116.71 0.995507
2117.11 1.06983
2117.51 1.31006
2117.71 1.52891
2117.91 1.84386
2118.11 2.28920
2118.30 2.91010
2118.50 3.78353
2118.70 5.01253
2118.90 6.75883
2119.10 9.26292
2119.30 12.9671
2119.50 18.5794
2119.70 27.4018
2119.90 41.8623
2120.10 67.3689
2120.20 87.5535
2120.30 115.721
2120.40 156.914
2120.50 218.292
2120.60 311.758
2120.70 452.508
2120.85 776.489
2121.00 1038.92
2121.15 887.977
2121.30 591.896
2121.43 407.023
2121.56 291.878
2121.69 218.958
2121.83 170.938
2122.09 114.204
2122.35 83.6025
2122.61 65.0518
2122.88 52.9703
2123.40 38.4817
2123.92 30.3034
2124.45 25.1587
2124.97 21.6641
2125.50 19.1576
2126.55 15.8141
2127.60 13.7052
2128.65 12.2568
2129.70 11.2004
2131.79 9.75537
2133.89 8.80087
2135.99 8.10712
2138.09 7.56289
2142.29 6.68975
2144.39 6.28223
2146.49 5.83949
2148.58 5.29144
2149.63 4.93712
2150.68 4.48868
2151.21 4.21326
2151.73 3.89393
2152.26 3.52710
2152.78 3.13266
2153.05 2.95346
2153.31 2.83841
2153.57 2.89466
2153.83 3.40526
2153.96 4.05461
2154.09 5.23256
2154.16 6.15844
2154.23 7.40494
2154.29 9.15613
2154.36 11.5796
2154.42 15.1102
2154.49 20.2282
2154.55 28.1360
2154.62 40.4800
2154.68 61.4205
2154.75 98.1143
2154.78 127.710
2154.82 169.398
2154.85 228.779
2154.88 309.953
2154.94 534.053
2155.00 718.529
2155.06 618.237
2155.12 415.186
2155.18 279.670
2155.23 197.575
2155.29 147.159
2155.35 115.150
2155.46 77.6578
2155.57 57.6114
2155.69 45.5802
2155.80 37.7351
2156.03 28.3424
2156.25 23.0450
2156.48 19.7029
2156.70 17.4256
2156.93 15.7846
2157.38 13.5881
2157.83 12.1994
2158.29 11.2433
2158.74 10.5454
2159.64 9.59285
2160.55 8.97171
2161.45 8.53089
2162.36 8.20011
2164.17 7.73031
2165.97 7.40689
2169.59 6.97673
2173.21 6.69176
2176.83 6.48138
2184.06 6.17853
2191.30 5.96064
2198.54 5.78981
2213.01 5.52723
2241.95 5.15218
2270.89 4.85319
2299.84 4.55591
2314.31 4.38411
2328.78 4.17376
2343.25 3.88467
2350.49 3.68311
2357.72 3.41021
2361.34 3.23075
2364.96 3.00702
2368.58 2.71858
2372.19 2.33153
2374.00 2.08473
2375.81 1.79086
2377.62 1.44266
2379.43 1.04941
2380.34 0.857600
2381.24 0.711058
2381.69 0.679605
2382.14 0.702666
2382.60 0.816900
2383.05 1.08591
2383.28 1.31239
2383.50 1.62616
2383.73 2.05900
2383.95 2.65492
2384.18 3.47781
2384.41 4.62266
2384.63 6.23459
2384.86 8.54264
2385.08 11.9222
2385.31 17.0171
2385.54 24.9936
2385.76 38.1107
2385.99 61.1152
2386.10 79.3084
2386.21 105.006
2386.33 142.306
2386.44 197.977
2386.55 282.966
2386.67 412.942
2386.83 706.874
2387.00 941.038
2387.17 800.729
2387.34 532.529
2387.47 377.424
2387.60 276.111
2387.74 209.874
2387.87 165.486
2388.14 111.530
2388.41 81.8015
2388.67 63.5646
2388.94 51.6040
2389.48 37.1712
2390.01 29.0255
2390.55 23.9043
2391.08 20.4330
2391.61 17.9506
2392.68 14.6568
2393.75 12.5954
2394.82 11.1935
2395.89 10.1830
2398.03 8.82444
2400.17 7.95466
2402.31 7.34757
2404.45 6.89747
2408.73 6.26508
2413.01 5.82854
2417.29 5.49358
2421.57 5.21263
2430.13 4.70316
2434.40 4.42898
2438.68 4.10136
2440.82 3.90067
2442.96 3.66005
2445.10 3.35922
2447.24 2.96519
2448.31 2.71680
2449.38 2.42219
2450.45 2.07247
2451.52 1.67179
2452.06 1.46878
2452.59 1.29871
2453.13 1.24083
2453.39 1.31116
2453.66 1.51314
2453.93 1.94867
2454.19 2.80583
2454.33 3.50491
2454.46 4.48612
2454.60 5.87767
2454.73 7.86418
2454.86 10.8051
2455.00 15.2560
2455.13 22.2458
2455.26 33.6546
2455.40 53.7893
2455.47 69.7034
2455.53 91.7563
2455.60 124.092
2455.67 172.176
2455.73 245.208
2455.80 354.167
2455.90 606.494
2456.00 810.545
2456.10 691.290
2456.20 461.207
2456.32 285.583
2456.44 190.048
2456.55 136.001
2456.67 103.124
2456.78 81.7568
2456.90 67.0908
2457.13 48.8040
2457.36 38.0814
2457.59 31.2407
2458.06 23.1505
2458.52 18.6340
2458.98 15.8084
2459.45 13.8878
2459.91 12.5046
2460.84 10.6521
2461.76 9.47335
2462.69 8.65441
2463.62 8.05049
2465.47 7.20668
2467.32 6.62801
2469.17 6.18602
2471.03 5.81634
2474.73 5.14460
2476.59 4.78139
2478.44 4.34765
2479.36 4.08370
2480.29 3.77197
2481.22 3.39341
2482.14 2.92779
2482.61 2.65884
2483.07 2.37593
2483.53 2.11233
2484.00 1.98089
2484.23 2.06443
2484.46 2.38348
2484.69 3.19375
2484.81 3.94437
2484.92 5.08090
2485.04 6.85464
2485.15 9.66796
2485.21 11.6816
2485.27 14.2879
2485.33 17.7058
2485.39 22.1668
2485.44 28.3054
2485.50 36.8047
2485.56 48.8691
2485.62 66.4964
2485.68 93.1144
2485.73 134.755
2485.79 201.979
2485.85 308.984
2485.92 532.408
2486.00 716.247
2486.08 614.778
2486.15 413.143
2486.22 280.391
2486.29 200.009
2486.37 149.328
2486.44 116.868
2486.58 78.7447
2486.72 58.2739
2486.86 45.9568
2487.00 37.9124
2487.28 28.2677
2487.56 22.8224
2487.85 19.3853
2488.13 17.0431
2488.41 15.3555
2488.97 13.1017
2489.54 11.6746
2490.10 10.6937
2490.67 9.97926
2491.79 9.00840
2492.92 8.37822
2494.05 7.93448
2495.18 7.60394
2497.43 7.14002
2499.69 6.82664
2501.94 6.59769
2504.20 6.42136
2508.71 6.16333
2513.22 5.97999
2522.24 5.72887
2531.27 5.55874
2540.29 5.43202
2558.33 5.24932
2576.38 5.11842
2594.42 5.01616
2630.51 4.85795
2666.60 4.72865
2684.65 4.66589
2702.69 4.59812
2720.74 4.51528
2729.76 4.46118
2738.78 4.38960
2743.29 4.34253
2747.80 4.28304
2752.32 4.20395
2756.83 4.09139
2759.08 4.01421
2761.34 3.91466
2763.59 3.78068
2765.85 3.59021
2766.98 3.46112
2768.10 3.29759
2769.23 3.08444
2770.36 2.79823
2770.92 2.61718
2771.49 2.40527
2772.05 2.16324
2772.62 1.91404
2772.90 1.81534
2773.18 1.78051
2773.46 1.90534
2773.60 2.09313
2773.74 2.43662
2773.88 3.04186
2774.03 4.10578
2774.17 6.01964
2774.24 7.54093
2774.31 9.63238
2774.38 12.6554
2774.45 17.0161
2774.52 23.7099
2774.59 34.1178
2774.66 51.6687
2774.73 82.3034
2774.77 106.485
2774.80 140.261
2774.84 187.940
2774.87 254.915
2774.94 437.703
2775.00 586.732
2775.07 502.914
2775.13 336.433
2775.18 244.389
2775.23 182.511
2775.28 141.042
2775.33 113.020
2775.42 78.0078
2775.52 58.1974
2775.62 45.8065
2775.71 37.6613
2775.91 27.7459
2776.10 22.0677
2776.30 18.4951
2776.49 16.0611
2776.69 14.3114
2777.07 11.9820
2777.46 10.5245
2777.85 9.53014
2778.24 8.81511
2779.02 7.85555
2779.79 7.24664
2780.57 6.82682
2781.35 6.52039
2782.90 6.10342
2784.46 5.83348
2786.01 5.64433
2787.57 5.50430
2790.67 5.31041
2793.78 5.18206
2796.89 5.09030
2800.00 5.02111
2800.00 12.8587
3000.00 12.5556
3500.00 11.8305
4000.00 11.2466
5000.00 10.3553
6000.00 9.69891
7000.00 9.18969
8000.00 8.78041
10000.0 8.15622
12500.0 7.60019
15000.0 7.19152
17000.0 6.93276
20000.0 6.62117
25000.0 6.23449
30000.0 5.95056
35000.0 5.73069
40000.0 5.55395
50000.0 5.28429
60000.0 5.08515
70000.0 4.92982
80000.0 4.80363
99999.9 4.60815
100000 4.59212
150000 4.68043
200000 4.82511
250000 4.99263
300000 5.16801
360074 5.37782
360074 5.37783
424308 5.60112
500000 5.83367
533634 5.93550
567267 6.03196
633634 6.21238
700000 6.37734
750000 6.49340
800000 6.60297
850000 6.70399
900000 6.79997
908701 6.81576
914949 6.82697
957475 6.89922
1.00000E+06 6.96837
1.06250E+06 7.04764
1.12500E+06 7.12260
1.18750E+06 7.19374
1.25000E+06 7.26142
1.31074E+06 7.30053
1.37147E+06 7.33836
1.43017E+06 7.35688
1.48887E+06 7.37524
1.48887E+06 7.37524
1.50000E+06 7.37696
1.56939E+06 7.38119
1.56939E+06 7.38119
1.60517E+06 7.37915
1.64138E+06 7.36936
1.67759E+06 7.36021
1.71379E+06 7.35167
1.75000E+06 7.34370
1.80441E+06 7.31624
1.85882E+06 7.29067
1.85882E+06 7.29067
1.92941E+06 7.23871
2.00000E+06 7.19078
2.06250E+06 7.08107
2.12500E+06 6.97805
2.18750E+06 6.88115
2.25000E+06 6.78986
2.31250E+06 6.70373
2.37500E+06 6.62236
2.43750E+06 6.54539
2.50000E+06 6.47248
2.56250E+06 6.40334
2.62500E+06 6.33770
2.68750E+06 6.27532
2.75000E+06 6.21598
2.81250E+06 6.15947
2.87500E+06 6.10561
2.93750E+06 6.05423
3.00000E+06 6.00517
3.06250E+06 5.92654
3.12500E+06 5.85151
3.18750E+06 5.77983
3.25000E+06 5.71131
3.31250E+06 5.64575
3.37500E+06 5.58298
3.43750E+06 5.52283
3.50000E+06 5.46516
3.56250E+06 5.40982
3.62500E+06 5.35668
3.68750E+06 5.30563
3.75000E+06 5.25654
3.81250E+06 5.20933
3.87500E+06 5.16389
3.93750E+06 5.12012
4.00000E+06 5.07796
4.04138E+06 5.05037
4.08275E+06 5.02330
4.12413E+06 4.99673
4.16551E+06 4.97066
4.20688E+06 4.94506
4.24826E+06 4.91993
4.28963E+06 4.89524
4.33101E+06 4.87100
4.38466E+06 4.83922
4.43831E+06 4.80816
4.49196E+06 4.77781
4.54561E+06 4.74815
4.59925E+06 4.71914
4.65290E+06 4.69079
4.70655E+06 4.66307
4.76020E+06 4.63598
4.88010E+06 4.57568
5.00000E+06 4.51826
5.15641E+06 4.48372
5.26186E+06 4.46081
5.36731E+06 4.43856
5.47276E+06 4.41695
5.57821E+06 4.39595
5.68365E+06 4.37553
5.78910E+06 4.35568
5.89455E+06 4.33638
6.00000E+06 4.31762
6.12500E+06 4.32367
6.25000E+06 4.32987
6.37500E+06 4.33622
6.50000E+06 4.34269
6.62500E+06 4.34929
6.75000E+06 4.35599
6.87500E+06 4.36280
7.00000E+06 4.36970
7.04413E+06 4.37405
7.08826E+06 4.37847
7.14524E+06 4.38311
7.20223E+06 4.38787
7.25921E+06 4.39273
7.31620E+06 4.39770
7.37318E+06 4.40278
7.43016E+06 4.40795
7.48715E+06 4.41321
7.54413E+06 4.41856
7.60111E+06 4.42400
7.65810E+06 4.42952
7.71508E+06 4.43512
7.77207E+06 4.44079
7.82905E+06 4.44654
7.88603E+06 4.45235
7.94302E+06 4.45822
8.00000E+06 4.46417
8.03831E+06 4.46752
8.07662E+06 4.47094
8.11492E+06 4.47444
8.15323E+06 4.47801
8.19154E+06 4.48165
8.22985E+06 4.48536
8.26815E+06 4.48913
8.30646E+06 4.49297
8.34981E+06 4.49636
8.39315E+06 4.49982
8.43650E+06 4.50336
8.47985E+06 4.50697
8.52319E+06 4.51065
8.56654E+06 4.51440
8.60988E+06 4.51821
8.65323E+06 4.52208
8.69658E+06 4.52601
8.73992E+06 4.53000
8.78327E+06 4.53404
8.82662E+06 4.53814
8.86996E+06 4.54229
8.91331E+06 4.54650
8.95665E+06 4.55075
9.00000E+06 4.55505
9.06250E+06 4.56098
9.12500E+06 4.56705
9.18750E+06 4.57325
9.25000E+06 4.57957
9.31250E+06 4.58601
9.37500E+06 4.59256
9.43750E+06 4.59922
9.50000E+06 4.60597
9.56250E+06 4.61283
9.62500E+06 4.61977
9.68750E+06 4.62680
9.75000E+06 4.63392
9.81250E+06 4.64112
9.87500E+06 4.64839
9.93750E+06 4.65574
1.00000E+07 4.66315
1.00429E+07 4.66827
1.00857E+07 4.67358
1.01286E+07 4.67906
1.01714E+07 4.68472
1.02143E+07 4.69056
1.02571E+07 4.69656
1.03000E+07 4.70274
1.03428E+07 4.70909
1.03839E+07 4.71368
1.04250E+07 4.71838
1.04660E+07 4.72317
1.05071E+07 4.72808
1.05482E+07 4.73308
1.05893E+07 4.73818
1.06303E+07 4.74337
1.06714E+07 4.74866
1.07125E+07 4.75405
1.07536E+07 4.75952
1.07946E+07 4.76509
1.08357E+07 4.77074
1.08768E+07 4.77648
1.09179E+07 4.78231
1.09589E+07 4.78822
1.10000E+07 4.79422
1.10611E+07 4.80049
1.11223E+07 4.80698
1.11834E+07 4.81369
1.12446E+07 4.82059
1.13057E+07 4.82770
1.13668E+07 4.83502
1.14280E+07 4.84252
1.14891E+07 4.85022
1.15530E+07 4.85787
1.16168E+07 4.86574
1.16807E+07 4.87381
1.17446E+07 4.88207
1.18084E+07 4.89054
1.18723E+07 4.89920
1.19361E+07 4.90805
1.20000E+07 4.91709
1.20613E+07 4.92080
1.21225E+07 4.92473
1.21838E+07 4.92888
1.22450E+07 4.93325
1.23063E+07 4.93783
1.23675E+07 4.94261
1.24288E+07 4.94760
1.24900E+07 4.95279
1.25538E+07 4.95792
1.26175E+07 4.96328
1.26813E+07 4.96886
1.27450E+07 4.97466
1.28088E+07 4.98071
1.28725E+07 4.98699
1.29363E+07 4.99354
1.30000E+07 5.00038
1.30613E+07 5.00425
1.31227E+07 5.00827
1.31840E+07 5.01245
1.32454E+07 5.01679
1.33067E+07 5.02128
1.33680E+07 5.02592
1.34294E+07 5.03072
1.34907E+07 5.03567
1.35544E+07 5.04048
1.36180E+07 5.04544
1.36817E+07 5.05058
1.37454E+07 5.05587
1.38090E+07 5.06134
1.38727E+07 5.06697
1.39363E+07 5.07277
1.40000E+07 5.07875
1.40625E+07 5.08015
1.41250E+07 5.08163
1.41875E+07 5.08319
1.42500E+07 5.08483
1.43125E+07 5.08655
1.43750E+07 5.08836
1.44375E+07 5.09025
1.45000E+07 5.09223
1.45396E+07 5.09327
1.45972E+07 5.09457
1.46547E+07 5.09592
1.47123E+07 5.09733
1.47698E+07 5.09880
1.48274E+07 5.10033
1.48849E+07 5.10192
1.49425E+07 5.10357
1.50000E+07 5.10528
1.51250E+07 5.10479
1.52500E+07 5.10450
1.53750E+07 5.10441
1.55000E+07 5.10451
1.56250E+07 5.10481
1.57500E+07 5.10532
1.58750E+07 5.10605
1.60000E+07 5.10700
1.61722E+07 5.10356
1.62239E+07 5.10234
1.62757E+07 5.10115
1.63274E+07 5.09998
1.63792E+07 5.09884
1.64309E+07 5.09773
1.64826E+07 5.09665
1.65344E+07 5.09560
1.65861E+07 5.09458
1.66378E+07 5.09358
1.66896E+07 5.09262
1.67413E+07 5.09169
1.67931E+07 5.09079
1.68448E+07 5.08992
1.68965E+07 5.08908
1.69483E+07 5.08828
1.70000E+07 5.08750
1.70625E+07 5.08609
1.71250E+07 5.08471
1.71875E+07 5.08337
1.72500E+07 5.08206
1.73125E+07 5.08078
1.73750E+07 5.07954
1.74375E+07 5.07834
1.75000E+07 5.07717
1.75625E+07 5.07604
1.76250E+07 5.07495
1.76875E+07 5.07389
1.77500E+07 5.07288
1.78125E+07 5.07190
1.78750E+07 5.07095
1.79375E+07 5.07005
1.80000E+07 5.06919
1.80564E+07 5.06699
1.81128E+07 5.06483
1.81683E+07 5.06252
1.82237E+07 5.06024
1.82792E+07 5.05799
1.83346E+07 5.05577
1.83901E+07 5.05358
1.84455E+07 5.05142
1.85010E+07 5.04929
1.85564E+07 5.04719
1.86119E+07 5.04512
1.86673E+07 5.04308
1.87228E+07 5.04108
1.87782E+07 5.03911
1.88337E+07 5.03716
1.88891E+07 5.03525
1.89446E+07 5.03337
1.90000E+07 5.03153
1.90625E+07 5.02897
1.91250E+07 5.02646
1.91875E+07 5.02399
1.92500E+07 5.02157
1.93125E+07 5.01919
1.93750E+07 5.01686
1.94375E+07 5.01457
1.95000E+07 5.01233
1.95625E+07 5.01013
1.96250E+07 5.00798
1.96875E+07 5.00587
1.97500E+07 5.00381
1.98125E+07 5.00180
1.98750E+07 4.99983
1.99375E+07 4.99792
2.00000E+07 4.99605