Ba-135(n,tot) ENDF/B-VII.1
Energy(eV) XS(b)
1.00000E-05 298.064
1.25000E-05 266.886
1.50000E-05 243.871
2.00000E-05 211.566
2.75000E-05 180.827
3.50000E-05 160.598
4.25000E-05 145.994
5.00000E-05 134.813
6.25000E-05 120.870
7.50000E-05 110.578
0.000100000 96.1300
0.000125000 86.2706
0.000150000 78.9927
0.000200000 68.7768
0.000275000 59.0565
0.000350000 52.6593
0.000425000 48.0410
0.000500000 44.5055
0.000625000 40.0962
0.000750000 36.8414
0.00100000 32.2727
0.00125000 29.1549
0.00150000 26.8534
0.00200000 23.6227
0.00275000 20.5488
0.00350000 18.5258
0.00425000 17.0653
0.00500000 15.9472
0.00625000 14.5527
0.00750000 13.5234
0.0100000 12.0785
0.0125000 11.0923
0.0150000 10.3644
0.0200000 9.34246
0.0253000 8.60985
0.0314750 8.00213
0.0376500 7.55079
0.0500000 6.91365
0.0625000 6.47209
0.0750000 6.14600
0.100000 5.68795
0.125000 5.37504
0.150000 5.14379
0.200000 4.81860
0.275000 4.50814
0.350000 4.30286
0.500000 4.03926
0.750000 3.78769
1.00000 3.63432
1.50000 3.44584
2.00000 3.32723
2.75000 3.20628
3.50000 3.11949
5.00000 2.99454
7.50000 2.85121
10.0000 2.74593
12.5000 2.66550
15.0000 2.61562
17.5000 2.63861
18.7500 2.72792
20.0000 2.97089
20.5386 3.18333
21.0773 3.53221
21.6159 4.14120
22.1546 5.30690
22.4239 6.31779
22.6932 7.88809
22.9625 10.4971
23.2318 15.2609
23.3665 19.2518
23.5012 25.2853
23.6358 34.9980
23.7705 52.0399
23.8378 65.8075
23.9051 85.9398
23.9725 116.976
24.0398 168.275
24.1071 261.582
24.1408 339.449
24.1745 456.366
24.2081 641.869
24.2418 956.043
24.2754 1528.18
24.3091 2616.28
24.3396 4201.59
24.3700 5271.93
24.4005 4233.92
24.4309 2657.20
24.4559 1784.95
24.4808 1241.48
24.5058 899.871
24.5308 677.168
24.5807 419.615
24.6307 284.323
24.6806 205.312
24.7305 155.398
24.8304 98.4173
24.9303 68.4022
25.0302 50.6763
25.1301 39.3343
25.2299 31.6341
25.4297 22.1318
25.6295 16.6971
25.8292 13.2891
26.0290 11.0054
26.4285 8.21695
26.8280 6.63233
27.2275 5.63854
27.6270 4.96974
28.4261 4.14387
29.2251 3.66382
30.0242 3.35388
30.8232 3.13797
32.4213 2.85545
34.0193 2.67487
37.2155 2.44353
43.6077 2.15663
50.0000 1.93048
57.9681 1.65806
61.9522 1.52779
65.9363 1.43263
69.9203 1.48777
71.9124 1.69681
73.9044 2.25475
74.9004 2.81951
75.8964 3.77444
76.8924 5.47783
77.3904 6.83956
77.8884 8.78523
78.3865 11.6693
78.8845 16.1548
79.3825 23.5979
79.8805 37.1324
80.1295 48.4148
80.3785 65.3842
80.6275 92.5157
80.8765 139.669
81.0010 177.420
81.1255 232.154
81.2500 315.608
81.3745 451.491
81.4990 693.290
81.5613 890.636
81.6235 1180.70
81.6858 1627.58
81.7480 2354.64
81.8103 3605.28
81.8725 5813.55
81.9363 9330.02
82.0000 11694.1
82.0638 9379.85
82.1275 5878.97
82.1991 3429.79
82.2708 2147.78
82.3424 1445.47
82.4140 1031.18
82.4856 769.735
82.5573 595.392
82.7005 385.725
82.8437 269.767
82.9870 199.151
83.2735 121.265
83.5600 81.5671
83.8465 58.6970
84.1330 44.4584
84.4195 35.2268
84.9924 26.0337
85.2789 25.5888
85.4222 26.8126
85.5654 29.4949
85.6371 31.5985
85.7087 34.3891
85.7803 38.0669
85.8161 40.3216
85.8519 42.9116
85.8878 45.8924
85.9236 49.3287
85.9952 57.9125
86.0668 69.5685
86.1384 85.7190
86.2101 108.698
86.2817 142.511
86.3533 194.503
86.4249 279.173
86.4965 428.069
86.5324 547.263
86.5682 718.516
86.6040 973.691
86.6398 1369.25
86.6756 2005.00
86.7114 3037.05
86.7557 4978.47
86.8000 6377.77
86.8443 5230.81
86.8886 3352.87
86.9398 1978.69
86.9910 1259.35
87.0423 864.638
87.0935 630.693
87.1447 482.030
87.1959 382.069
87.2983 260.282
87.4008 191.554
87.5032 148.807
87.7081 100.166
87.9129 74.2002
88.1178 58.4763
88.5275 40.8012
88.9373 31.3173
89.3470 25.4719
90.1665 18.6915
90.9859 14.8913
91.8054 12.4645
93.4443 9.56237
95.0832 7.94822
96.7222 7.07769
98.3611 6.96023
99.1805 7.38487
100.000 8.49146
100.483 9.75048
100.966 11.8615
101.449 15.5649
101.932 22.5899
102.174 28.5867
102.415 37.7311
102.657 52.5142
102.898 78.4094
103.019 99.2116
103.140 129.349
103.260 175.233
103.381 249.444
103.502 380.104
103.562 485.354
103.623 637.637
103.683 868.123
103.743 1233.23
103.804 1838.50
103.864 2857.46
103.932 4619.45
104.000 5840.38
104.068 4735.90
104.136 3030.88
104.186 2192.27
104.235 1683.82
104.285 1448.86
104.334 1537.64
104.400 2015.68
104.466 1202.87
104.489 958.596
104.513 786.868
104.559 573.415
104.606 449.362
104.653 368.719
104.746 268.853
104.839 208.894
105.026 140.297
105.212 102.749
105.399 79.5694
105.586 64.1262
105.959 45.3015
106.332 34.5859
106.705 27.8455
107.452 20.0610
108.198 15.8277
108.944 13.2251
110.437 10.2465
111.930 8.61217
113.422 7.58414
116.408 6.35743
119.393 5.64118
122.379 5.16404
128.350 4.55435
134.320 4.17014
140.291 3.89852
152.233 3.52562
164.175 3.26582
176.117 3.05825
188.058 2.87090
200.000 2.67490
204.734 2.58404
209.468 2.47516
211.835 2.40976
213.019 2.37376
214.202 2.33653
215.386 2.30268
215.978 2.29230
216.569 2.29602
217.161 2.34033
217.457 2.40313
217.753 2.53584
218.049 2.84681
218.197 3.16711
218.345 3.75127
218.493 4.95953
218.567 6.09656
218.641 8.01255
218.715 11.5840
218.752 14.6216
218.788 19.2419
218.825 26.7275
218.862 39.7185
218.881 49.9126
218.899 64.1456
218.918 84.2717
218.936 112.387
218.952 144.506
218.968 181.381
219.000 229.550
219.016 217.744
219.032 186.838
219.064 119.497
219.094 77.2505
219.124 52.6102
219.154 37.9368
219.184 28.7640
219.245 18.5061
219.305 13.2786
219.365 10.2705
219.426 8.39033
219.546 6.25655
219.667 5.13776
219.788 4.48344
220.029 3.80485
220.270 3.51389
220.511 3.41857
220.994 3.64227
221.235 4.00253
221.477 4.64594
221.718 5.80119
221.959 8.01017
222.080 9.90125
222.200 12.7823
222.321 17.4325
222.442 25.5476
222.502 32.0457
222.562 41.4062
222.623 55.5377
222.683 78.1522
222.743 117.219
222.773 148.143
222.803 191.975
222.834 256.758
222.864 355.510
222.894 512.195
222.924 760.764
222.962 1227.76
223.000 1551.08
223.039 1255.18
223.077 793.046
223.116 492.642
223.155 324.112
223.193 226.690
223.232 166.907
223.271 128.058
223.310 101.546
223.387 68.8535
223.465 50.2714
223.543 38.7101
223.698 25.6479
223.853 18.7810
224.008 14.7092
224.163 12.0796
224.318 10.2762
224.629 8.00970
224.939 6.67851
225.249 5.82002
225.560 5.22819
226.180 4.47582
226.801 4.02381
227.422 3.72454
228.042 3.51222
229.283 3.23014
230.525 3.04897
233.007 2.82135
235.490 2.67326
237.972 2.55948
239.214 2.51131
239.834 2.49116
240.455 2.47787
241.076 2.48423
241.386 2.50762
241.696 2.56681
242.007 2.71926
242.162 2.88311
242.317 3.18904
242.472 3.83495
242.550 4.45138
242.627 5.50178
242.705 7.48661
242.744 9.19585
242.782 11.8352
242.821 16.1695
242.860 23.8587
242.899 38.7878
242.918 51.4636
242.937 69.6042
242.953 89.1976
242.969 111.696
243.000 141.257
243.031 115.333
243.063 74.1513
243.082 55.6918
243.102 42.7418
243.140 27.1852
243.179 18.9661
243.218 14.2216
243.257 11.2656
243.296 9.30780
243.373 6.96157
243.451 5.66048
243.528 4.86413
243.684 3.97310
243.839 3.50665
243.994 3.22901
244.305 2.92241
244.615 2.76060
244.926 2.66129
245.547 2.54417
246.168 2.47436
246.789 2.42515
248.030 2.35398
250.514 2.25055
252.998 2.16228
257.966 1.99003
262.934 1.80525
265.418 1.70798
267.902 1.61393
270.386 1.54206
272.869 1.55168
274.111 1.63885
275.353 1.85388
276.595 2.33682
277.837 3.44034
278.458 4.49449
279.079 6.22834
279.700 9.25373
280.321 15.0047
280.632 19.9333
280.942 27.4711
281.253 39.6871
281.563 61.1056
281.718 78.2910
281.874 103.132
282.029 140.765
282.184 201.139
282.339 305.880
282.495 507.077
282.572 681.758
282.650 949.896
282.727 1375.93
282.805 2058.45
282.903 3346.49
283.000 4249.93
283.098 3454.35
283.195 2193.91
283.257 1619.69
283.319 1218.89
283.443 742.607
283.567 494.056
283.691 351.752
283.815 263.593
283.938 205.444
284.186 136.052
284.434 97.7788
284.682 74.3971
285.177 48.3510
285.673 34.8110
286.169 26.8068
286.664 21.6424
287.160 18.0924
288.151 13.6147
289.142 10.9630
290.133 9.23747
291.125 8.03628
293.107 6.48518
295.089 5.52852
297.072 4.87327
299.054 4.38654
303.019 3.66849
305.001 3.36780
306.983 3.07499
308.966 2.77694
309.957 2.63345
310.948 2.52613
311.444 2.51514
311.939 2.57589
312.435 2.79436
312.931 3.39207
313.178 4.00487
313.426 5.04855
313.674 6.91833
313.798 8.41322
313.922 10.5432
314.046 13.6800
314.170 18.4996
314.293 26.3274
314.417 40.0360
314.479 51.0010
314.541 66.7553
314.603 90.4592
314.665 127.988
314.727 191.926
314.789 310.864
314.820 410.948
314.851 559.119
314.882 785.569
314.913 1130.02
314.956 1847.00
315.000 2359.10
315.044 1928.93
315.087 1232.51
315.118 885.405
315.149 652.204
315.179 494.785
315.210 386.785
315.271 254.199
315.332 180.283
315.394 135.241
315.455 105.841
315.578 71.0502
315.700 51.9651
315.823 40.3173
315.945 32.6499
316.068 27.3139
316.313 20.5040
316.558 16.4435
316.804 13.7993
317.049 11.9652
317.539 9.61975
318.029 8.20611
318.520 7.27079
319.010 6.60973
319.991 5.74021
320.971 5.19360
321.952 4.81621
322.933 4.53789
324.894 4.14885
326.855 3.88304
330.778 3.52546
334.701 3.27809
338.623 3.08238
346.469 2.75669
354.314 2.44802
358.237 2.28118
362.159 2.09545
366.082 1.88345
368.043 1.76983
370.005 1.66563
371.966 1.62931
372.947 1.70383
373.927 1.96753
374.418 2.25903
374.908 2.77242
375.398 3.71591
375.889 5.58411
376.134 7.22411
376.379 9.77066
376.624 13.9566
376.869 21.3928
376.992 27.4167
377.115 36.1909
377.237 49.5746
377.360 71.2153
377.482 109.123
377.544 139.412
377.605 182.900
377.666 247.700
377.728 348.236
377.789 510.106
377.850 772.935
377.925 1261.41
378.000 1608.56
378.075 1313.08
378.150 837.632
378.201 608.088
378.252 451.286
378.303 344.521
378.354 270.447
378.455 178.642
378.557 126.956
378.659 95.2413
378.760 74.4822
378.964 49.8329
379.167 36.2716
379.371 27.9914
379.778 18.7424
380.184 13.9027
380.591 11.0189
380.998 9.14161
381.405 7.83889
382.219 6.17043
383.033 5.15954
384.660 4.00268
386.288 3.35537
387.915 2.93764
391.170 2.45828
392.798 2.36769
394.425 2.42674
396.053 2.76976
397.680 3.75618
398.494 4.77045
399.308 6.49159
400.121 9.55823
400.935 15.4596
401.342 20.5353
401.749 28.2922
402.156 40.8079
402.563 62.5307
402.969 104.358
403.173 140.983
403.376 198.317
403.580 294.199
403.783 468.239
403.885 610.750
403.987 817.430
404.088 1123.13
404.190 1574.45
404.345 2573.97
404.500 3288.08
404.656 2688.45
404.811 1717.09
404.920 1236.18
405.028 911.365
405.137 692.405
405.246 541.552
405.463 356.167
405.680 252.642
405.898 189.425
406.115 148.127
406.550 99.1723
406.985 72.2727
407.419 55.8332
407.854 44.9984
408.289 37.4462
409.158 27.8006
410.027 22.0386
410.897 18.2798
411.766 15.6674
413.505 12.3198
415.244 10.2941
416.982 8.94747
418.721 7.98925
422.198 6.70660
425.676 5.85198
427.415 5.49641
428.284 5.32441
429.153 5.15277
430.023 4.98669
430.457 4.91795
430.892 4.88787
431.109 4.90973
431.327 4.98708
431.544 5.17794
431.761 5.62386
431.870 6.04766
431.979 6.73488
432.088 7.90571
432.196 10.0465
432.305 14.4104
432.359 18.4039
432.413 24.9075
432.468 36.3560
432.495 45.5090
432.522 58.5733
432.549 78.0266
432.576 107.875
432.604 155.592
432.631 231.937
432.648 300.688
432.665 380.552
432.700 489.504
432.717 468.055
432.735 404.742
432.769 262.731
432.801 174.988
432.832 122.094
432.864 89.7357
432.895 69.0182
432.958 45.3716
433.021 33.0267
433.084 25.7696
433.147 21.1463
433.273 15.7623
433.399 12.8344
433.525 11.0479
433.651 9.86455
433.777 9.03263
434.029 7.95317
434.280 7.29132
434.532 6.84644
434.784 6.52705
435.288 6.09691
435.791 5.81678
436.799 5.46162
437.806 5.23309
438.813 5.06431
440.828 4.81400
444.857 4.45940
448.886 4.17500
452.916 3.89822
454.930 3.74554
456.945 3.57021
457.952 3.46976
458.960 3.35871
459.967 3.23803
460.974 3.11947
461.478 3.07510
461.982 3.06380
462.485 3.13413
462.989 3.41575
463.241 3.73878
463.493 4.31777
463.744 5.39528
463.996 7.54441
464.122 9.43463
464.248 12.3608
464.374 17.1412
464.437 20.7131
464.500 25.5354
464.563 32.2454
464.626 41.8627
464.689 56.2631
464.752 78.8764
464.815 116.882
464.878 186.019
464.909 242.836
464.941 325.369
464.972 447.636
465.004 627.810
465.052 1032.90
465.100 1327.48
465.148 1092.74
465.197 703.743
465.231 508.213
465.265 376.047
465.299 286.923
465.333 225.448
465.401 149.904
465.469 107.618
465.537 81.7474
465.605 64.7954
465.740 44.6389
465.876 33.4916
466.012 26.6464
466.148 22.1078
466.284 18.9301
466.556 14.8438
466.828 12.3818
467.100 10.7636
467.372 9.63132
467.916 8.16878
468.459 7.27595
469.003 6.67911
469.547 6.25368
470.635 5.68878
471.722 5.33021
472.810 5.08112
473.897 4.89678
476.073 4.63886
478.248 4.46336
482.598 4.23103
486.949 4.07636
491.299 3.96085
500.000 3.79114
509.406 3.65661
518.811 3.54979
537.622 3.38148
556.433 3.24512
575.244 3.12234
594.055 2.99891
603.461 2.93093
612.866 2.85256
622.272 2.75304
626.974 2.68808
631.677 2.60431
634.028 2.55126
636.380 2.48694
638.731 2.40659
641.083 2.30301
642.258 2.23966
643.434 2.16754
644.610 2.08858
645.785 2.01512
646.373 1.99402
646.961 2.00484
647.549 2.09196
648.137 2.37242
648.431 2.67743
648.725 3.21223
649.018 4.19233
649.312 6.12553
649.459 7.81457
649.606 10.4198
649.753 14.6657
649.900 22.0967
649.974 28.0258
650.047 36.5308
650.121 49.2377
650.194 69.1831
650.268 102.685
650.341 163.760
650.378 214.000
650.415 286.822
650.451 394.739
650.488 554.444
650.544 911.157
650.600 1169.52
650.656 961.236
650.712 617.903
650.776 368.578
650.840 236.717
650.903 163.607
650.967 120.074
651.031 92.2531
651.095 73.5172
651.222 50.6112
651.350 37.6403
651.477 29.5635
651.732 20.3796
651.987 15.4895
652.242 12.5449
652.497 10.6145
652.752 9.26899
653.262 7.54267
653.771 6.50007
654.281 5.81048
654.791 5.32427
655.811 4.68800
656.830 4.29157
657.850 4.02027
658.870 3.82138
660.909 3.54239
661.929 3.43668
662.949 3.34446
663.968 3.26570
664.478 3.23662
664.988 3.22737
665.243 3.24006
665.498 3.27774
665.753 3.36548
666.008 3.56446
666.135 3.75103
666.263 4.05169
666.390 4.56218
666.518 5.49588
666.645 7.40977
666.709 9.17746
666.773 12.0896
666.836 17.3095
666.900 27.7565
666.932 37.2086
666.964 52.2198
666.996 77.3053
667.028 119.675
667.064 194.698
667.100 248.755
667.136 204.632
667.173 132.363
667.199 95.5951
667.224 71.0367
667.250 54.5274
667.276 43.2484
667.328 29.4426
667.380 21.7646
667.432 17.0891
667.484 14.0363
667.588 10.4181
667.692 8.42686
667.795 7.20665
667.899 6.39978
668.003 5.83558
668.210 5.11002
668.418 4.67262
668.626 4.38411
668.833 4.18133
669.248 3.91669
669.663 3.75203
670.493 3.55666
671.324 3.44186
672.154 3.36381
673.814 3.25943
675.475 3.18833
677.135 3.13380
680.456 3.05034
687.097 2.92821
693.739 2.82606
700.381 2.72042
703.702 2.65854
707.022 2.58329
708.683 2.53743
710.343 2.48324
712.004 2.41742
713.664 2.33570
714.494 2.28781
715.324 2.23607
716.155 2.18511
716.985 2.15251
717.400 2.15974
717.815 2.20718
718.230 2.34308
718.645 2.69060
718.853 3.03835
719.060 3.62237
719.268 4.65540
719.475 6.62611
719.579 8.30844
719.683 10.8596
719.787 14.9317
719.890 21.8821
719.942 27.3086
719.994 34.9442
720.046 46.0826
720.098 63.0640
720.150 90.3964
720.202 137.373
720.254 224.168
720.280 294.268
720.306 391.430
720.353 643.365
720.400 826.202
720.447 679.692
720.495 437.547
720.548 263.120
720.601 169.980
720.654 118.118
720.707 87.0596
720.760 67.1846
720.813 53.7493
720.919 37.3039
721.025 27.9682
721.132 22.1455
721.344 15.5142
721.556 11.9769
721.769 9.84438
721.981 8.44447
722.193 7.46851
722.618 6.21516
723.043 5.45746
723.467 4.95624
723.892 4.60280
724.742 4.14082
725.591 3.85404
726.440 3.65920
727.290 3.51817
728.988 3.32687
730.687 3.20190
732.386 3.11258
734.085 3.04455
737.482 2.94511
740.880 2.87294
747.675 2.76713
761.265 2.61284
774.855 2.47672
788.445 2.33254
802.036 2.16017
808.831 2.05306
815.626 1.91833
819.023 1.83201
820.722 1.78098
822.421 1.72310
824.120 1.65971
824.969 1.63064
825.818 1.61565
826.243 1.62338
826.668 1.65542
827.093 1.73906
827.517 1.94316
827.730 2.14293
827.942 2.47451
828.154 3.05592
828.367 4.15951
828.579 6.53122
828.685 8.82480
828.791 12.7747
828.844 15.8901
828.898 20.3197
828.951 26.8741
829.004 37.0426
829.057 53.9038
829.110 84.1205
829.136 108.608
829.163 143.584
829.189 194.574
829.216 268.685
829.258 438.679
829.300 559.676
829.342 457.539
829.384 292.795
829.431 175.046
829.478 112.537
829.526 77.8161
829.573 57.0757
829.620 43.8378
829.667 34.9127
829.761 24.0212
829.855 17.8725
829.950 14.0613
830.138 9.74734
830.326 7.46608
830.515 6.10140
830.703 5.21140
830.892 4.59448
831.269 3.80726
831.646 3.33427
832.022 3.02224
832.399 2.80211
833.153 2.51255
833.907 2.32947
835.415 2.10515
836.922 1.96503
838.430 1.86213
841.445 1.70494
847.475 1.45263
853.506 1.21925
856.521 1.11459
859.536 1.04060
862.551 1.05072
865.566 1.29415
867.074 1.62444
868.582 2.25473
870.089 3.47792
870.843 4.49947
871.597 5.99214
872.351 8.23838
873.104 11.7529
873.858 17.5461
874.612 27.8028
874.989 36.0395
875.366 47.9094
875.743 65.7232
876.120 93.8561
876.496 141.273
876.873 228.124
877.062 299.728
877.250 404.038
877.439 559.157
877.627 789.590
877.914 1303.73
878.200 1681.19
878.487 1387.68
878.773 894.841
879.112 525.229
879.451 333.555
879.791 229.055
880.130 167.320
880.469 128.157
880.808 101.833
881.487 69.7350
882.165 51.5760
882.843 40.2422
884.200 27.2539
885.557 20.1931
886.913 15.7146
887.592 13.9543
887.931 13.1361
888.270 12.3487
888.609 11.6251
888.779 11.3450
888.948 11.2403
889.118 11.6490
889.203 12.3579
889.288 13.8849
889.372 17.2779
889.415 20.4666
889.457 25.6426
889.500 34.4976
889.521 41.3153
889.542 50.7002
889.563 63.8846
889.584 82.7690
889.606 110.189
889.627 149.649
889.645 196.355
889.663 252.296
889.700 337.130
889.718 329.655
889.737 291.961
889.773 199.522
889.797 153.838
889.821 121.350
889.869 81.8221
889.916 60.5243
889.964 47.9466
890.011 39.9128
890.059 34.4513
890.154 27.6518
890.250 23.6699
890.345 21.0944
890.535 17.9805
890.726 16.1618
890.916 14.9562
891.297 13.4137
891.678 12.4241
892.059 11.7030
892.820 10.6660
894.344 9.31667
895.867 8.40167
898.914 7.16654
901.961 6.34452
908.055 5.28790
914.149 4.60762
920.243 4.09546
923.290 3.87079
926.337 3.66194
929.384 3.49220
930.908 3.45795
932.431 3.53257
933.193 3.66510
933.954 3.93340
934.716 4.46935
935.478 5.58764
936.240 8.17437
936.621 10.7906
937.001 15.4439
937.382 24.6320
937.573 32.8284
937.763 45.8672
937.954 68.0874
938.144 109.410
938.239 144.005
938.334 195.179
938.430 272.690
938.525 390.223
938.662 641.610
938.800 825.472
938.938 680.646
939.075 439.066
939.194 296.013
939.313 207.722
939.432 152.655
939.551 116.896
939.789 75.5356
940.027 53.6650
940.265 40.7505
940.503 32.4818
940.979 22.8436
941.455 17.6026
941.931 14.4068
942.407 12.2957
942.883 10.8170
943.835 8.90958
944.787 7.75089
945.739 6.98055
946.691 6.43432
948.595 5.71305
950.499 5.25728
952.403 4.94087
954.306 4.70610
958.114 4.37491
961.922 4.14554
969.538 3.83089
977.153 3.60686
984.769 3.42274
992.384 3.25317
1000.00 3.07766
1006.96 2.88758
1010.44 2.76846
1013.92 2.61896
1015.67 2.52658
1017.41 2.41736
1019.15 2.28596
1020.89 2.12826
1021.76 2.04099
1022.63 1.95503
1023.50 1.88924
1024.37 1.90229
1024.80 1.98936
1025.24 2.20025
1025.67 2.66728
1026.11 3.71396
1026.33 4.69650
1026.54 6.27124
1026.76 8.95042
1026.98 13.7985
1027.09 17.7862
1027.20 23.6249
1027.31 32.5457
1027.41 46.7661
1027.52 71.5354
1027.63 118.507
1027.69 158.948
1027.74 218.548
1027.79 310.034
1027.85 450.848
1027.92 747.318
1028.00 968.230
1028.08 803.499
1028.15 521.127
1028.22 348.114
1028.29 242.622
1028.36 177.490
1028.42 135.492
1028.56 87.1998
1028.70 61.9034
1028.83 46.8425
1028.97 37.1978
1029.24 25.9627
1029.51 19.8034
1029.78 16.0443
1030.05 13.5411
1030.32 11.7873
1030.87 9.51114
1031.41 8.12287
1031.95 7.19858
1032.50 6.54456
1033.58 5.68305
1034.67 5.14477
1035.75 4.77696
1036.84 4.50939
1039.01 4.14272
1041.18 3.89931
1043.35 3.72113
1045.52 3.58074
1049.87 3.35760
1052.04 3.25774
1054.21 3.15612
1056.38 3.04421
1057.47 2.98171
1058.55 2.91581
1059.10 2.88434
1059.64 2.85928
1060.18 2.85283
1060.73 2.89908
1061.00 2.96991
1061.27 3.10909
1061.54 3.38546
1061.81 3.95820
1062.08 5.28667
1062.22 6.63040
1062.35 8.99565
1062.49 13.6739
1062.56 17.8296
1062.63 24.2833
1062.69 35.2994
1062.76 55.4949
1062.80 72.1464
1062.83 96.4159
1062.86 132.494
1062.90 184.150
1062.95 303.210
1063.00 391.228
1063.05 323.641
1063.10 209.668
1063.15 137.423
1063.20 94.6823
1063.25 68.9225
1063.30 52.8745
1063.40 34.2969
1063.49 24.7585
1063.59 19.1252
1063.69 15.5775
1063.88 11.4489
1064.08 9.19527
1064.27 7.82722
1064.47 6.91728
1064.66 6.28183
1065.05 5.45596
1065.44 4.95394
1065.83 4.61918
1066.22 4.38122
1067.00 4.06608
1067.78 3.86702
1068.55 3.72887
1069.33 3.62646
1070.89 3.48217
1072.45 3.38243
1075.56 3.24570
1078.67 3.14849
1081.79 3.06987
1088.01 2.93703
1094.24 2.81256
1097.35 2.74667
1100.47 2.67340
1103.58 2.58537
1105.14 2.53136
1106.69 2.46621
1107.47 2.42770
1108.25 2.38431
1109.03 2.33584
1109.81 2.28527
1110.20 2.26329
1110.59 2.25076
1110.97 2.26298
1111.36 2.34155
1111.56 2.43926
1111.75 2.61866
1111.95 2.96063
1112.14 3.64686
1112.34 5.20050
1112.43 6.73501
1112.53 9.41596
1112.58 11.5696
1112.63 14.6535
1112.68 19.2445
1112.73 26.2340
1112.77 38.0122
1112.82 58.4886
1112.85 75.5872
1112.87 98.9321
1112.90 132.380
1112.92 180.079
1112.96 297.510
1113.00 381.250
1113.04 314.581
1113.08 205.199
1113.12 136.241
1113.16 94.6516
1113.19 69.2119
1113.23 52.9264
1113.30 34.3402
1113.38 24.6252
1113.45 18.9243
1113.53 15.2867
1113.67 11.0753
1113.82 8.76761
1113.97 7.36781
1114.12 6.43493
1114.26 5.78462
1114.56 4.93866
1114.85 4.42572
1115.15 4.08432
1115.44 3.84218
1116.03 3.52255
1116.62 3.32181
1117.22 3.18300
1117.81 3.08077
1118.99 2.93734
1120.17 2.83839
1122.53 2.70147
1124.89 2.60079
1127.25 2.51490
1131.98 2.35415
1136.70 2.17757
1139.06 2.07248
1141.42 1.94817
1142.60 1.87644
1143.78 1.79771
1144.97 1.71421
1146.15 1.63779
1146.74 1.61477
1147.33 1.62138
1147.92 1.69727
1148.51 1.94538
1148.80 2.21553
1149.10 2.68556
1149.39 3.54041
1149.69 5.20901
1149.84 6.65811
1149.98 8.85960
1150.13 12.4282
1150.28 18.5370
1150.35 23.3653
1150.43 30.2018
1150.50 40.2459
1150.57 55.4290
1150.65 80.3710
1150.72 123.777
1150.80 205.324
1150.83 272.306
1150.87 363.255
1150.94 600.937
1151.00 771.924
1151.07 634.827
1151.13 410.314
1151.17 305.105
1151.21 232.755
1151.30 144.797
1151.38 98.3690
1151.46 71.5190
1151.55 54.7315
1151.63 43.5626
1151.79 30.1391
1151.96 22.5640
1152.13 17.8717
1152.46 12.5585
1152.79 9.71639
1153.12 8.00177
1153.45 6.87031
1153.78 6.07588
1154.45 5.04364
1155.11 4.40913
1155.77 3.98121
1156.43 3.67315
1157.76 3.25464
1159.08 2.97857
1161.73 2.61774
1164.39 2.36923
1167.04 2.16685
1172.34 1.80514
1174.99 1.62606
1177.64 1.44668
1180.29 1.28181
1182.94 1.19018
1184.26 1.22630
1185.59 1.39526
1186.91 1.84730
1187.58 2.27945
1188.24 2.95578
1188.90 4.03605
1189.57 5.81296
1190.23 8.87531
1190.89 14.5161
1191.22 19.1936
1191.55 26.0591
1191.88 36.5960
1192.22 53.6627
1192.55 83.4355
1192.88 140.066
1193.04 188.671
1193.21 261.474
1193.38 374.923
1193.54 550.339
1193.77 920.035
1194.00 1199.89
1194.23 997.123
1194.46 646.526
1194.68 424.678
1194.89 292.957
1195.10 212.605
1195.32 161.640
1195.75 103.474
1196.18 73.0891
1196.61 55.2305
1197.03 43.8054
1197.89 30.4538
1198.75 23.1494
1199.61 18.6609
1200.47 15.6723
1201.32 13.5641
1203.04 10.8137
1204.76 9.12047
1206.47 7.98139
1208.19 7.16460
1211.62 6.06415
1215.05 5.33569
1216.77 5.04161
1217.62 4.90483
1218.48 4.77533
1219.34 4.66435
1219.77 4.63115
1220.20 4.64376
1220.41 4.68947
1220.63 4.79006
1220.84 4.99902
1221.06 5.43786
1221.27 6.45513
1221.38 7.47068
1221.48 9.25494
1221.59 12.7089
1221.65 15.7639
1221.70 20.4359
1221.75 28.3189
1221.81 42.1123
1221.86 69.4784
1221.89 92.8035
1221.91 124.972
1221.96 203.126
1222.00 260.446
1222.05 214.619
1222.09 140.149
1222.14 85.9745
1222.19 57.0415
1222.24 40.9111
1222.29 31.3867
1222.34 25.1293
1222.39 20.9648
1222.49 15.7710
1222.59 12.8041
1222.68 10.9408
1222.88 8.79762
1223.08 7.63458
1223.28 6.92680
1223.48 6.45446
1223.68 6.11881
1224.07 5.67391
1224.47 5.39261
1225.26 5.04917
1226.05 4.83827
1226.85 4.68867
1228.43 4.47597
1230.02 4.31985
1231.60 4.19285
1234.77 3.98563
1241.11 3.65881
1247.45 3.37250
1253.79 3.06981
1256.96 2.89026
1260.13 2.67107
1261.72 2.53796
1263.31 2.38263
1264.89 2.19902
1266.48 1.98480
1267.27 1.87125
1268.06 1.76685
1268.85 1.70456
1269.65 1.78161
1270.04 1.95384
1270.44 2.32387
1270.83 3.09191
1271.03 3.75322
1271.23 4.73386
1271.43 6.23378
1271.63 8.58389
1271.83 12.4572
1272.02 19.2632
1272.12 24.6661
1272.22 32.3505
1272.32 43.6667
1272.42 61.0569
1272.52 89.2166
1272.62 137.780
1272.72 227.495
1272.77 300.825
1272.82 400.312
1272.91 670.897
1273.00 874.497
1273.09 730.769
1273.19 479.012
1273.25 343.461
1273.32 254.151
1273.39 194.359
1273.46 153.316
1273.59 103.047
1273.73 74.9151
1273.87 57.5530
1274.00 46.2225
1274.28 32.6274
1274.55 24.9960
1274.82 20.2661
1275.09 17.0920
1275.36 14.8407
1275.91 11.8951
1276.45 10.0840
1277.00 8.87157
1277.54 8.01030
1278.63 6.87156
1279.72 6.15851
1280.81 5.67076
1281.90 5.31591
1284.08 4.83217
1286.26 4.51501
1288.44 4.28810
1290.62 4.11543
1294.97 3.86379
1299.33 3.68233
1308.05 3.41791
1316.76 3.20959
1325.48 3.01194
1329.83 2.90412
1332.01 2.84419
1334.19 2.77753
1336.37 2.70098
1337.46 2.65827
1338.55 2.61423
1339.64 2.57830
1340.18 2.57561
1340.73 2.60740
1341.00 2.65375
1341.27 2.74305
1341.54 2.91694
1341.82 3.27426
1341.95 3.59620
1342.09 4.09717
1342.23 4.92428
1342.36 6.39413
1342.50 9.29757
1342.57 11.8938
1342.63 16.0370
1342.70 23.1294
1342.77 36.4374
1342.80 47.6804
1342.84 64.4594
1342.87 90.1560
1342.91 129.602
1342.95 212.289
1343.00 270.597
1343.05 222.111
1343.10 144.146
1343.14 95.8259
1343.18 67.2186
1343.22 49.5358
1343.26 38.1274
1343.35 24.9076
1343.43 18.0653
1343.52 14.0002
1343.60 11.4402
1343.77 8.44812
1343.94 6.82935
1344.11 5.84541
1344.28 5.19681
1344.45 4.74519
1344.78 4.15895
1345.12 3.80197
1345.46 3.56325
1345.80 3.39272
1346.47 3.16179
1347.15 3.00925
1348.50 2.80522
1349.85 2.65852
1350.53 2.59856
1351.20 2.55606
1351.54 2.55025
1351.88 2.56798
1352.22 2.63493
1352.55 2.81462
1352.72 2.99551
1352.89 3.29763
1353.06 3.82563
1353.23 4.81578
1353.40 6.88559
1353.48 8.83722
1353.57 12.0405
1353.65 17.8868
1353.69 22.6195
1353.74 29.5367
1353.78 40.0616
1353.82 56.8105
1353.86 84.6349
1353.90 131.601
1353.95 216.857
1354.00 278.004
1354.05 229.427
1354.10 149.597
1354.14 105.196
1354.17 76.4181
1354.21 57.7188
1354.25 45.4627
1354.32 30.3793
1354.40 22.2575
1354.48 17.2956
1354.55 14.1172
1354.70 10.3507
1354.85 8.26091
1355.00 6.97734
1355.15 6.12512
1355.30 5.52909
1355.61 4.75133
1355.91 4.27782
1356.21 3.96037
1356.51 3.73485
1357.11 3.43397
1357.72 3.24106
1358.92 3.00115
1360.13 2.84918
1361.33 2.73668
1363.75 2.56381
1368.57 2.27935
1373.39 1.98064
1375.81 1.80683
1378.22 1.60767
1380.63 1.37739
1383.04 1.11872
1384.25 0.989504
1385.45 0.882258
1386.66 0.847119
1387.26 0.893117
1387.87 1.02387
1388.17 1.13984
1388.47 1.30472
1388.77 1.53765
1389.07 1.86292
1389.37 2.32096
1389.67 2.96632
1389.98 3.89349
1390.28 5.24158
1390.58 7.26607
1390.88 10.3910
1391.18 15.4745
1391.48 24.2108
1391.79 40.6771
1391.94 54.6274
1392.09 75.4927
1392.24 108.628
1392.39 163.415
1392.54 260.514
1392.69 435.178
1392.84 729.595
1393.00 954.746
1393.16 798.446
1393.31 521.241
1393.43 373.544
1393.54 275.069
1393.66 209.488
1393.78 164.663
1394.01 110.008
1394.24 79.6588
1394.47 60.9962
1394.70 48.7434
1395.17 34.1239
1395.63 25.9776
1396.09 20.9818
1397.02 15.5327
1397.95 13.3750
1398.41 13.3877
1398.87 14.5575
1399.34 18.0983
1399.57 21.7602
1399.80 28.0220
1400.03 39.5446
1400.26 62.7563
1400.38 83.7882
1400.50 117.151
1400.61 172.246
1400.73 263.475
1400.86 431.987
1401.00 557.115
1401.14 462.389
1401.27 301.327
1401.38 210.928
1401.49 153.372
1401.60 116.149
1401.71 91.2816
1401.93 61.6546
1402.15 45.5052
1402.37 35.7544
1402.58 29.3971
1403.02 21.8193
1403.46 17.5778
1403.89 14.9169
1404.76 11.8045
1405.64 10.0512
1406.51 8.92640
1408.25 7.55258
1410.00 6.73144
1411.74 6.17753
1415.23 5.46503
1418.72 5.01782
1422.21 4.70633
1429.18 4.29282
1436.16 4.02373
1443.14 3.82922
1457.09 3.55433
1471.05 3.35416
1485.00 3.18417
1491.98 3.09987
1498.95 3.00548
1502.44 2.94729
1504.19 2.91222
1505.93 2.87041
1507.68 2.81852
1508.55 2.78810
1509.42 2.75668
1510.29 2.73595
1510.73 2.74450
1511.16 2.79522
1511.38 2.85736
1511.60 2.97151
1511.82 3.18711
1512.04 3.62051
1512.25 4.59263
1512.36 5.55417
1512.47 7.23129
1512.58 10.4530
1512.64 13.2834
1512.69 17.5875
1512.74 24.7895
1512.80 37.2563
1512.83 47.5509
1512.85 61.5835
1512.88 81.5660
1512.91 109.881
1512.95 180.808
1513.00 231.747
1513.05 191.514
1513.09 125.245
1513.14 77.4838
1513.19 51.8394
1513.24 37.1987
1513.29 28.2698
1513.34 22.4781
1513.39 18.5219
1513.49 13.6214
1513.60 10.7876
1513.70 9.02527
1513.90 6.99620
1514.10 5.89756
1514.30 5.23276
1514.50 4.79107
1514.70 4.48248
1515.10 4.08155
1515.50 3.83623
1515.90 3.67199
1516.30 3.55501
1517.10 3.39883
1517.90 3.29913
1518.71 3.22927
1519.51 3.17703
1521.11 3.10220
1522.71 3.04927
1525.92 2.97395
1529.13 2.91769
1532.34 2.87019
1538.75 2.78663
1551.58 2.62947
1564.40 2.45686
1577.23 2.23915
1583.64 2.09744
1590.06 1.91607
1596.47 1.66609
1599.68 1.49860
1602.88 1.28846
1604.49 1.16395
1606.09 1.02768
1607.69 0.889091
1609.30 0.786455
1610.10 0.785107
1610.90 0.870815
1611.30 0.974907
1611.70 1.14833
1612.10 1.42903
1612.50 1.87921
1612.91 2.61262
1613.31 3.83640
1613.71 5.96802
1613.91 7.62186
1614.11 9.91799
1614.31 13.2097
1614.51 18.0356
1614.71 25.4807
1614.91 37.4581
1615.11 58.2849
1615.31 97.4199
1615.41 130.486
1615.51 179.706
1615.61 254.724
1615.71 369.248
1615.86 618.148
1616.00 808.238
1616.15 675.217
1616.29 441.373
1616.39 322.266
1616.50 240.929
1616.60 185.597
1616.70 147.133
1616.90 99.4024
1617.11 72.4582
1617.31 55.6934
1617.51 44.6008
1617.92 31.2598
1618.33 23.7432
1618.74 19.0653
1619.14 15.9146
1619.55 13.6841
1620.37 10.7642
1621.18 8.96705
1622.00 7.76303
1622.81 6.90667
1624.44 5.77376
1626.07 5.06204
1627.70 4.57357
1629.33 4.21676
1632.59 3.72595
1635.85 3.39965
1642.37 2.98415
1648.89 2.75255
1652.14 2.71379
1655.40 2.78056
1658.66 3.10957
1660.29 3.51982
1661.92 4.33258
1663.55 6.12310
1664.37 7.87748
1665.18 10.9301
1666.00 16.8544
1666.40 22.0971
1666.81 30.3810
1667.22 44.5127
1667.63 70.8654
1667.83 93.1719
1668.03 126.333
1668.24 177.523
1668.44 256.068
1668.72 416.722
1669.00 529.845
1669.28 428.906
1669.56 271.251
1669.77 191.030
1669.97 138.619
1670.18 104.091
1670.38 80.7168
1670.79 52.5275
1671.20 37.1397
1671.61 27.8612
1672.02 21.8784
1672.84 14.8593
1673.67 11.0465
1674.49 8.73292
1676.13 6.15521
1677.77 4.79747
1679.41 3.97388
1682.70 3.02979
1685.98 2.51366
1687.62 2.35520
1689.26 2.27268
1690.90 2.32420
1691.73 2.45606
1692.55 2.74780
1693.37 3.41216
1693.78 4.06973
1694.19 5.22354
1694.60 7.52036
1694.80 9.61555
1695.01 13.0793
1695.21 19.4025
1695.32 24.7429
1695.42 32.7503
1695.52 45.7464
1695.62 67.9945
1695.73 110.258
1695.83 193.447
1695.92 307.875
1696.00 381.859
1696.09 303.936
1696.17 190.305
1696.23 139.433
1696.28 104.131
1696.39 62.5930
1696.50 41.1777
1696.60 29.0645
1696.71 21.6514
1696.82 16.8216
1697.03 11.1777
1697.25 8.12601
1697.47 6.31845
1697.90 4.38041
1698.33 3.44187
1698.76 2.94301
1699.62 2.53133
1700.48 2.50389
1701.35 2.72146
1702.21 3.18076
1703.07 3.94974
1703.93 5.17892
1704.80 7.14437
1705.66 10.3856
1706.52 15.9872
1707.38 26.4239
1707.82 35.1088
1708.25 47.9491
1708.68 67.6689
1709.11 99.2657
1709.54 151.986
1709.97 241.327
1710.49 411.287
1711.00 546.804
1711.52 463.825
1712.03 306.958
1712.63 186.595
1713.24 122.562
1713.84 86.8591
1714.44 65.3617
1715.05 51.4929
1715.65 42.0266
1716.86 30.2518
1718.06 23.4195
1719.27 19.0553
1721.68 13.9091
1724.09 11.0227
1726.50 9.18395
1731.33 6.93816
1736.15 5.52517
1738.56 4.95785
1740.98 4.45465
1743.39 4.07650
1744.59 4.03039
1745.80 4.27393
1746.40 4.64041
1747.01 5.34513
1747.61 6.69530
1748.21 9.39141
1748.51 11.7317
1748.81 15.2716
1749.12 20.8940
1749.42 30.2703
1749.72 47.2371
1749.87 61.0627
1750.02 81.0033
1750.17 111.215
1750.32 158.556
1750.47 235.453
1750.62 360.657
1750.81 605.649
1751.00 793.632
1751.19 666.263
1751.38 438.110
1751.59 270.672
1751.80 179.335
1752.01 127.604
1752.22 96.1787
1752.43 75.8140
1752.64 61.8895
1753.06 44.5780
1753.48 34.5713
1753.90 28.2180
1754.74 20.8094
1755.58 16.7362
1756.42 14.2080
1757.26 12.5033
1758.10 11.2839
1759.78 9.65847
1761.46 8.62722
1763.14 7.91187
1764.81 7.38449
1768.17 6.65092
1771.53 6.15755
1778.25 5.51770
1784.97 5.10552
1791.69 4.80771
1805.12 4.38564
1818.56 4.07504
1832.00 3.79623
1838.72 3.63950
1842.08 3.54531
1845.43 3.42931
1848.79 3.27186
1850.47 3.16497
1852.15 3.02611
1852.99 2.93943
1853.83 2.83777
1854.67 2.71952
1855.51 2.59009
1855.93 2.53014
1856.35 2.48992
1856.77 2.50553
1857.19 2.67488
1857.40 2.89478
1857.61 3.30537
1857.82 4.08414
1858.03 5.63813
1858.14 6.98773
1858.24 9.04221
1858.35 12.3063
1858.45 17.7933
1858.56 27.7433
1858.61 35.9755
1858.66 47.7560
1858.71 65.9327
1858.77 94.0103
1858.82 139.672
1858.87 214.789
1858.94 361.338
1859.00 475.465
1859.07 400.189
1859.13 263.290
1859.18 183.141
1859.24 132.106
1859.29 99.4356
1859.35 78.0979
1859.45 52.4497
1859.56 38.4786
1859.67 29.9752
1859.77 24.4888
1859.99 17.9470
1860.20 14.2829
1860.42 12.0130
1860.63 10.4859
1860.85 9.39911
1861.27 7.96909
1861.70 7.08329
1862.13 6.48604
1862.56 6.05911
1863.42 5.48943
1864.28 5.12898
1865.13 4.87989
1865.99 4.69744
1867.71 4.44613
1869.42 4.27930
1871.14 4.15862
1872.85 4.06587
1876.28 3.92913
1879.71 3.82930
1886.57 3.68329
1893.43 3.57168
1900.29 3.47590
1914.01 3.30127
1927.73 3.12021
1934.59 3.01649
1941.45 2.89481
1948.31 2.74143
1951.74 2.64460
1955.17 2.52558
1958.60 2.37060
1960.31 2.27172
1962.03 2.15114
1963.74 2.00120
1964.60 1.91474
1965.46 1.82855
1965.88 1.79411
1966.31 1.77932
1966.74 1.81274
1967.17 1.96856
1967.39 2.15128
1967.60 2.47697
1967.81 3.07693
1968.03 4.25106
1968.14 5.27373
1968.24 6.81538
1968.35 9.26812
1968.46 13.4177
1968.56 21.0509
1968.62 27.4748
1968.67 36.8396
1968.72 51.6544
1968.78 75.3646
1968.83 116.801
1968.88 188.020
1968.94 311.299
1969.00 403.599
1969.06 334.381
1969.12 217.827
1969.16 157.476
1969.20 116.845
1969.24 89.5373
1969.29 70.7392
1969.37 47.6594
1969.45 34.7250
1969.54 26.7887
1969.62 21.5680
1969.79 15.3169
1969.96 11.8283
1970.13 9.66194
1970.46 7.18279
1970.80 5.83863
1971.13 5.00766
1971.81 4.03944
1972.48 3.48533
1973.15 3.11394
1974.49 2.60790
1975.84 2.23132
1976.51 2.07361
1977.18 1.96142
1977.52 1.94803
1977.85 2.00058
1978.19 2.19095
1978.52 2.69649
1978.69 3.19874
1978.86 4.02820
1979.03 5.45490
1979.20 8.06746
1979.28 10.2067
1979.36 13.3248
1979.45 18.0484
1979.53 25.5620
1979.62 38.2798
1979.70 61.5757
1979.74 80.7103
1979.78 108.459
1979.83 149.425
1979.87 208.054
1979.93 349.136
1980.00 455.071
1980.07 379.939
1980.13 249.259
1980.19 169.504
1980.25 120.678
1980.31 89.8573
1980.36 69.6315
1980.48 45.9382
1980.59 33.2139
1980.71 25.5461
1980.82 20.6285
1981.05 14.8020
1981.28 11.5563
1981.50 9.54892
1981.96 7.22952
1982.42 5.95178
1982.88 5.14566
1983.79 4.17449
1984.70 3.58613
1985.62 3.16683
1987.44 2.54107
1988.36 2.27517
1989.27 2.02936
1990.19 1.81996
1991.10 1.71841
1991.56 1.77326
1992.01 1.98984
1992.47 2.53786
1992.70 3.04399
1992.93 3.81907
1993.15 5.03044
1993.38 6.95681
1993.61 10.1716
1993.84 15.7948
1993.95 20.2747
1994.07 26.5432
1994.18 35.6502
1994.30 49.3683
1994.41 70.9432
1994.52 106.598
1994.64 168.533
1994.75 278.672
1994.88 472.936
1995.00 627.012
1995.13 531.112
1995.25 352.065
1995.32 270.624
1995.40 212.086
1995.55 138.817
1995.70 98.0284
1995.84 73.7810
1995.99 58.0965
1996.14 47.4980
1996.44 34.3107
1996.73 26.6927
1997.03 21.8476
1997.63 16.1745
1998.22 13.0357
1998.81 11.0766
1999.41 9.74980
2000.00 8.79821
2001.15 7.55561
2002.31 6.75895
2003.46 6.20402
2004.61 5.79515
2006.92 5.22918
2009.22 4.85188
2013.83 4.36673
2018.44 4.05004
2023.05 3.80476
2025.35 3.69230
2027.66 3.57884
2029.96 3.45705
2031.12 3.39062
2032.27 3.32108
2033.42 3.25809
2034.00 3.24317
2034.57 3.26866
2034.86 3.31788
2035.15 3.41972
2035.44 3.62561
2035.73 4.05748
2036.01 5.05375
2036.16 6.05335
2036.30 7.81120
2036.45 11.2118
2036.52 14.1788
2036.59 18.7878
2036.66 26.3739
2036.73 39.7850
2036.81 65.5120
2036.84 87.0459
2036.88 117.705
2036.94 194.033
2037.00 249.780
2037.06 207.291
2037.12 135.891
2037.17 99.6329
2037.21 75.3946
2037.25 58.4679
2037.29 46.9605
2037.38 32.4708
2037.46 24.3412
2037.55 19.2504
2037.63 15.9244
2037.80 11.8976
2037.97 9.64495
2038.14 8.24589
2038.48 6.64804
2038.81 5.78631
2039.15 5.25767
2039.49 4.90364
2039.83 4.65097
2040.50 4.31424
2041.18 4.09821
2042.53 3.82890
2043.89 3.65644
2045.24 3.52615
2047.94 3.31474
2049.29 3.21679
2050.65 3.11924
2052.00 3.02346
2053.35 2.94316
2054.03 2.92343
2054.70 2.93950
2055.38 3.03535
2056.05 3.32241
2056.39 3.62188
2056.73 4.13046
2057.07 5.02781
2057.41 6.71286
2057.74 10.1984
2057.91 13.4023
2058.08 18.6026
2058.25 27.6360
2058.42 44.7850
2058.51 59.4644
2058.59 81.1712
2058.67 114.875
2058.76 166.096
2058.88 277.228
2059.00 362.650
2059.12 304.306
2059.24 199.937
2059.32 150.418
2059.40 115.458
2059.55 73.6896
2059.71 51.3828
2059.86 38.4912
2060.02 30.3246
2060.18 24.8902
2060.49 18.2413
2060.80 14.4675
2061.11 12.0986
2061.73 9.36659
2062.35 7.87456
2062.97 6.95381
2063.60 6.33571
2064.22 5.89547
2065.46 5.31147
2066.70 4.94367
2067.95 4.69026
2069.19 4.50468
2071.68 4.24860
2074.16 4.07754
2079.14 3.85583
2084.11 3.71057
2089.08 3.60183
2099.03 3.43492
2108.98 3.29198
2113.95 3.21830
2118.93 3.13547
2123.90 3.03220
2126.39 2.96604
2128.87 2.88328
2130.12 2.83301
2131.36 2.77533
2132.60 2.70985
2133.85 2.64112
2134.47 2.61164
2135.09 2.59598
2135.71 2.61666
2136.33 2.73361
2136.64 2.87566
2136.96 3.13460
2137.27 3.61850
2137.58 4.57143
2137.89 6.65621
2138.04 8.66581
2138.20 12.0349
2138.35 18.2331
2138.43 23.3574
2138.51 30.7938
2138.59 42.3204
2138.66 60.5073
2138.74 91.2423
2138.82 142.640
2138.91 238.078
2139.00 310.116
2139.09 259.652
2139.18 170.982
2139.24 130.706
2139.29 102.109
2139.40 66.5849
2139.51 47.0882
2139.61 35.4934
2139.72 28.0899
2139.83 23.0818
2140.05 16.9226
2140.26 13.3876
2140.48 11.1724
2140.91 8.60888
2141.34 7.20929
2141.78 6.34982
2142.21 5.77363
2142.64 5.36545
2143.51 4.82813
2144.37 4.49330
2145.24 4.26562
2146.10 4.10090
2147.83 3.87809
2149.56 3.73336
2151.29 3.63067
2153.02 3.55314
2156.48 3.44130
2159.94 3.36185
2166.86 3.24923
2173.78 3.16601
2180.70 3.09643
2194.54 2.97386
2208.37 2.85336
2222.21 2.71287
2229.13 2.62051
2232.59 2.56178
2236.05 2.48741
2239.51 2.38419
2241.24 2.31295
2242.97 2.21869
2243.84 2.15850
2244.70 2.08599
2245.57 1.99756
2246.43 1.89037
2246.86 1.83093
2247.30 1.77270
2247.73 1.72887
2248.16 1.74045
2248.38 1.80197
2248.59 1.94743
2248.81 2.26361
2249.03 2.95650
2249.13 3.59169
2249.24 4.59409
2249.35 6.24621
2249.40 7.47903
2249.46 9.13761
2249.51 11.4192
2249.57 14.6423
2249.62 19.3435
2249.67 26.4709
2249.73 37.7916
2249.78 56.7771
2249.84 90.4640
2249.89 152.011
2249.95 256.354
2250.00 335.718
2250.06 282.574
2250.11 187.239
2250.16 128.721
2250.21 92.0261
2250.26 68.8489
2250.30 53.8937
2250.40 36.0598
2250.49 26.4275
2250.59 20.6363
2250.68 16.8693
2250.87 12.3904
2251.06 9.89537
2251.25 8.34184
2251.44 7.29682
2251.63 6.55294
2252.01 5.57503
2252.39 4.96780
2252.77 4.55740
2253.15 4.26279
2253.91 3.86905
2254.67 3.61891
2255.43 3.44544
2256.19 3.31755
2257.71 3.13986
2259.23 3.02021
2262.28 2.86265
2265.32 2.75619
2268.36 2.67297
2274.44 2.53495
2280.52 2.40469
2283.56 2.33577
2286.60 2.26230
2289.64 2.18805
2291.17 2.15849
2292.69 2.15237
2293.45 2.17217
2294.21 2.22645
2294.97 2.35132
2295.73 2.63506
2296.11 2.90191
2296.49 3.33279
2296.87 4.06514
2297.25 5.40493
2297.63 8.13810
2297.82 10.6489
2298.01 14.7541
2298.20 22.0080
2298.39 36.2448
2298.48 48.8150
2298.58 68.3821
2298.67 99.9844
2298.77 151.585
2298.88 248.876
2299.00 320.144
2299.12 264.140
2299.23 170.661
2299.32 122.507
2299.40 90.6579
2299.49 69.1062
2299.57 54.5150
2299.74 36.5797
2299.91 26.6029
2300.08 20.5217
2300.25 16.5454
2300.59 11.8318
2300.92 9.21853
2301.26 7.61154
2301.60 6.54510
2301.94 5.79799
2302.61 4.83007
2303.29 4.24283
2303.96 3.85211
2304.64 3.57558
2305.99 3.20981
2307.34 2.97739
2310.04 2.69068
2312.74 2.50926
2315.44 2.37394
2320.85 2.16283
2326.25 1.99490
2328.95 1.93823
2331.65 1.93749
2334.36 2.10751
2335.71 2.36998
2337.06 2.94075
2338.41 4.28751
2339.08 5.65624
2339.76 8.08096
2340.44 12.8319
2340.77 17.0237
2341.11 23.5831
2341.45 34.5673
2341.79 54.3293
2341.95 70.4177
2342.12 93.5492
2342.29 127.381
2342.46 176.373
2342.73 291.029
2343.00 375.886
2343.27 311.001
2343.54 201.543
2343.85 121.038
2344.16 78.3770
2344.47 54.7408
2344.78 40.6548
2345.09 31.6109
2345.40 25.4947
2346.02 17.9969
2346.64 13.7178
2347.26 11.0367
2348.50 7.94809
2349.74 6.26885
2350.97 5.23241
2353.45 4.02842
2355.93 3.33958
2358.41 2.87622
2363.36 2.23975
2368.32 1.78284
2370.79 1.62625
2373.27 1.59751
2375.75 1.95116
2376.99 2.51883
2378.23 3.74608
2378.85 4.85090
2379.47 6.55649
2380.08 9.29235
2380.70 13.9089
2381.32 22.2745
2381.63 29.0759
2381.94 38.8794
2382.25 53.5741
2382.56 76.2306
2382.87 112.494
2383.18 170.582
2383.59 290.142
2384.00 385.431
2384.41 327.662
2384.82 217.500
2385.07 167.235
2385.32 130.674
2385.81 85.1661
2386.31 60.1112
2386.80 45.1458
2387.30 35.5382
2387.80 28.9981
2388.79 20.8719
2389.78 16.1457
2390.77 13.1076
2392.76 9.47249
2394.74 7.41181
2395.73 6.75050
2396.72 6.38916
2397.72 6.65104
2398.21 7.34559
2398.71 8.95501
2399.20 12.7285
2399.45 16.4370
2399.70 22.7337
2399.95 34.2199
2400.07 43.6374
2400.20 57.3827
2400.32 78.1761
2400.44 110.888
2400.57 164.243
2400.69 252.247
2400.85 422.800
2401.00 555.798
2401.16 468.497
2401.31 309.806
2401.41 236.190
2401.50 183.850
2401.69 119.486
2401.88 84.4974
2402.07 63.7895
2402.26 50.5343
2402.45 41.6212
2402.83 30.6276
2403.21 24.2857
2403.59 20.2671
2404.35 15.5472
2405.11 12.9089
2405.87 11.2405
2407.40 9.25304
2408.92 8.09953
2410.44 7.33717
2413.48 6.37069
2416.52 5.76694
2419.57 5.34368
2425.65 4.77288
2431.74 4.39186
2437.82 4.10930
2450.00 3.69231
2462.17 3.35844
2468.25 3.19458
2474.34 3.01616
2480.42 2.80144
2483.47 2.66835
2486.51 2.50700
2488.03 2.41215
2489.55 2.30679
2491.07 2.19329
2492.60 2.08685
2493.36 2.05226
2494.12 2.05482
2494.88 2.14384
2495.64 2.44379
2496.40 3.32299
2496.78 4.30626
2497.16 6.14598
2497.35 7.67855
2497.54 9.91417
2497.73 13.3102
2497.92 18.7091
2498.11 27.8016
2498.30 44.2613
2498.40 57.5937
2498.49 76.6623
2498.59 104.341
2498.68 144.388
2498.84 243.967
2499.00 322.724
2499.16 273.347
2499.32 181.383
2499.51 111.799
2499.69 74.2485
2499.87 53.1380
2500.06 40.3628
2500.24 32.0968
2500.43 26.4454
2500.79 19.4104
2501.16 15.3311
2501.53 12.7310
2502.26 9.68448
2503.00 7.99290
2503.74 6.93588
2504.47 6.21634
2505.21 5.69741
2506.68 4.99555
2508.15 4.53806
2509.62 4.20783
2511.09 3.94922
2514.03 3.53430
2515.51 3.34281
2516.98 3.14231
2517.71 3.03417
2518.45 2.91952
2519.18 2.80052
2519.92 2.69242
2520.29 2.65825
2520.65 2.66191
2521.02 2.75245
2521.39 3.05359
2521.76 3.93658
2521.94 4.93004
2522.13 6.80347
2522.22 8.36747
2522.31 10.6778
2522.40 14.2262
2522.49 19.9533
2522.59 29.8079
2522.68 48.2204
2522.72 63.6048
2522.77 86.2425
2522.82 120.230
2522.86 169.870
2522.93 284.665
2523.00 373.895
2523.07 314.286
2523.14 207.606
2523.22 132.279
2523.29 89.7233
2523.36 64.9661
2523.44 49.6408
2523.51 39.5757
2523.59 32.6258
2523.73 23.9441
2523.88 18.8364
2524.03 15.5939
2524.32 11.7758
2524.62 9.66299
2524.91 8.35576
2525.21 7.47504
2525.50 6.84580
2526.09 6.01116
2526.68 5.48698
2527.28 5.12666
2527.87 4.86407
2529.05 4.50394
2530.23 4.26588
2532.59 3.96244
2534.95 3.76903
2537.31 3.62888
2542.04 3.42705
2546.76 3.27662
2551.49 3.15051
2560.93 2.92548
2570.38 2.69147
2575.11 2.55323
2579.83 2.38469
2582.19 2.28220
2584.55 2.16173
2586.92 2.01690
2589.28 1.84056
2590.46 1.73992
2591.64 1.63477
2592.82 1.53855
2594.00 1.49593
2594.59 1.53449
2595.18 1.66844
2595.77 2.00299
2596.36 2.79060
2596.66 3.54214
2596.95 4.75100
2597.25 6.78525
2597.54 10.4233
2597.69 13.3551
2597.84 17.5259
2597.99 23.7517
2598.13 33.3130
2598.28 48.9959
2598.43 76.0060
2598.58 126.532
2598.72 223.726
2598.86 376.751
2599.00 495.944
2599.14 417.403
2599.28 275.030
2599.40 188.935
2599.51 135.265
2599.63 101.204
2599.75 78.7558
2599.99 52.2501
2600.22 38.0107
2600.46 29.4175
2600.70 23.8538
2601.17 17.2236
2601.64 13.5304
2602.12 11.2302
2602.59 9.68208
2603.06 8.58123
2604.01 7.12847
2604.95 6.22477
2605.90 5.61110
2606.84 5.16905
2608.73 4.57372
2610.62 4.18950
2612.52 3.91824
2614.41 3.71389
2618.19 3.41881
2621.97 3.20624
2629.54 2.88800
2637.10 2.61445
2640.88 2.47219
2644.66 2.31381
2648.45 2.12424
2650.34 2.01020
2652.23 1.87764
2654.12 1.72561
2655.07 1.64937
2656.01 1.59484
2656.48 1.59375
2656.96 1.63588
2657.43 1.77015
2657.90 2.11538
2658.38 3.01438
2658.61 3.97208
2658.85 5.70316
2658.97 7.12122
2659.09 9.15530
2659.20 12.2008
2659.32 16.9685
2659.44 24.8595
2659.56 38.8484
2659.68 65.6554
2659.73 88.0238
2659.79 119.795
2659.90 201.470
2660.00 264.092
2660.10 222.127
2660.21 146.639
2660.31 96.9220
2660.41 67.3348
2660.50 49.4206
2660.60 38.0180
2660.80 25.0358
2661.00 18.2584
2661.20 14.2308
2661.39 11.6510
2661.79 8.59792
2662.18 6.90038
2662.58 5.84463
2663.37 4.61697
2664.16 3.92907
2664.95 3.48753
2666.53 2.93830
2668.11 2.58981
2669.69 2.32948
2672.85 1.92245
2674.44 1.75095
2676.02 1.60681
2677.60 1.52371
2679.18 1.60498
2679.97 1.79270
2680.76 2.19060
2681.55 3.00076
2682.34 4.68440
2682.74 6.18030
2683.13 8.47625
2683.53 12.1525
2683.92 18.3654
2684.32 29.6614
2684.51 38.9291
2684.71 52.3583
2684.91 72.7209
2685.11 104.465
2685.30 156.234
2685.50 240.651
2685.75 407.865
2686.00 539.981
2686.25 457.073
2686.50 302.466
2686.74 200.575
2686.98 139.648
2687.22 102.609
2687.46 78.9509
2687.70 63.0592
2687.94 51.9016
2688.41 37.6770
2688.89 29.2191
2689.37 23.7684
2690.32 17.3074
2691.28 13.7080
2692.23 11.4634
2693.19 9.94661
2694.14 8.86105
2696.05 7.42086
2697.96 6.51534
2699.87 5.89484
2701.78 5.44301
2705.61 4.82674
2709.43 4.42250
2717.07 3.91213
2724.71 3.58896
2732.35 3.35328
2747.63 2.99898
2762.91 2.69801
2770.56 2.54398
2778.20 2.37444
2785.84 2.17326
2789.66 2.05205
2793.48 1.90887
2797.30 1.73341
2799.21 1.62997
2801.12 1.51682
2803.03 1.40875
2803.99 1.37771
2804.94 1.40510
2805.90 1.61357
2806.37 1.90400
2806.85 2.51053
2807.09 3.05301
2807.33 3.89534
2807.57 5.26378
2807.81 7.61583
2808.04 12.0605
2808.16 15.8541
2808.28 21.5425
2808.40 30.6462
2808.52 45.8000
2808.64 72.7213
2808.76 122.050
2808.88 202.799
2809.00 263.764
2809.12 219.539
2809.24 143.268
2809.35 94.4686
2809.47 65.3616
2809.58 47.6998
2809.69 36.5279
2809.92 23.7198
2810.14 17.0112
2810.37 13.0570
2810.59 10.5191
2811.04 7.53641
2811.49 5.88462
2811.94 4.85795
2812.84 3.65875
2813.74 2.97528
2814.64 2.52422
2816.45 1.94412
2817.35 1.75453
2818.25 1.63857
2819.15 1.64914
2820.05 1.94116
2820.50 2.31527
2820.95 2.99392
2821.40 4.24083
2821.85 6.63857
2822.07 8.65794
2822.30 11.6527
2822.52 16.2625
2822.75 23.7054
2822.97 36.4870
2823.20 60.2445
2823.31 80.0776
2823.42 108.825
2823.54 152.058
2823.65 215.857
2823.82 365.609
2824.00 483.819
2824.18 409.276
2824.35 270.806
2824.54 173.596
2824.72 118.026
2824.90 85.4084
2825.09 65.0839
2825.27 51.6673
2825.45 42.3649
2825.82 30.6302
2826.18 23.7461
2826.55 19.3295
2827.28 14.1262
2828.01 11.2369
2828.75 9.43228
2829.48 8.21061
2830.21 7.33484
2831.67 6.16584
2833.14 5.42437
2834.60 4.91170
2836.06 4.53499
2838.99 4.01314
2841.92 3.66307
2847.77 3.20506
2853.63 2.89870
2859.48 2.66182
2871.19 2.27548
2882.90 1.92317
2888.76 1.74850
2894.61 1.58424
2900.47 1.47974
2903.39 1.50617
2906.32 1.68740
2909.25 2.29037
2910.71 2.99103
2912.18 4.32910
2912.91 5.45675
2913.64 7.13533
2914.37 9.73984
2915.10 13.9986
2915.84 21.5017
2916.57 36.0433
2916.93 48.6744
2917.30 67.9885
2917.67 98.4434
2918.03 146.623
2918.52 244.085
2919.00 317.454
2919.49 263.748
2919.97 171.156
2920.37 118.181
2920.77 84.5125
2921.16 62.9832
2921.56 48.7235
2922.36 31.8772
2923.15 22.7644
2923.95 17.2867
2924.75 13.7246
2926.34 9.48610
2927.93 7.10742
2929.52 5.60671
2932.70 3.83000
2935.89 2.87776
2937.48 2.66200
2939.07 2.75349
2940.66 3.58142
2941.46 4.67188
2942.25 6.83277
2942.65 8.68219
2943.05 11.4515
2943.45 15.7593
2943.85 22.8068
2944.24 35.1339
2944.64 58.6953
2944.84 78.8244
2945.04 109.073
2945.24 155.691
2945.44 227.290
2945.72 381.225
2946.00 499.793
2946.28 419.182
2946.57 274.954
2946.81 188.704
2947.05 134.507
2947.29 100.194
2947.53 77.6260
2948.01 51.1211
2948.49 36.8383
2948.98 28.2604
2949.46 22.6800
2950.42 16.0349
2951.38 12.3024
2952.35 9.95279
2954.27 7.17327
2956.20 5.56634
2958.13 4.48674
2961.98 3.01468
2965.84 1.90720
2967.77 1.41935
2969.69 1.01496
2970.66 0.895129
2971.62 0.907542
2972.10 1.00408
2972.58 1.20079
2973.07 1.54964
2973.55 2.13408
2974.03 3.10073
2974.51 4.70633
2974.99 7.43908
2975.47 12.2827
2975.71 16.1136
2975.96 21.4924
2976.20 29.2397
2976.44 40.7412
2976.68 58.4275
2976.92 86.7005
2977.16 133.565
2977.40 211.788
2977.70 368.295
2978.00 498.949
2978.30 431.212
2978.60 290.641
2978.92 188.258
2979.23 129.502
2979.55 94.7046
2979.87 72.9617
2980.18 58.4715
2980.50 48.3922
2981.13 35.5366
2981.77 27.8991
2982.40 22.9396
2983.66 17.0053
2984.93 13.6367
2986.20 11.4942
2988.73 8.94417
2991.26 7.49153
2993.79 6.56942
2998.85 5.57181
3003.91 5.45780
3006.45 5.90942
3008.98 7.08357
3011.51 9.86963
3012.77 12.5642
3014.04 17.0264
3015.30 24.8757
3016.57 39.8046
3017.20 52.4501
3017.84 71.2449
3018.47 99.7833
3019.10 143.067
3020.05 241.508
3021.00 319.977
3021.95 272.353
3022.90 181.614
3023.81 121.709
3024.71 85.7671
3025.61 63.8096
3026.52 49.7522
3028.33 33.5918
3030.14 25.0201
3031.94 19.8868
3033.75 16.5344
3037.37 12.4722
3040.99 10.0742
3042.80 9.17265
3044.61 8.36919
3046.41 7.59503
3047.32 7.19387
3048.22 6.76969
3049.13 6.32743
3049.58 6.12796
3050.03 6.01484
3050.48 6.21197
3050.71 6.64788
3050.94 7.67033
3051.16 10.1155
3051.28 12.5407
3051.39 16.6607
3051.50 24.1161
3051.56 30.2121
3051.61 38.8180
3051.67 51.7815
3051.73 71.1971
3051.78 102.121
3051.84 149.814
3051.92 255.141
3052.00 342.153
3052.08 294.825
3052.16 199.933
3052.24 136.526
3052.31 97.9916
3052.39 74.2559
3052.46 59.0923
3052.62 41.2568
3052.77 31.7706
3052.92 26.0257
3053.07 22.2945
3053.37 17.7883
3053.68 15.2259
3053.98 13.5930
3054.28 12.4671
3054.59 11.6449
3055.19 10.5218
3055.80 9.78473
3057.01 8.85699
3058.22 8.27511
3059.43 7.86086
3061.86 7.28244
3064.28 6.87505
3066.70 6.55956
3071.55 6.08267
3076.40 5.72576
3081.24 5.44159
3083.67 5.31949
3086.09 5.20982
3088.51 5.12357
3089.12 5.11690
3089.73 5.14236
3090.03 5.19651
3090.33 5.35881
3090.48 5.57356
3090.63 6.10147
3090.71 6.71262
3090.79 7.98990
3090.82 9.24260
3090.86 11.4156
3090.90 15.5131
3090.94 23.4978
3090.97 34.4999
3091.00 41.9464
3091.03 34.4811
3091.06 23.4726
3091.08 18.6663
3091.10 15.3396
3091.14 11.2397
3091.18 9.09181
3091.22 7.88736
3091.30 6.62723
3091.37 6.03264
3091.53 5.51019
3091.68 5.29267
3091.99 5.11322
3092.30 5.03849
3092.91 4.96833
3093.53 4.92896
3096.00 4.82882
3098.47 4.76211
3099.08 4.75996
3099.70 4.78911
3100.01 4.84426
3100.32 5.00465
3100.47 5.21566
3100.63 5.73325
3100.70 6.32674
3100.78 7.58430
3100.82 8.82292
3100.86 10.9081
3100.90 14.9309
3100.94 22.7242
3100.97 33.7161
3101.00 40.7725
3101.03 33.7029
3101.06 22.7061
3101.09 17.3714
3101.11 13.8492
3101.13 11.5104
3101.16 9.91897
3101.20 7.96718
3101.25 6.92739
3101.34 5.89357
3101.44 5.42945
3101.62 5.02829
3101.81 4.86557
3102.18 4.73176
3102.55 4.67495
3104.03 4.58591
3107.00 4.49445
3109.97 4.43176
3110.71 4.43057
3111.45 4.46143
3111.82 4.51881
3112.19 4.68773
3112.38 4.91262
3112.56 5.47811
3112.66 6.15149
3112.75 7.62248
3112.80 9.15397
3112.84 11.9011
3112.87 14.1712
3112.89 17.5019
3112.91 22.5103
3112.93 30.4126
3112.97 45.8423
3113.00 56.5205
3113.03 45.8452
3113.07 30.4152
3113.09 21.7339
3113.12 16.5002
3113.14 13.1794
3113.17 10.9980
3113.22 8.42210
3113.28 7.09269
3113.38 5.80941
3113.49 5.24273
3113.70 4.76807
3113.91 4.57775
3114.33 4.42461
3114.75 4.36135
3115.59 4.30186
3116.42 4.26790
3119.78 4.17712
3126.50 4.02923
3133.22 3.89460
3136.58 3.83643
3138.26 3.83342
3138.68 3.85456
3139.10 3.92521
3139.31 4.02331
3139.52 4.27868
3139.62 4.58905
3139.73 5.29853
3139.78 6.05714
3139.83 7.47938
3139.86 8.70634
3139.88 10.5834
3139.91 13.5602
3139.94 18.5343
3139.97 27.4119
3140.00 33.3051
3140.03 27.4095
3140.06 18.5304
3140.09 13.7007
3140.12 10.7604
3140.14 8.81689
3140.17 7.58996
3140.22 6.12645
3140.27 5.36452
3140.37 4.62263
3140.47 4.29251
3140.67 4.01411
3140.87 3.90151
3141.28 3.80949
3141.68 3.77048
3143.30 3.70788
3146.54 3.63777
3153.01 3.51058
3159.48 3.37915
3165.95 3.23437
3172.42 3.06036
3175.66 2.95169
3178.90 2.81559
3182.13 2.62913
3183.75 2.50216
3185.37 2.33679
3186.18 2.23331
3186.99 2.11143
3187.80 1.96824
3188.60 1.80711
3189.41 1.66607
3189.82 1.65657
3190.22 1.79583
3190.63 2.38488
3190.83 3.12461
3191.03 4.59324
3191.13 5.86851
3191.23 7.76643
3191.34 10.7180
3191.44 15.5261
3191.54 23.8441
3191.59 30.4102
3191.64 39.3899
3191.69 52.4848
3191.74 71.2726
3191.79 99.8459
3191.84 141.541
3191.92 241.691
3192.00 322.819
3192.08 275.557
3192.16 184.392
3192.22 132.327
3192.29 98.3954
3192.35 75.8626
3192.41 60.4753
3192.53 41.6820
3192.66 31.1526
3192.78 24.6610
3192.91 20.3595
3193.15 15.1457
3193.40 12.1733
3193.65 10.3040
3193.90 9.03153
3194.15 8.11683
3194.64 6.89852
3195.14 6.13374
3195.64 5.61108
3196.13 5.23223
3197.13 4.71977
3198.12 4.38874
3199.11 4.15591
3200.10 3.98205
3202.09 3.73556
3204.07 3.56502
3208.05 3.33219
3212.02 3.16845
3215.99 3.03925
3217.97 2.98523
3219.96 2.94492
3220.95 2.94009
3221.94 2.97612
3222.44 3.04809
3222.94 3.26511
3223.19 3.55862
3223.31 3.83838
3223.43 4.31979
3223.56 5.24961
3223.62 6.07575
3223.68 7.40010
3223.74 9.70567
3223.81 14.2009
3223.84 18.1829
3223.87 24.4395
3223.90 34.7148
3223.93 52.4375
3223.97 82.2962
3224.00 102.047
3224.04 82.2928
3224.07 52.4322
3224.09 39.3296
3224.11 30.4444
3224.16 19.6978
3224.20 13.8856
3224.24 10.6234
3224.28 8.55271
3224.33 7.22251
3224.41 5.62257
3224.50 4.75025
3224.58 4.22410
3224.75 3.65094
3224.92 3.35802
3225.09 3.18935
3225.43 3.00878
3226.11 2.86215
3226.78 2.79790
3228.14 2.72956
3229.50 2.68403
3234.92 2.54647
3240.35 2.44065
3245.77 2.39871
3251.20 2.56088
3253.91 2.85898
3256.62 3.53509
3259.33 5.14606
3260.69 6.76314
3262.05 9.56712
3263.40 14.8284
3264.08 19.2474
3264.76 25.8410
3265.44 36.0938
3266.11 52.8009
3266.79 81.3143
3267.47 130.976
3268.24 221.001
3269.00 291.965
3269.77 247.007
3270.53 163.475
3271.18 113.416
3271.83 81.7702
3272.48 61.6346
3273.13 48.3366
3274.43 32.6440
3275.73 24.1439
3277.03 19.0239
3278.33 15.7025
3278.98 14.4800
3279.63 13.5167
3279.96 13.1764
3280.28 13.0812
3280.44 13.3036
3280.52 13.5932
3280.61 14.1379
3280.69 15.2111
3280.73 16.1555
3280.77 17.5682
3280.81 19.9093
3280.85 23.8482
3280.89 31.3695
3280.93 46.1407
3280.97 66.8150
3281.00 80.5230
3281.04 66.7139
3281.07 45.9567
3281.10 33.2751
3281.14 25.8884
3281.17 21.5036
3281.20 18.7599
3281.27 15.6975
3281.33 14.1249
3281.40 13.2044
3281.47 12.6104
3281.60 11.8950
3281.86 11.1640
3282.12 10.7429
3282.65 10.1648
3283.18 9.71796
3284.23 8.99347
3285.29 8.40515
3287.39 7.48756
3289.50 6.80262
3291.61 6.27165
3293.72 5.85097
3294.77 5.67551
3295.82 5.52969
3296.35 5.47992
3296.88 5.48156
3297.14 5.54558
3297.40 5.76797
3297.54 6.06851
3297.67 6.78992
3297.73 7.59180
3297.80 9.20168
3297.83 10.6680
3297.87 13.0351
3297.90 17.0622
3297.93 24.0155
3297.97 35.1721
3298.00 42.8462
3298.04 35.1667
3298.07 24.0023
3298.10 17.3648
3298.13 13.3846
3298.16 10.9776
3298.19 9.45349
3298.26 7.74030
3298.32 6.86313
3298.44 6.04047
3298.57 5.67714
3298.81 5.36171
3299.06 5.22105
3299.56 5.07862
3300.05 4.99192
3302.04 4.75691
3304.02 4.57127
3306.00 4.40897
3309.97 4.13380
3311.95 4.02539
3312.95 4.01724
3313.19 4.05049
3313.44 4.15908
3313.57 4.30351
3313.69 4.65436
3313.75 5.04526
3313.81 5.83872
3313.88 7.76824
3313.91 9.84480
3313.94 13.5151
3313.97 19.3001
3314.00 23.1196
3314.03 19.2902
3314.06 13.5002
3314.10 9.32599
3314.14 7.20831
3314.17 6.08123
3314.21 5.42912
3314.28 4.75464
3314.36 4.43728
3314.51 4.15042
3314.65 4.02879
3315.24 3.87256
3316.42 3.77670
3318.78 3.65241
3323.50 3.44087
3328.21 3.25754
3329.39 3.22101
3330.57 3.20224
3331.16 3.21597
3331.75 3.29233
3332.05 3.41171
3332.34 3.74160
3332.49 4.16361
3332.64 5.17592
3332.71 6.32140
3332.78 8.64880
3332.82 10.8640
3332.86 14.5796
3332.90 21.2496
3332.93 33.2729
3332.97 51.6513
3333.00 63.4845
3333.03 51.6521
3333.07 33.2721
3333.10 21.7386
3333.14 15.1147
3333.17 11.3288
3333.21 9.02988
3333.28 6.54941
3333.35 5.34186
3333.49 4.23034
3333.63 3.76258
3333.91 3.37712
3334.18 3.22246
3334.74 3.09229
3335.30 3.03158
3336.42 2.96126
3337.53 2.91026
3342.00 2.74199
3344.23 2.66653
3346.46 2.60513
3347.58 2.59339
3348.69 2.63526
3349.25 2.72790
3349.53 2.82838
3349.81 3.01542
3350.09 3.40892
3350.23 3.78787
3350.37 4.43826
3350.51 5.71198
3350.58 6.85322
3350.65 8.66431
3350.72 11.8858
3350.78 18.1360
3350.82 23.8070
3350.85 32.8438
3350.89 47.9568
3350.92 73.5231
3350.96 116.332
3351.00 144.688
3351.04 116.378
3351.08 73.5786
3351.12 44.8064
3351.16 29.5476
3351.20 20.7683
3351.24 15.6368
3351.28 12.2796
3351.32 10.0794
3351.40 7.37507
3351.48 5.87043
3351.56 4.95074
3351.72 3.93703
3351.89 3.41340
3352.05 3.10886
3352.37 2.78436
3352.69 2.61961
3353.02 2.52207
3353.66 2.40979
3354.96 2.29478
3356.25 2.22035
3358.84 2.09927
3361.43 1.98726
3366.60 1.77073
3371.78 1.58503
3376.95 1.54793
3379.54 1.71268
3382.13 2.22013
3383.42 2.74229
3384.72 3.60873
3386.01 5.08491
3387.31 7.71730
3388.60 12.7494
3389.25 17.0163
3389.89 23.4038
3390.54 33.3393
3391.19 49.4750
3391.83 76.7990
3392.48 123.763
3393.24 212.894
3394.00 285.892
3394.76 245.381
3395.52 164.346
3396.00 125.910
3396.47 98.1614
3397.42 63.9832
3398.37 45.3184
3399.33 34.2035
3400.28 27.0643
3401.23 22.1894
3403.13 16.0819
3405.03 12.4793
3405.98 11.2170
3406.93 10.2546
3407.89 9.71219
3408.36 9.75648
3408.84 10.2866
3409.31 11.9714
3409.55 13.8029
3409.79 17.0572
3410.03 23.2937
3410.26 36.5368
3410.38 48.9811
3410.50 69.4177
3410.62 104.628
3410.74 165.920
3410.87 275.118
3411.00 360.225
3411.13 304.583
3411.26 202.660
3411.37 143.576
3411.48 105.571
3411.58 81.0320
3411.69 64.7708
3411.90 45.1538
3412.12 34.4505
3412.33 27.9077
3412.54 23.6259
3412.97 18.4402
3413.40 15.4793
3413.82 13.5821
3414.68 11.2903
3415.53 9.93606
3416.39 9.02073
3418.09 7.81838
3419.80 7.02697
3421.51 6.45718
3422.36 6.24383
3423.22 6.11961
3423.64 6.15145
3424.07 6.41795
3424.28 6.84208
3424.39 7.25841
3424.50 7.96852
3424.60 9.33197
3424.66 10.5041
3424.71 12.3260
3424.76 15.4278
3424.82 20.9782
3424.84 25.6418
3424.87 32.1886
3424.90 42.3327
3424.92 56.9411
3424.96 88.1781
3425.00 108.369
3425.04 88.1828
3425.08 56.9350
3425.10 41.8586
3425.13 31.5573
3425.16 24.7887
3425.19 20.3590
3425.24 14.8309
3425.30 11.8769
3425.35 10.0777
3425.41 8.94247
3425.52 7.61634
3425.63 6.89319
3425.74 6.45597
3425.96 5.96778
3426.41 5.53372
3426.85 5.31905
3427.73 5.05935
3428.62 4.86972
3430.39 4.55415
3432.16 4.27509
3435.71 3.76630
3439.25 3.29156
3442.79 2.86255
3444.56 2.71052
3446.33 2.70232
3448.11 3.13191
3448.99 3.79073
3449.88 5.19198
3450.32 6.44209
3450.76 8.36581
3451.21 11.4400
3451.65 16.6122
3452.09 25.9463
3452.31 33.5447
3452.54 44.4844
3452.76 60.9160
3452.98 86.2561
3453.20 126.732
3453.42 191.887
3453.71 324.233
3454.00 428.487
3454.29 362.431
3454.58 239.801
3454.85 161.380
3455.12 113.608
3455.38 84.1235
3455.65 65.1390
3456.18 43.0996
3456.72 31.3839
3457.25 24.3616
3457.78 19.7986
3458.85 14.3206
3459.92 11.1852
3460.98 9.14784
3463.12 6.55796
3465.25 4.78326
3466.32 4.01353
3467.38 3.30444
3468.45 2.78030
3468.98 2.75671
3469.52 3.20600
3469.78 3.81340
3470.05 4.92090
3470.32 6.92254
3470.58 10.6063
3470.72 13.5948
3470.85 17.8003
3470.98 23.8898
3471.12 32.9463
3471.25 46.9718
3471.38 69.1103
3471.52 105.371
3471.65 165.303
3471.83 293.361
3472.00 404.819
3472.18 356.887
3472.35 245.587
3472.56 154.950
3472.77 105.600
3472.97 77.4010
3473.18 60.2150
3473.39 48.8984
3473.60 41.1001
3474.01 31.2059
3474.43 25.3086
3474.84 21.4699
3475.67 16.8201
3476.50 14.1385
3477.33 12.4010
3478.98 10.2794
3480.64 9.01931
3482.30 8.17270
3485.62 7.07576
3488.93 6.35720
3492.25 5.79706
3493.91 5.52956
3494.74 5.38830
3495.57 5.23591
3496.40 5.06951
3496.81 4.98540
3497.22 4.91697
3497.64 4.92021
3497.85 5.00782
3498.05 5.25446
3498.26 5.91344
3498.37 6.61016
3498.47 7.83813
3498.57 10.2137
3498.68 15.2242
3498.73 19.9774
3498.78 27.7851
3498.83 41.2071
3498.88 64.1499
3498.94 107.090
3499.00 142.125
3499.06 122.360
3499.12 83.2152
3499.16 63.4210
3499.20 49.8433
3499.24 40.1153
3499.28 33.3775
3499.36 24.6773
3499.43 19.6103
3499.51 16.4084
3499.59 14.2511
3499.75 11.6077
3499.91 10.0717
3500.07 9.09211
3500.38 7.93728
3500.70 7.28376
3501.01 6.86750
3501.64 6.36348
3502.27 6.06354
3502.90 5.85945
3504.16 5.58768
3505.43 5.40317
3506.69 5.26186
3509.21 5.04513
3514.26 4.73200
3519.30 4.49175
3529.39 4.10883
3539.48 3.78652
3549.58 3.48389
3559.67 3.17240
3564.71 3.00540
3569.76 2.83166
3572.28 2.75053
3574.80 2.70345
3576.07 2.73353
3576.70 2.79188
3577.33 2.92190
3577.96 3.22958
3578.27 3.54257
3578.59 4.10470
3578.90 5.24494
3579.06 6.29688
3579.22 8.02552
3579.38 11.1794
3579.46 13.7992
3579.53 17.6491
3579.61 23.7543
3579.69 33.9299
3579.77 52.0001
3579.85 84.6170
3579.92 134.870
3580.00 169.283
3580.08 136.628
3580.15 87.1355
3580.21 60.8041
3580.27 44.1238
3580.33 33.2862
3580.39 26.0317
3580.50 17.3524
3580.62 12.7130
3580.74 9.92836
3580.85 8.15969
3581.09 6.09849
3581.32 4.99351
3581.55 4.33144
3582.02 3.60802
3582.48 3.24038
3582.95 3.02883
3583.88 2.81619
3584.81 2.73996
3585.74 2.74767
3587.61 3.02388
3589.47 3.95683
3590.40 4.99632
3591.33 6.89814
3592.26 10.6555
3592.73 13.9374
3593.20 18.9760
3593.66 27.1164
3594.13 40.9946
3594.59 66.0819
3595.06 112.789
3595.53 191.571
3596.00 255.007
3596.47 217.792
3596.94 145.573
3597.27 108.346
3597.60 82.5718
3597.93 64.8386
3598.25 52.3915
3598.91 36.7638
3599.57 27.7811
3600.22 22.1556
3600.88 18.3898
3602.19 13.7832
3603.50 11.1432
3604.81 9.46489
3607.44 7.48601
3610.06 6.37095
3612.69 5.65930
3614.00 5.39536
3615.31 5.18505
3615.97 5.11075
3616.62 5.09534
3616.95 5.15807
3617.28 5.40158
3617.44 5.74501
3617.61 6.61876
3617.69 7.63903
3617.77 9.83495
3617.81 11.9943
3617.85 15.7855
3617.89 23.0655
3617.91 29.3743
3617.93 37.9607
3617.97 57.8820
3618.00 71.1685
3618.03 57.8891
3618.07 37.9636
3618.09 27.3200
3618.12 20.7826
3618.14 16.5455
3618.17 13.7154
3618.22 10.3600
3618.27 8.55410
3618.37 6.78602
3618.47 5.99868
3618.67 5.31887
3618.87 5.03457
3619.27 4.78604
3619.67 4.66565
3620.48 4.52362
3621.28 4.42237
3622.89 4.25842
3624.50 4.11890
3626.11 3.99731
3627.71 3.90323
3628.52 3.88513
3629.32 3.94349
3629.72 4.07283
3630.13 4.46902
3630.33 5.00145
3630.43 5.50664
3630.53 6.35549
3630.63 7.97570
3630.68 9.36784
3630.73 11.5378
3630.78 15.2605
3630.83 21.9898
3630.86 27.5850
3630.88 35.8400
3630.91 48.3344
3630.93 67.6413
3630.97 105.841
3631.00 131.711
3631.04 105.859
3631.07 67.6598
3631.11 41.1934
3631.15 27.3190
3631.19 19.4765
3631.22 14.9599
3631.26 12.0291
3631.30 10.1240
3631.38 7.81809
3631.45 6.52162
3631.53 5.74065
3631.68 4.86855
3631.84 4.41952
3631.99 4.15580
3632.29 3.86796
3632.91 3.61855
3633.52 3.49405
3634.74 3.32920
3635.97 3.18278
3637.19 3.02104
3637.81 2.93009
3638.42 2.83597
3639.03 2.76452
3639.34 2.77022
3639.64 2.86655
3639.95 3.22167
3640.10 3.64814
3640.25 4.47118
3640.41 6.18564
3640.48 7.76021
3640.56 10.2387
3640.64 14.4710
3640.71 22.0016
3640.75 28.2358
3640.79 36.8877
3640.83 49.3186
3640.87 67.1136
3640.93 113.628
3641.00 151.517
3641.07 130.034
3641.13 87.6017
3641.19 64.0014
3641.24 48.4670
3641.29 37.8511
3641.34 30.6998
3641.44 21.8065
3641.54 16.8332
3641.64 13.7183
3641.74 11.6670
3641.94 9.15562
3642.14 7.71635
3642.34 6.80854
3642.74 5.73972
3643.15 5.13788
3643.55 4.75537
3644.35 4.29385
3645.16 4.02039
3645.96 3.83470
3647.57 3.58674
3649.18 3.41553
3650.79 3.27966
3654.01 3.05173
3657.23 2.83370
3658.84 2.71368
3660.45 2.57498
3662.06 2.40078
3662.86 2.29127
3663.67 2.15983
3664.47 2.00442
3664.87 1.92635
3665.28 1.87435
3665.68 1.93790
3665.88 2.10561
3666.08 2.52233
3666.28 3.57273
3666.38 4.66550
3666.48 6.57350
3666.53 8.11213
3666.58 10.2405
3666.63 13.3206
3666.68 17.9320
3666.74 25.2996
3666.79 37.1424
3666.84 57.3694
3666.89 93.4517
3666.94 159.209
3667.00 212.336
3667.06 181.748
3667.11 121.638
3667.18 76.5942
3667.24 51.7382
3667.31 37.5557
3667.37 28.8803
3667.43 23.2211
3667.50 19.3268
3667.63 14.4721
3667.75 11.6069
3667.88 9.77028
3668.14 7.60881
3668.39 6.39684
3668.65 5.63788
3668.90 5.12019
3669.16 4.74586
3669.67 4.24078
3670.18 3.91614
3671.20 3.51683
3672.22 3.27352
3673.24 3.10304
3675.28 2.86422
3677.33 2.68784
3679.37 2.53811
3683.45 2.26090
3687.54 1.95743
3689.58 1.77327
3691.62 1.54729
3693.66 1.25288
3694.68 1.06976
3695.71 0.864268
3696.73 0.677930
3697.24 0.651741
3697.75 0.792098
3698.00 1.01132
3698.26 1.43820
3698.51 2.26254
3698.64 2.94195
3698.77 3.90551
3698.90 5.32228
3699.02 7.44807
3699.15 10.7505
3699.28 16.0628
3699.41 25.2601
3699.53 42.1153
3699.60 56.0866
3699.66 76.3447
3699.73 106.195
3699.79 149.262
3699.90 257.917
3700.00 346.017
3700.11 296.779
3700.21 199.146
3700.29 144.505
3700.37 107.810
3700.45 83.2425
3700.53 66.3644
3700.69 45.6240
3700.85 33.9335
3701.01 26.6962
3701.17 21.8857
3701.49 16.0490
3701.81 12.7073
3702.13 10.5959
3702.77 8.11384
3703.41 6.72806
3704.05 5.85657
3705.33 4.83032
3706.60 4.25171
3707.88 3.88544
3710.44 3.46308
3715.55 3.18944
3720.67 3.43752
3725.78 4.54833
3728.34 5.81118
3730.89 8.10341
3733.45 12.5356
3734.73 16.3225
3736.01 22.0214
3737.29 30.9631
3738.56 45.6295
3739.84 70.8242
3741.12 114.977
3742.56 195.454
3744.00 260.154
3745.44 222.083
3746.88 148.278
3747.82 112.217
3748.76 86.6479
3750.64 55.7734
3752.52 39.2724
3754.39 29.5971
3756.27 23.4446
3758.15 19.2794
3761.91 14.1059
3765.66 11.0719
3769.42 9.08814
3773.18 7.68622
3775.06 7.15854
3775.53 7.06915
3776.00 7.05645
3776.23 7.14450
3776.47 7.46980
3776.58 7.91433
3776.70 8.97721
3776.76 10.1496
3776.82 12.4162
3776.85 14.5119
3776.88 17.7202
3776.91 22.9900
3776.93 31.8132
3776.97 46.9011
3777.00 56.9931
3777.03 46.8834
3777.07 31.7786
3777.10 22.2598
3777.13 16.8579
3777.16 13.6995
3777.19 11.7477
3777.26 9.60240
3777.32 8.52462
3777.45 7.51897
3777.58 7.07787
3777.84 6.68138
3778.09 6.49113
3778.61 6.27126
3779.12 6.11687
3781.17 5.63383
3785.28 4.82733
3789.39 4.10817
3793.49 3.43105
3797.60 2.78512
3801.70 2.25624
3803.76 2.16537
3805.81 2.45143
3806.84 2.92101
3807.86 3.86355
3808.38 4.67099
3808.63 5.22777
3808.89 5.95608
3809.15 7.01111
3809.28 7.77678
3809.40 8.87216
3809.53 10.6735
3809.60 12.1022
3809.66 14.2389
3809.72 17.7180
3809.79 24.0360
3809.82 29.3147
3809.85 37.1936
3809.88 49.3419
3809.92 68.4141
3809.96 104.511
3810.00 128.893
3810.04 104.930
3810.08 69.2115
3810.11 52.8135
3810.14 41.6983
3810.19 28.8320
3810.25 22.2971
3810.30 18.8287
3810.36 16.7998
3810.41 15.6212
3810.52 14.5207
3810.63 14.2884
3810.74 14.4981
3810.96 15.6423
3811.39 19.7059
3811.83 25.9997
3812.26 35.3331
3812.70 49.2830
3813.14 70.3924
3813.57 102.173
3814.29 183.808
3815.00 257.751
3815.72 230.871
3816.43 161.024
3817.15 109.889
3817.87 78.9238
3818.59 59.9298
3819.31 47.6699
3820.03 39.3349
3820.74 33.4065
3822.18 25.6925
3823.62 20.9882
3825.06 17.8791
3825.78 16.7104
3826.50 15.7606
3826.86 15.3955
3827.21 15.2100
3827.39 15.3112
3827.57 15.8603
3827.66 16.6343
3827.75 18.4343
3827.80 20.2844
3827.84 23.6437
3827.89 30.3718
3827.91 36.0937
3827.93 44.7215
3827.97 62.9733
3828.00 75.4387
3828.03 62.9269
3828.07 44.6147
3828.10 33.8623
3828.13 27.4946
3828.16 23.4596
3828.19 20.9656
3828.24 18.0648
3828.30 16.5693
3828.42 15.0875
3828.54 14.3922
3828.77 13.6985
3829.01 13.3106
3829.48 12.7925
3829.95 12.3938
3830.89 11.7346
3831.83 11.1794
3833.71 10.2689
3835.59 9.54556
3839.35 8.45768
3843.10 7.67002
3850.62 6.58024
3858.14 5.83185
3873.18 4.77948
3888.21 3.95202
3903.25 3.13472
3910.77 2.67672
3918.29 2.15289
3925.81 1.54302
3929.57 1.21781
3933.32 0.931940
3935.20 0.849368
3937.08 0.871002
3938.96 1.11401
3939.90 1.39211
3940.84 1.84884
3941.78 2.58663
3942.72 3.77873
3943.66 5.73657
3944.60 9.04724
3945.54 14.9194
3946.48 25.9903
3946.95 35.1682
3947.42 48.4732
3947.89 68.0180
3948.36 96.5759
3949.18 173.176
3950.00 241.322
3950.82 214.255
3951.64 147.927
3952.36 104.590
3953.09 76.8078
3953.81 58.9293
3954.53 46.9909
3955.97 32.6749
3957.42 24.7458
3958.86 19.8743
3960.31 16.6710
3963.19 12.9814
3966.08 11.6489
3967.53 11.9759
3968.97 13.4949
3970.42 17.4783
3971.14 21.3617
3971.86 27.7185
3972.58 38.6031
3973.30 58.4413
3974.03 97.4223
3974.39 130.531
3974.75 178.179
3975.37 300.687
3976.00 399.773
3976.63 342.240
3977.25 230.036
3977.81 159.278
3978.37 115.245
3978.93 87.4960
3979.48 69.3353
3980.60 47.9746
3981.71 36.4017
3982.83 29.3736
3983.94 24.7459
3986.17 19.1274
3988.40 15.8857
3990.63 13.7897
3995.09 11.2326
3999.55 9.71137
4004.01 8.68273
4006.24 8.27994
4008.47 7.93496
4009.58 7.78744
4010.70 7.67576
4011.25 7.65905
4011.81 7.74252
4012.09 7.91149
4012.37 8.40162
4012.51 9.03373
4012.58 9.60783
4012.65 10.5264
4012.72 12.1741
4012.79 15.4031
4012.82 18.3606
4012.86 23.1175
4012.89 31.1722
4012.93 45.0611
4012.96 67.7595
4013.00 82.8539
4013.04 67.7926
4013.07 45.0960
4013.11 32.4335
4013.14 24.6045
4013.17 19.7319
4013.20 16.5800
4013.26 12.9636
4013.32 11.0780
4013.38 9.98157
4013.45 9.29013
4013.57 8.49982
4013.82 7.82800
4014.07 7.54719
4014.56 7.29527
4015.06 7.16691
4016.05 7.00424
4017.04 6.88000
4019.02 6.66660
4021.00 6.47554
4022.98 6.30147
4024.96 6.15459
4025.95 6.10942
4026.94 6.13796
4027.44 6.24852
4027.68 6.37603
4027.93 6.61657
4028.18 7.12694
4028.30 7.61448
4028.43 8.44166
4028.55 10.0329
4028.61 11.4291
4028.67 13.6357
4028.74 17.3958
4028.80 24.4785
4028.83 30.5247
4028.86 39.6710
4028.89 53.9449
4028.92 75.5159
4028.96 117.312
4029.00 145.279
4029.04 117.354
4029.08 75.5640
4029.12 51.2193
4029.15 36.6231
4029.19 27.5112
4029.22 21.8966
4029.29 15.4736
4029.36 12.1916
4029.43 10.3092
4029.51 9.13469
4029.65 7.80860
4029.79 7.11556
4029.93 6.70647
4030.22 6.26217
4030.78 5.89269
4031.35 5.72677
4032.49 5.54499
4033.62 5.41977
4035.89 5.20872
4038.16 5.00908
4042.70 4.59871
4047.24 4.14029
4051.78 3.59511
4054.05 3.28017
4056.32 2.94878
4057.46 2.79558
4058.59 2.68254
4059.73 2.67608
4060.86 2.94761
4062.00 4.00142
4062.56 5.26654
4063.13 7.67081
4063.41 9.66356
4063.70 12.5595
4063.98 16.8892
4064.27 23.5659
4064.55 34.3926
4064.83 52.8147
4065.12 85.8642
4065.40 146.526
4065.70 254.207
4066.00 344.805
4066.30 299.180
4066.60 202.867
4066.79 157.285
4066.97 124.017
4067.34 82.4828
4067.71 59.5091
4068.08 45.7396
4068.45 36.8175
4068.82 30.7081
4069.56 23.0634
4070.30 18.5655
4071.04 15.6554
4072.52 12.1439
4074.00 10.1041
4075.48 8.75211
4078.43 6.99313
4081.39 5.79783
4082.87 5.32727
4084.35 4.98844
4085.83 4.99972
4086.57 5.35635
4087.31 6.29212
4088.05 8.56097
4088.42 10.7543
4088.78 14.3230
4089.15 20.4003
4089.52 31.2344
4089.89 51.7999
4090.08 68.6188
4090.26 91.9721
4090.63 162.478
4091.00 225.733
4091.37 201.418
4091.74 140.602
4092.02 104.721
4092.31 80.3367
4092.60 63.8696
4092.88 52.4975
4093.45 38.3207
4094.02 30.1899
4094.59 25.0694
4095.17 21.6082
4096.31 17.3000
4097.45 14.7619
4098.59 13.1054
4100.88 11.0790
4103.16 9.88158
4105.45 9.08427
4110.01 8.06924
4114.58 7.43084
4119.15 6.97711
4128.29 6.34167
4137.43 5.87604
4146.57 5.46072
4151.13 5.23186
4153.42 5.09679
4155.70 4.93297
4157.99 4.71346
4159.13 4.56516
4160.27 4.37119
4161.41 4.10131
4161.99 3.92272
4162.56 3.70659
4163.13 3.46483
4163.41 3.36387
4163.70 3.34518
4163.98 3.60624
4164.13 4.02404
4164.27 4.89959
4164.41 6.81180
4164.48 8.57711
4164.56 11.3169
4164.63 15.8593
4164.70 23.5092
4164.77 37.1253
4164.84 61.8758
4164.92 109.213
4165.00 151.925
4165.04 151.059
4165.08 135.767
4165.16 95.2790
4165.25 62.6391
4165.34 44.4228
4165.44 33.7950
4165.53 27.1652
4165.62 22.7232
4165.71 19.6558
4165.89 15.7264
4166.07 13.3575
4166.26 11.8130
4166.62 9.93719
4166.99 8.85276
4167.35 8.15359
4167.72 7.66702
4168.08 7.31009
4168.81 6.81829
4169.54 6.49524
4171.00 6.09050
4172.46 5.84032
4173.91 5.66472
4176.83 5.42182
4179.75 5.24841
4182.67 5.10787
4188.50 4.86860
4194.34 4.63916
4197.25 4.51391
4200.17 4.37041
4203.09 4.19132
4204.55 4.07818
4206.01 3.93947
4207.47 3.76456
4208.19 3.66317
4208.92 3.56352
4209.65 3.51685
4210.02 3.57363
4210.38 3.79463
4210.75 4.47221
4210.93 5.23961
4211.11 6.68184
4211.29 9.64904
4211.39 12.3114
4211.48 16.5266
4211.57 23.5761
4211.66 36.1929
4211.70 46.4251
4211.75 60.5841
4211.80 81.3261
4211.84 110.264
4211.92 185.791
4212.00 246.263
4212.08 209.610
4212.16 140.431
4212.25 87.3986
4212.35 59.0518
4212.44 42.9080
4212.53 33.2279
4212.62 26.8826
4212.72 22.5837
4212.90 17.1845
4213.09 14.0436
4213.27 12.0359
4213.64 9.67268
4214.01 8.35741
4214.38 7.53219
4214.75 6.97043
4215.12 6.56470
4215.86 6.01831
4216.60 5.66582
4217.34 5.41712
4218.08 5.22982
4219.56 4.95923
4221.04 4.76358
4224.00 4.46727
4226.96 4.20424
4228.44 4.06198
4229.92 3.89869
4231.40 3.70069
4232.14 3.58630
4232.88 3.47019
4233.62 3.39811
4233.99 3.43408
4234.36 3.62293
4234.73 4.24192
4234.92 4.96208
4235.10 6.33417
4235.29 9.16948
4235.38 11.7611
4235.47 15.8452
4235.56 22.8024
4235.66 35.2254
4235.70 45.2207
4235.75 59.4199
4235.79 79.8582
4235.84 109.161
4235.92 184.382
4236.00 244.908
4236.08 208.830
4236.16 140.111
4236.25 87.3142
4236.35 58.8275
4236.44 42.8066
4236.53 33.1004
4236.63 26.8100
4236.72 22.5014
4236.90 17.1444
4237.09 14.0051
4237.28 11.9976
4237.65 9.63745
4238.02 8.31804
4238.39 7.49149
4238.76 6.92679
4239.13 6.51987
4239.88 5.97123
4240.62 5.61812
4241.36 5.37019
4242.10 5.18517
4243.59 4.92230
4245.08 4.73952
4248.05 4.48807
4251.02 4.30931
4253.99 4.16693
4256.96 4.05865
4257.70 4.04855
4258.45 4.07462
4258.82 4.13489
4259.19 4.31984
4259.38 4.56878
4259.56 5.19474
4259.65 5.93672
4259.75 7.57107
4259.79 9.24764
4259.84 12.2258
4259.86 14.6622
4259.89 18.2022
4259.91 23.4604
4259.93 31.5124
4259.97 47.9426
4260.00 59.1765
4260.03 47.9660
4260.07 31.5396
4260.10 21.6537
4260.13 15.9046
4260.16 12.4162
4260.19 10.2016
4260.25 7.67838
4260.31 6.41327
4260.43 5.22355
4260.55 4.70800
4260.79 4.27976
4261.04 4.10713
4261.52 3.96350
4262.00 3.89900
4263.94 3.78012
4267.81 3.62586
4275.54 3.33765
4283.28 3.04268
4291.02 2.75253
4294.89 2.63186
4298.76 2.56513
4302.63 2.62904
4306.50 3.01836
4308.43 3.48062
4310.36 4.29817
4312.30 5.76476
4314.23 8.49910
4316.17 13.9691
4317.14 18.7685
4318.10 26.1608
4319.07 38.0563
4320.04 58.2089
4321.00 94.2206
4321.97 160.362
4322.99 275.575
4324.00 369.208
4325.02 314.970
4326.03 207.323
4326.50 167.225
4326.96 133.777
4327.20 118.618
4327.43 103.855
4327.55 96.6935
4327.66 90.8766
4327.72 89.7809
4327.78 92.4285
4327.84 104.633
4327.90 142.640
4327.92 176.675
4327.95 223.422
4328.00 325.131
4328.05 337.836
4328.10 283.467
4328.15 237.769
4328.20 204.423
4328.25 181.017
4328.29 164.458
4328.38 142.138
4328.48 127.908
4328.66 110.256
4328.85 99.0933
4329.22 84.4695
4329.59 74.5239
4330.34 60.7835
4331.08 51.3738
4332.57 39.0889
4334.06 31.4673
4335.55 26.3391
4337.04 22.6904
4340.02 17.9043
4343.00 14.9450
4345.97 12.9536
4348.95 11.5420
4349.70 11.2652
4350.44 11.0442
4350.81 10.9874
4351.19 11.0599
4351.37 11.2527
4351.56 11.8221
4351.65 12.5257
4351.74 14.0886
4351.79 15.6840
4351.84 18.4860
4351.88 24.1694
4351.91 29.0071
4351.93 36.4122
4351.97 52.0217
4352.00 62.3940
4352.04 52.0210
4352.07 36.3948
4352.09 28.9735
4352.12 24.1192
4352.16 18.4018
4352.21 15.5227
4352.26 13.9398
4352.35 12.3147
4352.44 11.5503
4352.63 10.8607
4352.82 10.5486
4353.19 10.2381
4353.56 10.0564
4354.30 9.79660
4355.05 9.58380
4356.54 9.21267
4358.02 8.88432
4363.98 7.82488
4369.93 7.00788
4375.89 6.30580
4381.84 5.62250
4384.82 5.25227
4387.79 4.83175
4390.77 4.31599
4392.26 3.99900
4393.75 3.62641
4395.24 3.20016
4395.98 2.99529
4396.72 2.87235
4397.47 3.07214
4397.84 3.53019
4398.21 4.61074
4398.40 5.61392
4398.58 7.18302
4398.77 9.70722
4398.96 13.9342
4399.14 21.4110
4399.33 35.6275
4399.42 47.5721
4399.51 65.1413
4399.61 91.4320
4399.70 130.736
4399.85 228.459
4400.00 311.372
4400.15 272.200
4400.30 185.760
4400.43 132.155
4400.56 97.5320
4400.69 75.1253
4400.81 60.1119
4401.07 42.0789
4401.33 32.0935
4401.58 25.9568
4401.84 21.8843
4402.35 16.9144
4402.86 14.0498
4403.37 12.2083
4404.40 9.99449
4405.42 8.70458
4406.45 7.84924
4408.49 6.74783
4410.54 6.01980
4412.59 5.45721
4416.68 4.52247
4418.73 4.08231
4420.78 3.64237
4422.82 3.21317
4424.87 2.86340
4426.92 2.86405
4427.94 3.27319
4428.97 4.40557
4429.48 5.51260
4429.99 7.27802
4430.50 10.1450
4431.01 14.9341
4431.53 23.3270
4432.04 38.8927
4432.29 51.6034
4432.55 69.7861
4432.81 96.0864
4433.06 133.811
4433.53 240.124
4434.00 336.074
4434.47 300.216
4434.94 209.004
4435.24 163.556
4435.54 130.191
4436.13 88.3936
4436.72 65.0774
4437.32 50.9947
4437.91 41.8151
4438.50 35.4935
4439.69 27.4915
4440.88 22.7383
4442.06 19.6348
4444.44 15.8754
4446.81 13.7046
4449.19 12.3011
4450.37 11.7747
4451.56 11.3400
4452.15 11.1633
4452.75 11.0454
4453.04 11.0493
4453.34 11.2077
4453.49 11.4739
4453.64 12.1721
4453.71 12.9850
4453.79 14.6975
4453.82 16.3334
4453.86 19.1082
4453.90 24.1671
4453.93 33.9837
4453.97 48.1446
4454.00 57.4045
4454.03 48.1507
4454.07 33.9781
4454.10 25.9523
4454.12 21.0012
4454.15 17.9719
4454.18 16.0912
4454.24 13.8689
4454.30 12.7375
4454.41 11.6506
4454.53 11.1624
4454.76 10.7269
4454.99 10.5229
4455.45 10.3012
4455.91 10.1560
4457.75 9.74366
4459.59 9.42111
4461.42 9.14750
4465.10 8.70130
4468.78 8.35002
4476.14 7.82616
4483.50 7.44873
4490.85 7.15938
4498.21 6.92758
4501.89 6.82789
4505.57 6.73874
4509.25 6.67331
4510.17 6.67406
4511.09 6.71329
4511.55 6.78363
4512.01 6.98981
4512.24 7.26423
4512.47 7.96411
4512.58 8.80255
4512.70 10.6893
4512.75 12.6699
4512.81 16.3130
4512.84 19.4566
4512.87 24.0037
4512.90 31.2805
4512.92 42.5060
4512.96 63.8790
4513.00 78.5034
4513.04 63.9218
4513.08 42.5581
4513.12 27.1537
4513.16 19.2326
4513.21 14.9831
4513.25 12.5564
4513.34 9.96906
4513.43 8.75295
4513.60 7.67255
4513.78 7.22465
4514.13 6.86374
4514.48 6.72170
4515.18 6.60539
4515.87 6.55378
4518.67 6.46013
4524.27 6.34248
4535.46 6.12756
4541.06 6.00664
4543.86 5.93424
4546.66 5.84521
4549.46 5.72363
4550.86 5.63992
4552.26 5.52848
4553.66 5.36914
4554.36 5.26040
4555.05 5.12392
4555.75 4.95802
4556.10 4.87500
4556.45 4.82414
4556.80 4.90855
4556.98 5.10431
4557.15 5.56899
4557.33 6.67879
4557.42 7.77554
4557.50 9.58669
4557.59 12.8124
4557.68 18.8172
4557.72 23.8645
4557.77 31.0274
4557.81 41.8321
4557.85 57.3494
4557.93 97.9925
4558.00 133.336
4558.08 117.565
4558.15 82.0217
4558.22 57.7900
4558.29 42.9947
4558.36 33.6043
4558.43 27.5549
4558.57 20.3904
4558.70 16.5209
4558.84 14.1474
4558.98 12.5922
4559.26 10.6950
4559.54 9.60670
4559.81 8.91052
4560.09 8.43062
4560.37 8.08134
4560.92 7.60900
4561.47 7.30540
4562.03 7.09401
4562.58 6.93824
4563.69 6.72312
4564.80 6.58074
4565.91 6.47842
4567.02 6.40054
4569.23 6.28775
4571.45 6.20790
4575.88 6.09683
4580.31 6.01827
4584.75 5.95636
4593.61 5.85900
4611.34 5.71473
4629.07 5.60324
4664.54 5.43029
4700.00 5.29670
4700.00 8.91359
5000.00 8.74804
6000.00 8.28907
7000.00 7.93240
8000.00 7.64491
9000.00 7.40677
10000.0 7.00706
12500.0 6.86768
15000.0 6.78606
17000.0 6.67836
20000.0 6.55743
25000.0 6.42495
30000.0 6.27386
35000.0 5.94849
40000.0 5.67676
50000.0 5.36827
60000.0 5.09296
70000.0 4.88312
80000.0 4.89870
90000.0 4.74627
99999.9 4.58496
100000 4.58359
150000 4.67133
200000 4.81580
222652 4.88980
222653 4.88980
250000 4.98334
270205 5.05389
270205 5.05389
300000 5.15888
392097 5.49713
484193 5.77751
500000 5.82620
546148 5.96489
592296 6.09419
646148 6.23853
700000 6.37268
750000 6.48959
800000 6.59997
861393 6.72535
881038 6.76321
900000 6.79870
943664 6.87540
987327 6.94884
1.00000E+06 6.96879
1.04469E+06 7.03012
1.08938E+06 7.08892
1.13406E+06 7.14540
1.17875E+06 7.19973
1.25000E+06 7.26533
1.31250E+06 7.29649
1.37500E+06 7.32638
1.43750E+06 7.35512
1.50000E+06 7.38280
1.56250E+06 7.37283
1.62500E+06 7.36411
1.68750E+06 7.35651
1.75000E+06 7.34990
1.81745E+06 7.30522
1.88489E+06 7.26392
1.94245E+06 7.22888
2.00000E+06 7.19601
2.06250E+06 7.08699
2.12500E+06 6.98446
2.18750E+06 6.88787
2.25000E+06 6.79675
2.31250E+06 6.71067
2.37500E+06 6.62922
2.43750E+06 6.55206
2.50000E+06 6.47888
2.56250E+06 6.40938
2.62500E+06 6.34331
2.68750E+06 6.28044
2.75000E+06 6.22054
2.81250E+06 6.16343
2.87500E+06 6.10893
2.93750E+06 6.05686
3.00000E+06 6.00709
3.06250E+06 5.93029
3.12500E+06 5.85673
3.18750E+06 5.78621
3.25000E+06 5.71854
3.31250E+06 5.65356
3.37500E+06 5.59111
3.43750E+06 5.53106
3.50000E+06 5.47327
3.56250E+06 5.41762
3.62500E+06 5.36399
3.68750E+06 5.31228
3.75000E+06 5.26239
3.81250E+06 5.21423
3.87500E+06 5.16771
3.93750E+06 5.12276
4.00000E+06 5.07929
4.06250E+06 5.03672
4.12500E+06 4.99536
4.18750E+06 4.95516
4.25000E+06 4.91606
4.31250E+06 4.87803
4.37500E+06 4.84101
4.43750E+06 4.80496
4.50000E+06 4.76984
4.56250E+06 4.73562
4.62500E+06 4.70225
4.68750E+06 4.66971
4.75000E+06 4.63797
4.81250E+06 4.60698
4.87500E+06 4.57674
4.93750E+06 4.54720
5.00000E+06 4.51834
5.11931E+06 4.49155
5.23862E+06 4.46575
5.35792E+06 4.44089
5.47723E+06 4.41690
5.60517E+06 4.39130
5.73310E+06 4.36660
5.86104E+06 4.34276
5.98897E+06 4.31972
6.00000E+06 4.31774
6.15148E+06 4.32606
6.30296E+06 4.33424
6.48074E+06 4.34358
6.59299E+06 4.34936
6.70524E+06 4.35505
6.85262E+06 4.36238
7.00000E+06 4.36958
7.03028E+06 4.37258
7.11666E+06 4.38107
7.23762E+06 4.39142
7.36047E+06 4.40224
7.48331E+06 4.41337
7.61033E+06 4.42517
7.73734E+06 4.43728
7.86867E+06 4.45011
8.00000E+06 4.46323
8.05977E+06 4.46838
8.11954E+06 4.47376
8.17930E+06 4.47936
8.23907E+06 4.48518
8.27772E+06 4.48897
8.31636E+06 4.49284
8.35859E+06 4.49584
8.40082E+06 4.49895
8.44305E+06 4.50216
8.48528E+06 4.50548
8.54962E+06 4.51071
8.61396E+06 4.51618
8.67830E+06 4.52189
8.74264E+06 4.52782
8.80698E+06 4.53398
8.87132E+06 4.54036
8.93566E+06 4.54696
9.00000E+06 4.55377
9.06085E+06 4.55934
9.12171E+06 4.56506
9.18256E+06 4.57092
9.24342E+06 4.57692
9.30427E+06 4.58306
9.36512E+06 4.58934
9.42598E+06 4.59576
9.48683E+06 4.60231
9.55098E+06 4.60927
9.61512E+06 4.61639
9.67927E+06 4.62364
9.74342E+06 4.63104
9.80756E+06 4.63858
9.87171E+06 4.64626
9.93585E+06 4.65407
1.00000E+07 4.66202
1.00610E+07 4.66969
1.01220E+07 4.67740
1.01830E+07 4.68515
1.02441E+07 4.69294
1.03051E+07 4.70078
1.03661E+07 4.70866
1.04271E+07 4.71658
1.04881E+07 4.72454
1.05521E+07 4.73299
1.06161E+07 4.74148
1.06801E+07 4.75002
1.07441E+07 4.75860
1.08080E+07 4.76723
1.08720E+07 4.77589
1.09360E+07 4.78460
1.10000E+07 4.79336
1.10625E+07 4.80081
1.11250E+07 4.80830
1.11875E+07 4.81582
1.12500E+07 4.82337
1.13125E+07 4.83096
1.13750E+07 4.83858
1.14375E+07 4.84622
1.15000E+07 4.85391
1.15625E+07 4.86162
1.16250E+07 4.86936
1.16875E+07 4.87713
1.17500E+07 4.88494
1.18125E+07 4.89278
1.18750E+07 4.90064
1.19375E+07 4.90854
1.20000E+07 4.91647
1.20585E+07 4.92130
1.21171E+07 4.92614
1.21756E+07 4.93098
1.22342E+07 4.93583
1.22927E+07 4.94068
1.23512E+07 4.94554
1.24098E+07 4.95041
1.24683E+07 4.95529
1.25268E+07 4.96017
1.25854E+07 4.96506
1.26439E+07 4.96996
1.27025E+07 4.97486
1.27610E+07 4.97978
1.28195E+07 4.98470
1.28781E+07 4.98963
1.29366E+07 4.99457
1.30000E+07 4.99969
1.30613E+07 5.00447
1.31227E+07 5.00925
1.31840E+07 5.01405
1.32454E+07 5.01884
1.33067E+07 5.02365
1.33680E+07 5.02846
1.34294E+07 5.03327
1.34907E+07 5.03809
1.35544E+07 5.04305
1.36180E+07 5.04800
1.36817E+07 5.05297
1.37454E+07 5.05795
1.38090E+07 5.06294
1.38727E+07 5.06794
1.39363E+07 5.07296
1.40000E+07 5.07800
1.40625E+07 5.07963
1.41250E+07 5.08128
1.41875E+07 5.08294
1.42500E+07 5.08461
1.43125E+07 5.08630
1.43750E+07 5.08800
1.44375E+07 5.08972
1.45000E+07 5.09145
1.45625E+07 5.09303
1.46250E+07 5.09462
1.46875E+07 5.09623
1.47500E+07 5.09785
1.48125E+07 5.09948
1.48750E+07 5.10113
1.49375E+07 5.10279
1.50000E+07 5.10447
1.50477E+07 5.10447
1.50953E+07 5.10448
1.51430E+07 5.10450
1.51907E+07 5.10453
1.52383E+07 5.10457
1.52860E+07 5.10463
1.53336E+07 5.10469
1.53813E+07 5.10477
1.54290E+07 5.10485
1.54766E+07 5.10495
1.55243E+07 5.10506
1.55720E+07 5.10519
1.56196E+07 5.10532
1.56673E+07 5.10547
1.57149E+07 5.10564
1.57626E+07 5.10581
1.58220E+07 5.10588
1.58813E+07 5.10597
1.59407E+07 5.10608
1.60000E+07 5.10621
1.60360E+07 5.10543
1.60720E+07 5.10467
1.61080E+07 5.10391
1.61441E+07 5.10316
1.61801E+07 5.10242
1.62161E+07 5.10168
1.62521E+07 5.10096
1.62881E+07 5.10024
1.63241E+07 5.09954
1.63601E+07 5.09884
1.63961E+07 5.09816
1.64322E+07 5.09748
1.64682E+07 5.09681
1.65042E+07 5.09615
1.65402E+07 5.09551
1.65762E+07 5.09487
1.65762E+07 5.09487
1.66292E+07 5.09379
1.66822E+07 5.09274
1.67352E+07 5.09170
1.67881E+07 5.09068
1.68411E+07 5.08968
1.68941E+07 5.08870
1.69470E+07 5.08774
1.70000E+07 5.08680
1.70625E+07 5.08545
1.71250E+07 5.08413
1.71875E+07 5.08283
1.72500E+07 5.08156
1.73125E+07 5.08031
1.73750E+07 5.07910
1.74375E+07 5.07791
1.75000E+07 5.07675
1.75625E+07 5.07562
1.76250E+07 5.07452
1.76875E+07 5.07345
1.77500E+07 5.07241
1.78125E+07 5.07140
1.78750E+07 5.07042
1.79375E+07 5.06948
1.80000E+07 5.06856
1.81250E+07 5.06332
1.82500E+07 5.05823
1.83750E+07 5.05328
1.85000E+07 5.04848
1.86250E+07 5.04384
1.87500E+07 5.03936
1.88750E+07 5.03506
1.90000E+07 5.03095
1.92500E+07 5.02114
1.95000E+07 5.01194
1.97500E+07 5.00338
2.00000E+07 4.99553