Nd-150(n,tot) ENDF/B-VII.1
Energy(eV) XS(b)
1.00000E-05 56.9629
1.25000E-05 51.4366
1.50000E-05 47.3572
2.00000E-05 41.6311
2.75000E-05 36.1828
3.50000E-05 32.5971
4.25000E-05 30.0085
5.00000E-05 28.0268
6.25000E-05 25.5554
7.50000E-05 23.7311
0.000100000 21.1703
0.000125000 19.4227
0.000150000 18.1327
0.000200000 16.3220
0.000275000 14.5990
0.000350000 13.4651
0.000425000 12.6466
0.000500000 12.0199
0.000625000 11.2383
0.000750000 10.6614
0.00100000 9.85164
0.00125000 9.29900
0.00150000 8.89106
0.00200000 8.31844
0.00275000 7.77358
0.00350000 7.41500
0.00425000 7.15613
0.00500000 6.95794
0.00625000 6.71078
0.00750000 6.52832
0.0100000 6.27220
0.0125000 6.09740
0.0150000 5.96835
0.0200000 5.78719
0.0253000 5.65731
0.0314750 5.54956
0.0376500 5.46952
0.0500000 5.35652
0.0625000 5.27817
0.0750000 5.22029
0.100000 5.13895
0.125000 5.08332
0.150000 5.04217
0.200000 4.98419
0.275000 4.92865
0.350000 4.89174
0.500000 4.84396
0.750000 4.79758
1.00000 4.76857
1.50000 4.73146
2.00000 4.70667
2.75000 4.67949
3.50000 4.65829
5.00000 4.62429
7.50000 4.57861
10.0000 4.53891
15.0000 4.46724
20.0000 4.40054
27.5000 4.30439
35.0000 4.20891
50.0000 3.99984
57.1912 3.87161
60.7868 3.79044
64.3824 3.68762
67.9780 3.54564
69.7758 3.44927
71.5736 3.32588
72.4725 3.25101
73.3714 3.16671
74.2703 3.07661
75.1692 2.99943
75.6187 2.98545
76.0681 3.01882
76.5176 3.16343
76.9670 3.58962
77.1917 4.04444
77.4165 4.84129
77.6412 6.31353
77.7535 7.52010
77.8097 8.31207
77.8659 9.27465
77.8940 9.83453
77.9221 10.4561
77.9502 11.1484
77.9783 11.9217
78.0064 12.7883
78.0345 13.7630
78.0625 14.8631
78.0906 16.1100
78.1187 17.5295
78.1468 19.1529
78.2030 23.1771
78.2592 28.6271
78.3154 36.2239
78.3715 47.1988
78.4277 63.7777
78.4839 90.3370
78.5120 109.966
78.5401 136.397
78.5682 173.066
78.5963 225.838
78.6244 305.345
78.6524 432.372
78.6805 651.590
78.6946 824.829
78.7086 1071.11
78.7227 1434.48
78.7367 1990.83
78.7508 2873.84
78.7648 4284.58
78.7824 6928.60
78.8000 8754.02
78.8176 7079.42
78.8352 4473.41
78.8559 2575.58
78.8765 1603.34
78.8972 1078.86
78.9179 772.212
78.9386 579.695
78.9592 451.615
79.0006 297.718
79.0419 212.412
79.0832 160.248
79.1659 102.265
79.2486 72.2961
79.3313 54.7178
79.4139 43.4705
79.4966 35.8079
79.6620 26.2657
79.8273 20.7180
79.9927 17.1743
80.1580 14.7538
80.4887 11.7170
80.8194 9.92650
81.1501 8.76473
81.4808 7.95834
82.1422 6.92372
82.8036 6.29525
83.4650 5.87612
84.1264 5.57774
85.4492 5.18202
86.7720 4.93121
88.0948 4.75730
89.4176 4.62885
92.0632 4.44960
94.7088 4.32785
100.000 4.16611
106.250 4.03980
112.500 3.94526
125.000 3.79840
150.000 3.56486
175.000 3.34793
200.000 3.11526
216.471 2.93892
232.941 2.72886
249.412 2.46071
257.647 2.29131
261.764 2.19497
263.823 2.14822
264.338 2.14090
264.853 2.14499
265.110 2.16273
265.239 2.18373
265.367 2.22450
265.496 2.31405
265.560 2.40312
265.625 2.56247
265.657 2.69397
265.689 2.89002
265.721 3.20037
265.753 3.73136
265.786 4.75952
265.802 5.67446
265.818 7.13262
265.834 9.69054
265.850 14.6999
265.858 19.1911
265.866 26.1882
265.874 37.6956
265.882 56.9149
265.891 90.0096
265.900 111.752
265.909 89.6250
265.918 56.9185
265.924 42.0571
265.930 31.9306
265.941 19.8979
265.953 13.6940
265.964 10.1811
265.976 8.02769
265.987 6.62163
266.010 4.97203
266.033 4.07445
266.056 3.53629
266.102 2.95251
266.148 2.65833
266.194 2.49011
266.240 2.38459
266.286 2.31390
266.378 2.22750
266.469 2.17822
266.653 2.12555
266.837 2.09786
267.021 2.08024
267.388 2.05716
268.123 2.02649
268.858 2.00114
271.798 1.90422
277.677 1.68674
283.557 1.42005
289.437 1.08882
292.376 0.897484
295.316 0.696885
298.256 0.515549
299.726 0.456790
300.461 0.444879
301.196 0.451240
301.563 0.463526
301.931 0.483445
302.298 0.512468
302.666 0.552358
303.033 0.605292
303.401 0.673892
303.768 0.761385
304.136 0.871727
304.503 1.00993
304.871 1.18219
305.606 1.66229
306.341 2.40529
307.075 3.56941
307.810 5.43914
308.545 8.55861
309.280 14.0671
309.648 18.4376
310.015 24.6374
310.383 33.7420
310.750 47.7019
311.118 70.3571
311.485 110.053
311.669 141.855
311.853 187.716
312.036 256.914
312.220 367.250
312.404 556.764
312.588 914.936
312.680 1220.71
312.771 1681.37
312.863 2397.53
312.955 3513.18
313.078 5723.90
313.200 7286.08
313.323 5935.25
313.446 3775.87
313.588 2209.49
313.730 1394.84
313.872 949.714
314.015 686.836
314.157 520.326
314.299 408.845
314.583 273.678
314.867 197.925
315.152 151.165
315.720 98.5201
316.289 70.8708
316.857 54.4101
317.426 43.7343
317.994 36.3666
319.131 27.0354
320.268 21.4901
321.405 17.8767
322.542 15.3631
324.816 12.1338
327.090 10.1718
329.364 8.86391
331.638 7.93334
336.186 6.69937
340.734 5.91604
345.282 5.37041
349.830 4.96416
358.926 4.38613
368.022 3.97637
386.214 3.37189
404.406 2.85669
422.598 2.30149
431.694 1.97189
440.790 1.58256
449.886 1.11360
454.434 0.851040
456.708 0.725614
457.276 0.703102
457.845 0.701859
458.129 0.730014
458.271 0.766231
458.413 0.838649
458.555 1.00030
458.626 1.16238
458.697 1.45394
458.769 2.05667
458.804 2.62979
458.840 3.61898
458.875 5.55202
458.893 7.28939
458.911 10.0897
458.928 15.0768
458.946 25.0079
458.955 34.1096
458.964 48.8607
458.973 74.1076
458.982 117.747
458.991 188.208
459.000 235.251
459.009 188.215
459.018 117.755
459.025 83.3158
459.031 60.4394
459.038 45.2389
459.044 35.0231
459.057 22.5258
459.070 15.6605
459.083 11.5362
459.096 8.88135
459.122 5.79973
459.148 4.14899
459.173 3.17182
459.225 2.11744
459.277 1.58992
459.328 1.28936
459.432 0.975063
459.535 0.821115
459.638 0.732970
459.845 0.637842
460.258 0.553877
460.671 0.509660
462.324 0.405147
463.977 0.334346
465.630 0.293742
466.456 0.289328
467.282 0.299362
468.109 0.327850
468.935 0.380017
469.348 0.417041
469.762 0.462709
470.588 0.584989
471.414 0.758968
472.241 1.00101
473.067 1.33367
473.894 1.78832
474.720 2.40958
475.546 3.26218
476.373 4.44240
477.199 6.09757
478.026 8.46092
478.852 11.9168
479.678 17.1305
480.505 25.3263
481.331 38.9383
482.158 63.3271
482.571 83.1550
482.984 112.074
483.397 156.171
483.810 227.361
484.224 351.202
484.637 589.175
484.843 795.095
485.050 1109.57
485.257 1605.38
485.463 2391.87
485.732 3932.79
486.000 5048.55
486.269 4146.34
486.537 2660.36
486.747 1848.95
486.958 1325.38
487.168 986.337
487.379 759.921
487.799 490.602
488.220 344.563
488.641 257.025
489.061 200.487
489.903 134.120
490.744 97.8931
491.586 75.8056
492.427 61.2470
493.269 51.0834
494.951 38.0654
496.634 30.2484
498.317 25.1219
500.000 21.5411
502.542 17.8368
505.083 15.3364
510.166 12.2087
515.249 10.3491
520.332 9.12297
525.415 8.25509
530.498 7.60817
540.664 6.70523
550.830 6.10010
560.996 5.66096
581.328 5.05085
601.660 4.62569
621.992 4.28566
632.158 4.12694
642.324 3.95945
647.407 3.86160
649.949 3.80376
652.490 3.73430
655.032 3.64279
656.302 3.58167
657.573 3.50210
658.209 3.45166
658.844 3.39089
659.479 3.31629
660.115 3.22408
660.432 3.17126
660.750 3.11659
661.068 3.06880
661.385 3.05682
661.544 3.09015
661.703 3.18645
661.862 3.41654
662.021 3.95654
662.100 4.47649
662.180 5.32879
662.259 6.80188
662.339 9.54712
662.378 11.8450
662.398 13.3839
662.418 15.2731
662.438 17.6455
662.458 20.6367
662.478 24.5094
662.497 29.5674
662.517 36.3895
662.537 45.7369
662.557 59.0783
662.577 78.6244
662.597 108.820
662.616 157.284
662.636 239.723
662.656 381.354
662.678 628.416
662.700 808.696
662.711 772.885
662.722 667.074
662.744 431.147
662.770 253.906
662.796 162.349
662.822 112.373
662.848 82.8260
662.874 64.0167
662.900 51.4289
662.951 36.0791
663.003 27.3904
663.055 21.9891
663.159 15.8273
663.262 12.5360
663.366 10.5452
663.470 9.23494
663.573 8.31885
663.781 7.13626
663.988 6.41725
664.196 5.93920
664.403 5.60071
664.818 5.15556
665.232 4.87749
665.647 4.68758
666.062 4.54951
666.891 4.36135
667.721 4.23784
668.550 4.14927
669.380 4.08167
671.039 3.98270
672.698 3.91087
676.015 3.80606
682.651 3.65701
689.287 3.53384
702.558 3.29561
715.830 3.02284
722.465 2.85741
729.101 2.65940
735.737 2.41174
742.372 2.08552
745.690 1.87834
749.008 1.63038
752.326 1.33175
755.644 0.980445
757.303 0.796046
758.962 0.632374
760.621 0.554768
761.035 0.565860
761.450 0.597755
761.865 0.657438
762.279 0.754442
762.694 0.901995
763.109 1.11856
763.524 1.43065
763.938 1.87696
764.353 2.51550
764.768 3.43488
765.183 4.77656
765.597 6.77423
766.012 9.83437
766.427 14.7031
766.841 22.8678
767.256 37.5969
767.464 49.6092
767.671 67.1401
767.878 93.8481
768.086 136.801
768.293 211.046
768.500 351.827
768.604 471.948
768.708 652.717
768.811 932.325
768.915 1365.96
769.058 2259.59
769.200 2918.58
769.343 2411.58
769.485 1556.22
769.575 1162.93
769.665 885.233
769.844 551.001
770.024 373.878
770.204 271.152
770.384 206.782
770.563 163.880
770.923 111.993
771.282 82.8537
771.641 64.7607
772.360 44.1812
773.079 33.1863
773.798 26.5275
774.516 22.1358
775.235 19.0562
776.672 15.0720
778.110 12.6394
779.547 11.0158
780.985 9.86192
783.860 8.33893
786.735 7.38296
789.610 6.72779
792.485 6.25021
798.234 5.59757
803.984 5.16806
809.734 4.85955
815.484 4.62368
826.984 4.27732
838.483 4.02382
861.483 3.64351
884.482 3.32955
907.482 3.02241
930.481 2.67971
941.981 2.48014
944.856 2.42650
947.731 2.37248
949.168 2.34705
950.606 2.32802
951.324 2.32793
952.043 2.35525
952.402 2.40650
952.582 2.46126
952.762 2.56380
952.941 2.78498
953.031 3.00418
953.121 3.39787
953.166 3.72492
953.211 4.21470
953.256 4.99736
953.301 6.36124
953.346 9.05861
953.368 11.5280
953.391 15.5881
953.413 23.0165
953.424 29.2059
953.436 38.5283
953.447 53.5561
953.458 79.0617
953.469 126.164
953.480 218.452
953.490 347.576
953.500 434.597
953.510 347.604
953.520 218.377
953.531 125.624
953.542 78.4896
953.554 52.9039
953.565 38.1371
953.576 28.8240
953.588 22.7135
953.610 15.3858
953.633 11.3697
953.656 8.94098
953.701 6.28303
953.747 4.93958
953.792 4.16830
953.837 3.68509
953.883 3.36244
953.974 2.97154
954.064 2.75238
954.246 2.52720
954.427 2.41842
954.609 2.35667
954.972 2.29046
955.698 2.23198
956.425 2.20049
957.877 2.15600
959.330 2.11765
965.140 1.96663
976.760 1.61746
988.380 1.17262
994.190 0.905804
1000.00 0.613799
1003.92 0.416420
1007.85 0.251357
1009.81 0.202425
1010.79 0.193503
1011.77 0.199391
1012.75 0.224750
1013.73 0.275775
1014.72 0.360775
1015.70 0.490876
1016.68 0.681856
1017.66 0.955306
1018.64 1.34209
1019.62 1.88698
1020.60 2.65651
1021.58 3.75228
1022.56 5.33443
1023.54 7.66539
1024.52 11.1956
1025.51 16.7439
1026.49 25.9103
1027.47 42.1289
1027.96 55.1320
1028.45 73.7580
1028.94 101.595
1029.43 145.051
1029.92 217.379
1030.41 346.580
1030.90 598.708
1031.15 813.117
1031.39 1122.27
1031.80 1864.94
1032.20 2419.49
1032.61 2009.53
1033.01 1303.68
1033.47 785.796
1033.93 509.178
1034.39 354.695
1034.85 261.875
1035.31 202.158
1035.77 161.745
1036.68 111.973
1037.60 83.5125
1038.52 65.6543
1040.36 45.1003
1042.20 34.0034
1044.03 27.2337
1045.87 22.7454
1047.71 19.5850
1051.38 15.4776
1055.05 12.9565
1058.73 11.2666
1062.40 10.0609
1069.75 8.46173
1077.10 7.45091
1084.45 6.75319
1091.79 6.24062
1106.49 5.53119
1121.19 5.05432
1135.88 4.70322
1139.56 4.62891
1143.23 4.55997
1145.07 4.52875
1146.90 4.50382
1147.82 4.49919
1148.74 4.51627
1149.20 4.55429
1149.43 4.59624
1149.66 4.67546
1149.89 4.84854
1150.00 5.02107
1150.12 5.32931
1150.18 5.59010
1150.23 5.97602
1150.29 6.60708
1150.35 7.69517
1150.38 8.59132
1150.41 9.91217
1150.44 11.9731
1150.46 15.2874
1150.49 21.6387
1150.51 26.8599
1150.52 34.7940
1150.54 48.8074
1150.55 72.1341
1150.56 117.027
1150.57 155.040
1150.58 218.444
1150.59 347.272
1150.60 432.050
1150.61 347.304
1150.62 218.485
1150.63 137.043
1150.64 90.7350
1150.66 63.9931
1150.67 47.6319
1150.68 37.0440
1150.69 29.8541
1150.71 21.0560
1150.73 16.1132
1150.75 13.0747
1150.80 9.69862
1150.84 7.96831
1150.89 6.96627
1150.93 6.33483
1150.97 5.91148
1151.06 5.39671
1151.15 5.10732
1151.33 4.80984
1151.50 4.66696
1151.68 4.58674
1152.03 4.50288
1152.73 4.43449
1153.44 4.40276
1154.84 4.36519
1156.25 4.33736
1161.88 4.24489
1173.14 4.08206
1195.65 3.79441
1218.16 3.52954
1240.67 3.26114
1263.19 2.95553
1274.44 2.76966
1285.70 2.53986
1296.96 2.22767
1302.58 2.01539
1308.21 1.73736
1311.03 1.56153
1313.84 1.35142
1316.65 1.09802
1319.47 0.797010
1320.87 0.635384
1322.28 0.484839
1323.69 0.392535
1324.39 0.404430
1324.74 0.437967
1325.10 0.498435
1325.45 0.595897
1325.80 0.743909
1326.15 0.962040
1326.50 1.27777
1326.85 1.73542
1327.21 2.39960
1327.56 3.37396
1327.91 4.82416
1328.26 7.05232
1328.61 10.5937
1328.97 16.5086
1329.32 27.0540
1329.49 35.5901
1329.67 47.9290
1329.84 66.4826
1330.02 95.7963
1330.20 145.114
1330.37 234.962
1330.46 308.505
1330.55 414.916
1330.64 571.681
1330.72 798.947
1330.86 1330.56
1331.00 1725.08
1331.14 1432.94
1331.28 929.023
1331.41 603.944
1331.54 412.440
1331.68 297.399
1331.81 224.663
1331.94 176.245
1332.08 142.531
1332.34 100.063
1332.61 75.1089
1332.87 59.2038
1333.40 40.7122
1333.94 30.6120
1334.47 24.4346
1335.00 20.3235
1335.53 17.4330
1336.59 13.6751
1337.66 11.3738
1338.72 9.83572
1339.78 8.74174
1341.91 7.29699
1344.03 6.38908
1346.16 5.76572
1348.29 5.31000
1352.54 4.68328
1356.79 4.26539
1365.29 3.72036
1373.80 3.35296
1382.30 3.06233
1399.31 2.55615
1416.32 2.01473
1424.82 1.68490
1433.33 1.28256
1437.58 1.04482
1441.83 0.780361
1446.08 0.498619
1450.33 0.248864
1451.40 0.208482
1452.46 0.187354
1453.52 0.195250
1454.59 0.246923
1455.12 0.295904
1455.65 0.365116
1456.18 0.459773
1456.71 0.585819
1457.24 0.751854
1457.77 0.967786
1458.84 1.61071
1459.90 2.69195
1460.96 4.54662
1462.03 7.85845
1462.56 10.4839
1463.09 14.1730
1463.62 19.5209
1464.15 27.5157
1464.68 40.0544
1465.22 60.8018
1465.75 98.0025
1466.01 128.169
1466.28 171.702
1466.54 237.346
1466.81 339.528
1467.08 505.728
1467.34 776.921
1467.67 1298.66
1468.00 1694.15
1468.33 1413.20
1468.66 920.304
1468.90 664.652
1469.14 492.203
1469.37 376.173
1469.61 296.234
1470.09 197.990
1470.56 142.862
1471.04 108.998
1471.52 86.6967
1472.47 59.9809
1473.42 45.0318
1474.37 35.7438
1475.32 29.5245
1476.27 25.1262
1478.18 19.3885
1480.08 15.8714
1481.99 13.5210
1483.89 11.8529
1487.70 9.65624
1491.50 8.28260
1495.31 7.34416
1499.12 6.66163
1506.73 5.72925
1514.34 5.11366
1529.57 4.32288
1544.80 3.80228
1560.03 3.40127
1590.48 2.73236
1620.94 2.06220
1636.16 1.67615
1651.39 1.22647
1666.62 0.694929
1674.23 0.409686
1681.85 0.162736
1683.75 0.122385
1685.65 0.0997409
1687.56 0.103173
1688.51 0.118372
1689.46 0.145200
1690.41 0.186328
1691.36 0.245004
1692.32 0.325350
1693.27 0.432473
1695.17 0.756431
1697.07 1.29844
1698.98 2.20411
1700.88 3.74516
1702.78 6.47871
1703.74 8.63391
1704.69 11.6568
1705.64 16.0270
1706.59 22.5690
1707.54 32.8210
1708.49 49.8580
1709.45 80.6159
1709.92 105.788
1710.40 142.548
1710.87 198.673
1711.35 288.165
1711.83 437.192
1712.30 688.867
1712.85 1144.04
1713.40 1482.00
1713.95 1225.31
1714.50 790.552
1714.93 550.449
1715.37 395.483
1715.80 295.097
1716.24 228.100
1717.10 148.066
1717.97 104.551
1718.84 78.3224
1719.71 61.3123
1721.44 41.1748
1723.18 30.0471
1724.91 23.1645
1728.38 15.2693
1731.85 10.9164
1735.32 8.13148
1742.26 4.59310
1749.20 2.16582
1752.67 1.17715
1754.41 0.764320
1756.14 0.453586
1757.01 0.360211
1757.88 0.329603
1758.31 0.345270
1758.74 0.386896
1759.18 0.459537
1759.61 0.569089
1760.04 0.723668
1760.48 0.932517
1760.91 1.20742
1761.35 1.56224
1762.21 2.59585
1763.08 4.25345
1763.95 6.91893
1764.82 11.2670
1765.68 18.6108
1766.55 31.6255
1766.98 41.9495
1767.42 56.5278
1767.85 77.7106
1768.29 109.474
1768.72 159.306
1769.15 241.022
1769.59 381.246
1770.02 625.817
1770.51 1072.58
1771.00 1433.44
1771.50 1223.73
1771.99 813.491
1772.34 599.189
1772.69 452.346
1773.04 351.643
1773.39 281.487
1774.09 193.644
1774.79 143.344
1775.50 111.907
1776.20 90.8875
1777.60 65.2004
1779.00 50.4964
1780.40 41.1632
1783.21 30.1991
1786.01 24.0733
1788.81 20.2016
1791.62 17.5436
1794.42 15.6072
1800.03 12.9688
1805.64 11.2410
1816.85 9.05741
1828.07 7.62907
1833.68 7.02392
1839.28 6.41915
1844.89 5.73281
1847.70 5.31045
1850.50 4.78041
1851.90 4.44976
1853.30 4.05245
1854.71 3.56104
1856.11 2.93702
1856.81 2.56241
1857.51 2.14561
1858.21 1.70835
1858.91 1.34582
1859.26 1.28590
1859.61 1.44404
1859.79 1.67876
1859.96 2.08675
1860.14 2.76274
1860.31 3.86154
1860.40 4.65120
1860.49 5.66265
1860.67 8.63219
1860.84 13.7166
1860.93 17.6228
1861.02 22.8887
1861.10 30.3048
1861.19 40.7692
1861.28 56.3475
1861.37 79.8579
1861.45 117.828
1861.54 180.921
1861.63 294.136
1861.72 498.063
1861.81 857.892
1861.90 1146.42
1861.99 979.410
1862.09 654.914
1862.15 478.426
1862.22 360.065
1862.29 278.633
1862.36 222.992
1862.49 153.370
1862.62 114.032
1862.76 89.3490
1862.89 72.9110
1863.16 52.9572
1863.43 41.5302
1863.70 34.3247
1863.97 29.4151
1864.24 25.8852
1864.78 21.1867
1865.32 18.2372
1865.86 16.2276
1866.40 14.7782
1867.47 12.8260
1868.55 11.5769
1869.63 10.7066
1870.71 10.0647
1872.86 9.17409
1875.02 8.57892
1877.17 8.14711
1879.33 7.81526
1883.64 7.32891
1887.95 6.97973
1896.56 6.48960
1905.18 6.14363
1913.80 5.87509
1931.04 5.46709
1965.52 4.90674
2000.00 4.50812
2081.63 3.82582
2163.26 3.27311
2204.08 2.99682
2244.90 2.68943
2265.30 2.50479
2275.51 2.39525
2285.71 2.26416
2295.92 2.09261
2301.02 1.97834
2306.12 1.82871
2308.67 1.73264
2311.22 1.61471
2313.77 1.46489
2316.32 1.26669
2317.60 1.14166
2318.87 0.994298
2320.15 0.821974
2321.43 0.633073
2322.06 0.546181
2322.70 0.489646
2323.34 0.518956
2323.66 0.605481
2323.98 0.784631
2324.30 1.12682
2324.61 1.76583
2324.77 2.27614
2324.93 2.98213
2325.09 3.97906
2325.25 5.41579
2325.41 7.55839
2325.57 10.8249
2325.73 16.1046
2325.89 25.0573
2326.05 41.7703
2326.13 55.7798
2326.21 76.3802
2326.29 108.832
2326.37 161.180
2326.45 252.204
2326.53 409.919
2326.61 687.076
2326.70 898.989
2326.79 752.227
2326.87 491.372
2326.97 303.958
2327.06 200.788
2327.16 141.973
2327.25 106.404
2327.35 83.0112
2327.44 67.0079
2327.63 47.1983
2327.82 35.6939
2328.01 28.4438
2328.39 19.9984
2328.77 15.3905
2329.15 12.5558
2329.53 10.6634
2329.91 9.32606
2330.66 7.57046
2331.42 6.48543
2332.18 5.75235
2332.94 5.22723
2334.45 4.52562
2335.97 4.07974
2337.48 3.77067
2339.00 3.54303
2342.03 3.22748
2345.06 3.01595
2351.12 2.74069
2357.18 2.55920
2363.24 2.42223
2375.36 2.21086
2399.60 1.87630
2423.85 1.55840
2448.09 1.20487
2460.21 0.999357
2472.33 0.762523
2484.45 0.482603
2490.51 0.326554
2496.57 0.174022
2499.60 0.114352
2501.12 0.0957087
2502.63 0.0901802
2504.15 0.105013
2505.66 0.151807
2507.18 0.249733
2507.94 0.327414
2508.69 0.431755
2509.45 0.571382
2510.21 0.757713
2510.97 1.00696
2511.73 1.34185
2512.48 1.79736
2513.24 2.42365
2514.00 3.30251
2514.76 4.56108
2515.51 6.42240
2516.27 9.27460
2517.03 13.8821
2517.79 21.8227
2518.54 36.8954
2518.92 49.8368
2519.30 69.6021
2519.68 101.653
2520.06 157.070
2520.44 260.197
2520.82 460.466
2521.16 762.334
2521.50 984.070
2521.84 812.572
2522.19 524.482
2522.57 317.348
2522.95 205.656
2523.33 142.993
2523.71 105.250
2524.09 80.9849
2524.47 64.5183
2525.23 44.2537
2526.00 32.6975
2526.76 25.4531
2528.28 17.1493
2529.80 12.6797
2531.33 9.96221
2532.85 8.16213
2534.37 6.89580
2537.42 5.24558
2540.47 4.22565
2543.52 3.53325
2546.56 3.03032
2552.66 2.33932
2558.75 1.87390
2570.94 1.24662
2583.13 0.798425
2595.32 0.425662
2601.41 0.256664
2604.46 0.179730
2607.51 0.117143
2609.03 0.0986776
2610.55 0.0993180
2612.08 0.139406
2612.84 0.187908
2613.60 0.270338
2614.36 0.409498
2615.13 0.648674
2615.51 0.830893
2615.89 1.07883
2616.27 1.42337
2616.65 1.91361
2617.03 2.63926
2617.41 3.75969
2617.79 5.59493
2618.17 8.85591
2618.36 11.5121
2618.55 15.3776
2618.74 21.3496
2618.93 31.0810
2619.13 48.5530
2619.22 62.7424
2619.32 83.5298
2619.41 115.357
2619.51 166.598
2619.60 253.326
2619.70 403.295
2619.80 655.880
2619.90 829.807
2620.00 671.877
2620.11 426.544
2620.21 266.663
2620.31 175.952
2620.41 123.098
2620.51 90.4889
2620.62 69.2178
2620.72 54.6623
2620.92 36.6640
2621.13 26.4069
2621.33 20.0137
2621.74 12.7748
2622.15 8.96554
2622.55 6.70230
2622.96 5.23980
2623.37 4.23682
2624.18 2.97077
2625.00 2.22411
2625.82 1.74032
2626.63 1.40525
2628.26 0.974648
2629.89 0.712133
2633.16 0.409166
2636.42 0.241048
2639.68 0.138436
2641.32 0.103253
2642.95 0.0766931
2646.21 0.0462819
2649.47 0.0441703
2652.74 0.0708421
2654.37 0.0958053
2656.00 0.129201
2659.26 0.224263
2662.52 0.363264
2665.79 0.556070
2669.05 0.815900
2672.31 1.16042
2678.84 2.20693
2685.37 4.01110
2691.89 7.19781
2698.42 13.1196
2701.68 17.9891
2704.94 25.0807
2708.21 35.7771
2711.47 52.6377
2714.73 80.7324
2718.00 130.887
2721.26 227.753
2722.89 309.058
2724.52 425.072
2727.36 720.736
2730.20 951.855
2733.05 802.646
2735.89 527.770
2737.64 401.301
2739.40 310.240
2742.91 198.271
2746.41 137.380
2749.92 101.314
2753.43 78.2897
2756.93 62.6843
2763.95 43.3509
2770.96 32.0982
2777.98 24.8090
2792.01 15.7914
2806.03 9.93836
2813.05 7.42922
2820.06 4.95494
2827.08 2.44324
2830.59 1.27137
2832.34 0.787921
2833.22 0.598586
2834.09 0.462302
2834.97 0.398658
2835.85 0.435548
2836.29 0.503410
2836.72 0.611978
2837.16 0.768867
2837.60 0.983108
2838.48 1.63063
2839.35 2.67411
2840.23 4.29514
2841.11 6.77285
2841.98 10.5658
2842.86 16.4256
2843.74 25.6604
2844.61 40.6322
2845.49 65.9597
2846.37 110.986
2847.24 195.584
2847.68 264.168
2848.12 359.420
2849.01 650.248
2849.90 912.228
2850.80 813.838
2851.69 563.462
2852.33 425.547
2852.97 328.663
2853.60 261.277
2854.24 213.570
2855.52 152.734
2856.79 117.122
2858.07 94.3874
2859.34 78.9143
2861.89 59.5445
2864.44 48.1099
2867.00 40.6534
2872.10 31.5928
2877.20 26.3100
2882.30 22.8461
2892.50 18.5456
2902.71 15.9427
2912.91 14.1692
2933.31 11.8564
2953.72 10.3726
2974.13 9.31228
3014.94 7.84342
3055.75 6.80706
3096.56 5.93730
3116.97 5.48706
3127.17 5.23086
3137.37 4.92722
3147.58 4.52688
3152.68 4.25604
3157.78 3.89624
3160.33 3.66260
3162.88 3.37374
3165.43 3.00456
3167.98 2.51466
3169.26 2.20541
3170.53 1.84155
3171.81 1.41810
3173.08 0.956577
3173.72 0.745322
3174.36 0.606605
3174.68 0.598483
3175.00 0.666324
3175.32 0.857844
3175.63 1.25223
3175.95 1.99417
3176.11 2.57227
3176.27 3.34737
3176.43 4.40383
3176.59 5.83624
3176.75 7.81025
3176.91 10.5710
3177.07 14.5361
3177.23 20.2970
3177.39 29.0370
3177.55 42.6357
3177.71 65.0989
3177.87 103.854
3178.02 175.197
3178.18 311.156
3178.34 542.090
3178.50 733.595
3178.66 634.679
3178.82 427.709
3178.93 316.069
3179.05 239.371
3179.16 186.993
3179.28 150.698
3179.51 105.028
3179.74 78.8032
3179.97 62.3021
3180.19 51.2888
3180.65 37.7651
3181.11 29.9644
3181.57 25.0018
3182.03 21.5944
3182.49 19.1380
3183.40 15.8499
3184.32 13.7702
3185.24 12.3448
3186.15 11.3110
3187.99 9.91242
3189.82 9.01180
3191.66 8.38238
3193.49 7.91650
3197.16 7.26786
3200.82 6.83253
3204.49 6.51498
3208.16 6.26943
3215.49 5.90484
3222.83 5.63662
3237.50 5.24087
3252.17 4.93557
3266.84 4.67204
3281.51 4.42870
3288.84 4.31167
3292.51 4.25837
3294.35 4.25135
3294.80 4.26712
3295.26 4.32487
3295.49 4.41047
3295.72 4.65315
3295.84 4.98277
3295.95 5.85352
3296.01 6.98823
3296.04 8.04766
3296.06 9.75904
3296.09 13.0606
3296.11 15.7934
3296.12 19.9747
3296.14 27.4341
3296.15 40.0341
3296.16 64.8197
3296.17 86.2611
3296.18 122.717
3296.19 190.497
3296.20 241.066
3296.21 190.581
3296.22 122.819
3296.23 82.7590
3296.24 57.9677
3296.25 42.6646
3296.26 32.8309
3296.28 21.6288
3296.29 15.8351
3296.31 12.4888
3296.33 10.3928
3296.37 8.02256
3296.44 6.06454
3296.51 5.29612
3296.65 4.70365
3296.80 4.48240
3297.09 4.31527
3297.37 4.25211
3298.52 4.17539
3300.82 4.12334
3305.43 4.04527
3314.63 3.89415
3333.05 3.58038
3351.46 3.23570
3369.87 2.83819
3388.28 2.35138
3397.49 2.05410
3406.69 1.70076
3415.90 1.26350
3420.50 1.00009
3425.11 0.699630
3429.71 0.373122
3432.01 0.227562
3433.16 0.177184
3434.31 0.160691
3435.46 0.208370
3436.04 0.273371
3436.61 0.381106
3437.19 0.550828
3437.76 0.810867
3438.34 1.20723
3438.91 1.81521
3439.49 2.76662
3440.07 4.29523
3440.64 6.86627
3441.22 11.4769
3441.50 15.2035
3441.79 20.5769
3442.08 28.6202
3442.37 41.1801
3442.65 62.1226
3442.94 99.4122
3443.23 172.161
3443.37 233.805
3443.52 321.694
3443.76 538.342
3444.00 702.952
3444.24 586.777
3444.48 382.247
3444.70 255.904
3444.92 178.642
3445.14 130.819
3445.35 100.022
3445.78 64.3508
3446.22 45.4505
3446.65 34.2156
3447.08 26.9969
3447.95 18.4930
3448.82 13.7904
3449.68 10.8770
3451.42 7.51681
3453.15 5.65567
3454.88 4.47144
3458.35 3.01907
3461.81 2.11587
3465.28 1.46125
3468.74 0.945180
3472.21 0.531610
3473.94 0.364762
3475.67 0.231505
3477.41 0.142311
3479.14 0.114078
3480.01 0.130649
3480.87 0.173482
3481.74 0.248505
3482.60 0.362927
3483.47 0.526443
3484.34 0.750782
3485.20 1.05177
3486.07 1.44992
3487.80 2.65618
3489.54 4.72137
3491.27 8.32020
3493.00 14.8432
3493.87 20.0727
3494.73 27.4812
3495.60 38.2651
3496.47 54.4633
3497.33 79.7484
3498.20 120.797
3499.06 190.209
3499.93 309.413
3500.97 540.348
3502.00 734.400
3503.04 636.638
3504.08 429.524
3505.30 266.188
3506.52 177.754
3507.74 127.826
3508.96 97.4388
3510.18 77.6346
3511.40 64.0131
3513.84 46.8833
3516.28 36.8069
3518.72 30.3025
3523.60 22.5425
3528.48 18.1480
3533.36 15.3499
3538.25 13.4195
3543.13 12.0092
3552.89 10.0817
3562.65 8.81668
3582.17 7.22030
3601.69 6.20576
3621.22 5.45569
3660.26 4.27556
3699.31 3.15733
3718.83 2.52292
3738.35 1.78282
3748.11 1.36165
3757.87 0.909310
3767.63 0.453623
3772.52 0.251373
3774.96 0.167266
3777.40 0.101884
3779.84 0.0635985
3781.06 0.0581736
3782.28 0.0643455
3783.50 0.0844514
3784.72 0.121256
3785.94 0.178159
3787.16 0.259295
3788.38 0.369829
3789.60 0.515824
3792.04 0.947274
3794.48 1.64215
3796.92 2.74288
3799.36 4.48845
3801.80 7.29392
3804.24 11.9287
3806.68 19.9110
3809.12 34.5069
3810.34 46.3674
3811.56 63.4388
3812.78 88.6951
3814.00 127.141
3815.22 187.079
3816.44 280.845
3818.22 494.735
3820.00 677.518
3821.78 591.032
3823.56 401.335
3824.83 299.325
3826.10 228.470
3827.36 179.631
3828.63 145.278
3831.17 101.979
3833.70 76.9341
3836.24 61.1287
3838.77 50.4758
3843.85 37.3146
3848.92 29.6790
3853.99 24.7777
3859.06 21.3974
3864.13 18.9393
3874.27 15.6211
3884.42 13.4919
3894.56 12.0077
3904.70 10.9081
3924.99 9.35728
3945.27 8.23885
3955.41 7.72372
3960.48 7.44693
3965.56 7.13025
3970.63 6.72431
3973.16 6.45319
3975.70 6.09363
3976.97 5.85909
3978.23 5.56689
3979.50 5.18825
3980.77 4.67338
3981.40 4.33813
3982.04 3.92889
3982.67 3.42252
3983.31 2.79638
3983.62 2.43987
3983.94 2.07364
3984.26 1.75481
3984.57 1.65746
3984.73 1.83721
3984.89 2.35560
3985.05 3.55004
3985.13 4.59368
3985.21 6.13163
3985.29 8.45588
3985.37 11.9398
3985.45 17.3481
3985.52 26.0278
3985.60 40.5672
3985.68 66.2372
3985.72 86.6615
3985.76 114.217
3985.80 153.638
3985.84 206.937
3985.92 370.345
3986.00 515.692
3986.08 457.724
3986.16 316.162
3986.23 228.620
3986.29 171.511
3986.36 133.188
3986.42 107.494
3986.55 75.8237
3986.68 58.0948
3986.81 46.9710
3986.94 39.5791
3987.21 30.4406
3987.47 25.1403
3987.73 21.7290
3987.99 19.3694
3988.25 17.6489
3988.77 15.3169
3989.29 13.8228
3989.82 12.7851
3990.34 12.0232
3991.38 10.9783
3992.43 10.2950
3993.47 9.81041
3994.52 9.44766
3996.61 8.93525
3998.69 8.58536
4002.87 8.12429
4007.05 7.82037
4011.23 7.59492
4019.58 7.26361
4036.30 6.81123
4053.01 6.47761
4086.43 5.95689
4119.85 5.52084
4153.28 5.09990
4169.99 4.87196
4186.70 4.60973
4203.41 4.27348
4211.77 4.04998
4220.12 3.75548
4224.30 3.56466
4228.48 3.32820
4232.66 3.02364
4236.83 2.61225
4238.92 2.34626
4241.01 2.02357
4243.10 1.62788
4245.19 1.14652
4247.28 0.614887
4248.32 0.409874
4248.84 0.372739
4249.37 0.430010
4249.89 0.661078
4250.15 0.884313
4250.41 1.21719
4250.67 1.70417
4250.93 2.41127
4251.19 3.43900
4251.46 4.94491
4251.72 7.18469
4251.98 10.5904
4252.24 15.9281
4252.50 24.6370
4252.76 39.6095
4253.02 67.1162
4253.15 89.6453
4253.28 121.691
4253.41 168.601
4253.54 235.999
4253.77 414.905
4254.00 566.565
4254.23 493.992
4254.46 335.307
4254.62 250.549
4254.78 191.859
4254.94 151.239
4255.10 122.574
4255.43 86.2390
4255.75 65.2322
4256.07 51.9229
4256.39 42.9726
4257.04 31.9111
4257.68 25.4893
4258.33 21.3743
4258.97 18.5436
4259.62 16.4945
4260.91 13.7393
4262.20 11.9901
4263.49 10.7859
4264.77 9.90983
4267.35 8.72121
4269.93 7.95258
4272.51 7.41346
4275.09 7.01303
4280.25 6.45296
4285.41 6.07432
4295.72 5.57860
4306.04 5.25015
4316.35 5.00085
4326.67 4.79341
4331.82 4.69943
4334.40 4.65577
4335.69 4.64130
4336.34 4.66159
4336.66 4.77426
4336.82 5.18492
4336.90 6.46507
4336.94 9.52780
4336.96 14.6745
4336.97 20.4054
4336.98 31.2950
4336.99 48.0076
4337.00 57.9424
4337.01 48.0321
4337.02 31.3263
4337.03 22.9661
4337.03 17.1348
4337.05 11.2394
4337.08 7.34686
4337.14 5.51829
4337.27 4.86955
4337.52 4.67156
4338.01 4.60980
4339.00 4.57876
4340.99 4.54142
4344.96 4.47392
4352.90 4.34230
4368.79 4.07558
4384.67 3.78264
4400.56 3.42938
4416.44 2.95249
4424.39 2.62770
4432.33 2.20186
4436.30 1.93271
4440.27 1.61198
4444.24 1.22726
4448.21 0.774762
4452.18 0.313303
4453.18 0.227677
4454.17 0.178381
4455.16 0.193075
4456.15 0.319733
4456.65 0.450161
4457.15 0.645724
4457.64 0.930632
4458.14 1.33683
4458.64 1.91387
4459.13 2.72990
4459.63 3.89232
4460.13 5.56673
4460.62 8.02564
4461.12 11.7065
4461.62 17.4117
4462.11 26.5758
4462.61 42.1287
4463.10 70.1355
4463.35 92.6099
4463.60 124.399
4463.85 169.881
4464.10 234.695
4464.55 411.259
4465.00 560.814
4465.45 487.708
4465.90 330.283
4466.26 237.773
4466.62 176.613
4466.98 136.121
4467.34 108.527
4468.06 74.8176
4468.78 55.9345
4469.50 44.2384
4470.22 36.4671
4471.65 26.9775
4473.09 21.5332
4474.53 18.0618
4475.96 15.6793
4477.40 13.9546
4480.27 11.6359
4483.15 10.1585
4486.02 9.13671
4488.89 8.38821
4494.64 7.36092
4500.39 6.68279
4506.13 6.19475
4511.88 5.82066
4523.38 5.26740
4534.87 4.85454
4557.86 4.19586
4580.85 3.55416
4592.34 3.17451
4603.83 2.70326
4609.58 2.41189
4615.33 2.06551
4621.08 1.64520
4626.82 1.13090
4629.70 0.837764
4632.57 0.533564
4635.44 0.259351
4636.88 0.167147
4638.32 0.146046
4639.04 0.180661
4639.75 0.261154
4640.47 0.405872
4641.19 0.640416
4641.91 1.00360
4642.63 1.55145
4643.35 2.37184
4644.06 3.60314
4644.78 5.47529
4645.50 8.37110
4646.22 12.9975
4646.94 20.6735
4647.66 34.1608
4648.37 59.5261
4648.73 80.6555
4649.09 111.506
4649.45 157.280
4649.81 225.098
4650.41 396.615
4651.00 543.529
4651.60 474.802
4652.19 322.866
4652.58 245.885
4652.98 191.017
4653.76 124.316
4654.55 88.3575
4655.34 67.1445
4656.12 53.5698
4656.91 44.3502
4658.48 32.8693
4660.06 26.1720
4661.63 21.8621
4664.77 16.7284
4667.92 13.8211
4671.07 11.9677
4674.21 10.6881
4677.36 9.75277
4683.65 8.47418
4689.94 7.63549
4696.23 7.03527
4702.52 6.57649
4715.11 5.88949
4727.69 5.32391
4733.98 5.01574
4737.13 4.82983
4740.27 4.59756
4741.85 4.45140
4743.42 4.27263
4744.99 4.04368
4746.57 3.73262
4747.35 3.52838
4748.14 3.27573
4748.93 2.95410
4749.71 2.53534
4750.11 2.27795
4750.50 1.98667
4750.89 1.67061
4751.29 1.38082
4751.68 1.33226
4751.88 1.63230
4752.07 2.54588
4752.17 3.49386
4752.27 5.04507
4752.37 7.65904
4752.46 12.2333
4752.51 15.8731
4752.56 20.8219
4752.61 27.8132
4752.66 37.9336
4752.71 52.9899
4752.76 76.0369
4752.81 112.177
4752.86 169.801
4752.93 301.353
4753.00 415.058
4753.07 365.738
4753.14 250.452
4753.19 194.646
4753.23 154.210
4753.32 103.409
4753.41 75.1019
4753.50 57.9972
4753.58 46.7923
4753.67 39.1887
4753.85 29.6183
4754.03 23.9498
4754.20 20.3015
4754.55 15.9202
4754.91 13.4312
4755.26 11.8441
4755.61 10.7502
4755.97 9.95521
4756.67 8.87384
4757.38 8.17680
4758.08 7.68880
4758.79 7.32838
4760.20 6.82847
4761.61 6.49577
4763.02 6.25596
4764.43 6.07308
4767.25 5.80808
4770.08 5.62045
4775.72 5.36045
4781.36 5.17771
4787.01 5.03447
4798.30 4.80964
4820.87 4.46893
4843.45 4.18010
4866.02 3.89040
4877.31 3.72859
4888.60 3.53961
4899.89 3.29651
4905.53 3.13645
4911.18 2.92869
4916.82 2.63388
4919.64 2.42763
4922.46 2.15216
4923.87 1.97506
4925.29 1.76012
4926.70 1.49465
4928.11 1.16423
4929.52 0.771502
4930.22 0.583987
4930.93 0.491794
4931.28 0.552017
4931.64 0.780139
4931.99 1.35322
4932.16 1.87925
4932.34 2.67955
4932.52 3.92037
4932.69 5.86430
4932.87 9.04838
4933.05 14.4485
4933.22 24.3260
4933.31 32.3073
4933.40 43.8010
4933.49 60.8428
4933.58 86.8940
4933.66 127.767
4933.75 192.190
4933.88 334.817
4934.00 452.669
4934.13 390.888
4934.25 263.724
4934.36 183.890
4934.47 133.161
4934.57 100.773
4934.68 79.4671
4934.90 53.9860
4935.11 40.0303
4935.33 31.4968
4935.54 25.9072
4935.97 19.1491
4936.40 15.2958
4936.83 12.8566
4937.26 11.1832
4937.69 9.97558
4938.55 8.35103
4939.42 7.31251
4940.28 6.59005
4941.14 6.05553
4942.86 5.30628
4944.58 4.78868
4946.30 4.38925
4948.03 4.05068
4951.47 3.42288
4953.19 3.07795
4954.91 2.66523
4955.77 2.41609
4956.64 2.12511
4957.50 1.78003
4958.36 1.37359
4959.22 0.943761
4959.65 0.792883
4960.08 0.846614
4960.19 0.932199
4960.30 1.06819
4960.51 1.56932
4960.73 2.61233
4960.83 3.50060
4960.94 4.77707
4961.05 6.67490
4961.16 9.50471
4961.26 13.9327
4961.37 20.9967
4961.48 33.0613
4961.59 54.5479
4961.64 71.8759
4961.69 96.3310
4961.75 131.215
4961.80 179.669
4961.90 316.161
4962.00 433.175
4962.10 378.606
4962.20 257.724
4962.27 190.491
4962.35 144.440
4962.42 113.097
4962.50 91.2710
4962.64 64.0432
4962.79 48.5222
4962.94 38.7105
4963.09 32.1234
4963.38 24.0395
4963.68 19.3473
4963.97 16.3510
4964.27 14.2868
4964.56 12.7878
4965.15 10.7672
4965.74 9.48040
4966.34 8.58967
4966.93 7.93924
4968.11 7.04950
4969.29 6.46892
4970.47 6.05757
4971.65 5.74888
4974.01 5.31123
4976.38 5.01034
4981.10 4.60823
4985.83 4.33618
4990.55 4.12646
5000.00 3.78811
5010.67 3.42761
5016.01 3.21945
5021.35 2.96124
5024.01 2.79923
5026.68 2.60204
5029.35 2.35204
5032.02 2.01956
5033.35 1.80760
5034.69 1.55380
5036.02 1.24867
5037.35 0.890828
5038.69 0.533916
5039.36 0.442197
5040.02 0.590387
5040.36 0.884041
5040.69 1.48719
5040.86 1.98554
5041.02 2.68761
5041.19 3.68322
5041.36 5.10166
5041.52 7.18268
5041.69 10.2925
5041.86 15.0840
5042.02 22.7049
5042.19 35.6014
5042.36 58.7088
5042.44 77.2719
5042.52 103.079
5042.61 139.703
5042.69 191.443
5042.85 335.338
5043.00 457.329
5043.16 397.888
5043.31 269.637
5043.41 208.516
5043.50 164.319
5043.69 108.737
5043.88 77.9596
5044.07 59.5405
5044.26 47.5685
5044.46 39.3748
5044.84 29.1479
5045.22 23.1447
5045.60 19.2892
5046.36 14.6965
5047.13 12.1067
5047.89 10.4651
5048.65 9.33922
5049.41 8.52308
5050.94 7.41990
5052.47 6.71131
5053.99 6.21768
5055.52 5.85366
5058.57 5.34983
5061.62 5.01493
5064.67 4.77336
5067.72 4.58874
5073.82 4.31989
5079.93 4.12775
5092.13 3.85648
5104.34 3.65949
5116.54 3.49942
5122.65 3.42852
5128.75 3.36444
5134.85 3.32430
5136.38 3.33473
5137.90 3.39345
5138.67 3.48830
5139.43 3.76671
5139.81 4.15202
5140.00 4.53136
5140.19 5.20603
5140.38 6.60250
5140.48 7.92704
5140.57 10.2176
5140.67 14.7640
5140.72 18.8960
5140.76 25.5040
5140.81 37.6088
5140.84 47.6281
5140.86 61.8072
5140.88 84.8094
5140.91 123.147
5140.93 191.367
5140.95 313.581
5140.98 497.535
5141.00 623.738
5141.02 497.349
5141.05 313.353
5141.07 198.955
5141.09 134.015
5141.11 93.7927
5141.13 69.9463
5141.15 53.5753
5141.17 42.8787
5141.22 29.3064
5141.26 21.6203
5141.30 16.8705
5141.39 11.5682
5141.48 8.83912
5141.56 7.25483
5141.73 5.59049
5141.90 4.77113
5142.08 4.31283
5142.42 3.84018
5143.10 3.48726
5143.79 3.35631
5145.16 3.25257
5146.53 3.20692
5152.02 3.12077
5163.00 3.00378
5173.98 2.89792
5179.47 2.86904
5180.84 2.88464
5182.21 2.95715
5182.90 3.07210
5183.58 3.41044
5183.92 3.87963
5184.10 4.34338
5184.27 5.16784
5184.44 6.87192
5184.53 8.49306
5184.61 11.2477
5184.70 16.6462
5184.74 21.4778
5184.78 29.2853
5184.83 43.0369
5184.87 70.3387
5184.89 95.6956
5184.91 134.425
5184.93 198.798
5184.95 313.315
5184.98 500.731
5185.00 624.560
5185.02 501.808
5185.05 313.996
5185.06 216.724
5185.08 153.413
5185.10 112.854
5185.12 87.2662
5185.15 55.2103
5185.19 38.5739
5185.22 28.4683
5185.26 22.2256
5185.33 15.0127
5185.40 11.1336
5185.47 8.84529
5185.61 6.40674
5185.75 5.18613
5185.90 4.49701
5186.18 3.77837
5186.46 3.43069
5186.74 3.23531
5187.31 3.03282
5188.44 2.87524
5189.57 2.81027
5191.84 2.74692
5194.10 2.70839
5203.16 2.59538
5212.21 2.49021
5221.27 2.38153
5239.38 2.14235
5257.49 1.85576
5275.60 1.48517
5284.65 1.24703
5293.71 0.953719
5298.23 0.780115
5302.76 0.586539
5307.29 0.377569
5311.82 0.180568
5314.08 0.115388
5316.34 0.116580
5317.48 0.165907
5318.61 0.271587
5319.74 0.465360
5320.87 0.799847
5322.00 1.36795
5323.14 2.33925
5324.27 4.04781
5325.40 7.20674
5325.96 9.79505
5326.53 13.5470
5327.10 19.1676
5327.66 27.9380
5328.23 42.3312
5328.79 67.4384
5329.36 114.257
5329.93 204.995
5330.46 351.640
5331.00 469.682
5331.54 400.655
5332.08 266.631
5332.60 176.217
5333.12 122.472
5333.64 89.8421
5334.17 69.0768
5334.69 55.1087
5335.21 45.3185
5336.25 32.7969
5337.30 25.3422
5338.34 20.5136
5340.43 14.7711
5342.52 11.5480
5344.61 9.51979
5346.70 8.13689
5348.79 7.13745
5352.97 5.79067
5357.15 4.92121
5365.50 3.84092
5373.86 3.16141
5382.22 2.65900
5398.93 1.86351
5415.65 1.12360
5424.01 0.735773
5432.36 0.349001
5436.54 0.182229
5438.63 0.118359
5440.72 0.0779423
5442.81 0.0743165
5444.90 0.128611
5445.94 0.187492
5446.99 0.275142
5448.03 0.399728
5449.08 0.571541
5450.12 0.804969
5451.17 1.11887
5453.26 2.10180
5455.34 3.88312
5456.39 5.28656
5457.43 7.23358
5458.48 9.99031
5459.52 13.9821
5460.57 19.9318
5461.61 29.1113
5462.66 43.9324
5463.70 69.0682
5464.75 114.108
5465.79 196.921
5466.90 343.585
5468.00 466.505
5469.11 403.954
5470.21 272.422
5470.94 206.513
5471.67 159.656
5473.13 102.906
5474.59 72.5017
5476.05 54.6240
5477.50 43.2292
5478.96 35.5042
5481.88 25.9295
5484.80 20.3649
5487.72 16.7957
5493.55 12.5535
5499.39 10.1526
5505.22 8.61865
5511.06 7.55467
5516.89 6.77165
5528.56 5.68750
5540.23 4.96039
5563.57 4.00886
5586.91 3.36958
5610.25 2.87117
5633.59 2.44281
5639.42 2.34345
5645.26 2.25028
5648.17 2.21077
5651.09 2.19079
5652.55 2.20750
5654.01 2.29995
5654.74 2.44880
5655.10 2.60177
5655.47 2.88093
5655.83 3.46910
5656.01 4.03645
5656.20 5.03060
5656.38 7.02524
5656.47 8.85166
5656.56 11.8884
5656.65 17.4716
5656.70 22.2511
5656.74 29.3669
5656.79 41.1391
5656.83 61.2108
5656.88 100.294
5656.90 133.118
5656.93 178.742
5656.96 285.683
5657.00 355.836
5657.04 285.970
5657.07 179.104
5657.10 131.779
5657.12 98.2854
5657.17 59.7308
5657.22 39.7574
5657.26 28.4083
5657.31 21.4330
5657.36 16.8695
5657.45 11.4875
5657.55 8.54531
5657.64 6.80046
5657.83 4.89938
5658.02 3.93752
5658.21 3.38907
5658.58 2.81412
5658.96 2.53211
5659.33 2.37220
5660.09 2.20257
5661.59 2.06153
5663.10 1.99455
5666.11 1.91349
5669.12 1.85204
5681.17 1.63885
5705.27 1.22461
5729.37 0.798472
5753.47 0.374017
5765.52 0.186845
5771.55 0.111364
5777.57 0.0575388
5780.59 0.0423189
5783.60 0.0375497
5786.61 0.0458753
5789.62 0.0706554
5792.64 0.116221
5795.65 0.188117
5798.66 0.293622
5801.67 0.442318
5804.68 0.647061
5807.70 0.924981
5810.71 1.29994
5813.72 1.80467
5816.73 2.48633
5819.75 3.41232
5822.76 4.68402
5825.77 6.45428
5828.78 8.96645
5831.80 12.6143
5834.81 18.0746
5837.82 26.5503
5840.83 40.3292
5843.85 63.9622
5846.86 106.903
5849.87 187.447
5852.94 325.211
5856.00 439.001
5859.07 377.936
5862.14 253.373
5864.14 192.091
5866.14 148.373
5870.14 95.3053
5874.13 66.7740
5878.13 49.9620
5882.13 39.2397
5886.13 31.9647
5894.12 22.9276
5902.12 17.6566
5910.11 14.2527
5926.10 10.1464
5942.09 7.74090
5958.08 6.11912
5990.06 3.91641
6022.04 2.25033
6038.03 1.47581
6054.02 0.728855
6062.02 0.391974
6066.01 0.246940
6070.01 0.129429
6074.01 0.0545708
6076.01 0.0401763
6078.01 0.0464262
6080.00 0.0786901
6082.00 0.143883
6084.00 0.250988
6086.00 0.411689
6088.00 0.641757
6090.00 0.962069
6092.00 1.40108
6094.00 1.99769
6095.99 2.80748
6097.99 3.90875
6099.99 5.41605
6101.99 7.49918
6103.99 10.4224
6105.99 14.5992
6107.99 20.7069
6109.99 29.8886
6111.98 44.1755
6113.98 67.2428
6115.98 105.820
6117.98 171.090
6120.49 304.641
6123.00 420.889
6125.51 369.842
6128.02 252.596
6129.56 196.723
6131.09 155.575
6134.16 103.669
6137.23 74.6202
6140.30 57.0120
6143.37 45.5429
6146.44 37.6312
6152.58 27.6271
6158.72 21.6745
6164.86 17.7712
6177.14 12.9800
6189.41 10.1178
6201.69 8.15800
6226.25 5.44437
6250.81 3.32747
6263.09 2.30666
6275.37 1.27607
6287.64 0.342422
6290.71 0.177827
6292.25 0.118519
6293.78 0.0803135
6295.32 0.0690840
6296.85 0.0924155
6298.39 0.160173
6299.92 0.285189
6301.46 0.484743
6302.99 0.781677
6304.53 1.20699
6306.06 1.80318
6307.60 2.62938
6309.13 3.76923
6310.67 5.34318
6312.20 7.52659
6313.74 10.5884
6315.27 14.9375
6316.81 21.2239
6318.34 30.4983
6319.88 44.5415
6321.41 66.3587
6322.95 101.016
6324.48 156.201
6326.74 287.410
6329.00 409.037
6331.26 369.649
6333.52 259.093
6334.95 203.275
6336.37 162.013
6339.22 109.876
6342.08 80.6184
6344.93 62.8093
6347.78 51.1513
6350.63 43.0686
6356.33 32.7802
6362.04 26.6130
6367.74 22.5523
6379.15 17.5730
6390.56 14.6464
6401.96 12.7149
6424.78 10.2955
6447.59 8.80653
6470.40 7.76775
6516.03 6.34197
6561.66 5.32001
6607.28 4.43900
6630.10 3.98277
6641.51 3.72897
6652.91 3.43783
6664.32 3.07306
6670.02 2.83824
6675.73 2.53888
6678.58 2.35085
6681.43 2.12409
6684.28 1.84210
6687.13 1.47971
6688.56 1.25765
6689.98 1.00324
6691.41 0.718962
6692.84 0.433299
6693.55 0.322322
6694.26 0.283621
6694.97 0.418252
6695.33 0.618043
6695.69 0.976891
6696.04 1.59925
6696.40 2.66474
6696.76 4.52875
6697.11 7.89246
6697.29 10.5901
6697.47 14.3762
6697.65 19.8429
6697.83 27.9620
6698.00 40.4196
6698.18 60.2267
6698.36 92.7615
6698.54 146.738
6698.77 259.477
6699.00 356.936
6699.23 312.792
6699.46 213.568
6699.66 151.652
6699.86 111.531
6700.05 85.5020
6700.25 68.0282
6700.64 46.9966
6701.03 35.3494
6701.42 28.1600
6701.81 23.3867
6702.60 17.5691
6703.38 14.2182
6704.16 12.0759
6704.95 10.5987
6705.73 9.52346
6707.30 8.06812
6708.86 7.13154
6710.43 6.47767
6712.00 5.99399
6715.13 5.31990
6718.26 4.86543
6724.53 4.26900
6730.80 3.86976
6737.07 3.56176
6749.60 3.06236
6762.13 2.60297
6768.40 2.35951
6774.67 2.08854
6780.93 1.76441
6784.07 1.56678
6787.20 1.32876
6790.33 1.02556
6791.90 0.837721
6793.47 0.620705
6795.03 0.390792
6795.82 0.303994
6796.60 0.310763
6796.99 0.404982
6797.38 0.633834
6797.78 1.12999
6798.17 2.19584
6798.36 3.15622
6798.56 4.64295
6798.76 7.03106
6798.95 11.0372
6799.15 18.3025
6799.24 24.1923
6799.34 32.6864
6799.44 45.3242
6799.54 64.7561
6799.64 95.4976
6799.73 143.783
6799.87 246.999
6800.00 329.745
6800.13 281.717
6800.27 187.592
6800.37 136.188
6800.47 101.559
6800.57 78.3024
6800.67 62.4203
6800.87 42.7074
6801.07 31.5588
6801.27 24.6177
6801.46 20.0279
6801.86 14.4425
6802.26 11.2491
6802.66 9.23047
6803.46 6.85696
6804.25 5.52389
6805.05 4.67543
6805.85 4.08688
6806.64 3.65273
6808.24 3.04506
6809.83 2.62921
6813.02 2.06171
6816.20 1.65339
6819.39 1.31373
6825.76 0.718552
6832.13 0.221023
6833.73 0.137987
6835.32 0.0940975
6836.91 0.114583
6838.51 0.242814
6839.30 0.369482
6840.10 0.556095
6840.90 0.822847
6841.69 1.19743
6842.49 1.72095
6843.29 2.45026
6844.08 3.47373
6844.88 4.92039
6845.68 7.00076
6846.47 10.0497
6847.27 14.6357
6848.07 21.7521
6848.86 33.2782
6849.66 52.7996
6850.46 87.5945
6851.25 150.963
6852.13 268.056
6853.00 369.615
6853.87 324.682
6854.75 221.827
6855.55 153.496
6856.35 110.770
6857.15 83.8256
6857.95 66.1092
6859.54 45.1860
6861.14 33.7759
6862.74 26.8123
6864.34 22.2124
6867.54 16.6115
6870.73 13.3847
6873.93 11.3099
6877.13 9.87034
6880.32 8.81456
6886.72 7.36624
6893.11 6.41300
6905.90 5.20927
6918.68 4.44918
6931.47 3.89756
6957.04 3.08053
6982.62 2.41425
7008.19 1.74883
7020.98 1.36390
7027.37 1.14051
7033.77 0.883010
7040.16 0.576992
7046.55 0.233032
7048.15 0.162611
7049.75 0.126725
7051.35 0.174546
7052.15 0.263411
7052.95 0.432562
7053.75 0.737013
7054.54 1.27784
7054.94 1.69449
7055.34 2.25902
7055.74 3.03831
7056.14 4.12768
7056.54 5.69304
7056.94 7.99552
7057.34 11.5241
7057.74 17.1556
7058.14 26.7317
7058.54 44.1677
7058.74 58.4274
7058.94 78.9576
7059.14 108.985
7059.34 152.523
7059.67 259.957
7060.00 345.463
7060.33 293.114
7060.66 194.105
7061.03 120.515
7061.40 80.1590
7061.77 57.1367
7062.14 43.0624
7062.51 33.8694
7062.88 27.5704
7063.62 19.6840
7064.36 15.0789
7065.09 12.1352
7066.57 8.66272
7068.05 6.72538
7069.53 5.50539
7072.48 4.06347
7075.43 3.23440
7078.39 2.68657
7084.29 1.97881
7090.20 1.50777
7096.11 1.14409
7107.92 0.567344
7113.83 0.330757
7119.74 0.143649
7122.69 0.0825061
7125.64 0.0583618
7128.60 0.0925728
7130.08 0.142119
7131.55 0.221686
7133.03 0.340463
7134.51 0.510769
7135.98 0.749668
7137.46 1.08111
7138.94 1.53933
7140.41 2.17434
7141.89 3.06104
7143.37 4.31373
7144.84 6.11755
7146.32 8.77537
7147.80 12.8125
7149.27 19.1814
7150.75 29.7447
7152.23 48.3284
7153.70 83.2312
7154.44 111.694
7155.18 151.415
7156.59 263.102
7158.00 355.755
7159.41 306.946
7160.82 206.259
7161.77 155.164
7162.72 119.095
7163.67 93.8543
7164.62 75.8886
7166.51 52.9797
7168.41 39.5979
7170.31 31.1079
7172.21 25.3713
7176.00 18.2727
7179.80 14.1511
7183.59 11.5037
7191.18 8.34155
7198.77 6.53016
7206.36 5.35316
7221.54 3.89017
7236.73 2.98364
7251.91 2.33812
7282.27 1.42170
7312.63 0.761678
7342.99 0.277440
7358.17 0.114286
7365.76 0.0622912
7373.35 0.0395587
7377.15 0.0437990
7380.95 0.0632364
7384.74 0.105161
7388.54 0.184923
7390.43 0.249317
7392.33 0.341965
7394.23 0.482705
7396.13 0.715218
7398.02 1.15674
7398.97 1.55598
7399.92 2.22550
7400.40 2.75355
7400.87 3.51386
7401.34 4.68032
7401.82 6.61090
7402.29 10.2096
7402.53 13.3121
7402.77 18.1745
7403.00 26.4224
7403.24 41.9904
7403.36 55.4530
7403.48 75.8717
7403.60 108.567
7403.72 160.457
7403.86 252.482
7404.00 309.422
7404.14 242.559
7404.29 148.929
7404.40 97.3653
7404.52 65.9784
7404.64 46.6400
7404.76 34.2501
7405.00 20.2246
7405.24 13.0773
7405.47 8.98533
7405.71 6.46255
7405.95 4.81094
7406.19 3.68216
7406.66 2.28327
7407.14 1.49910
7407.61 1.02299
7408.09 0.717558
7409.04 0.373065
7409.99 0.204534
7411.89 0.0762498
7413.79 0.0558186
7415.69 0.0766677
7419.50 0.170015
7427.10 0.456637
7434.71 0.858699
7442.31 1.40833
7449.92 2.15967
7457.52 3.19279
7465.13 4.62874
7472.73 6.65890
7480.34 9.60025
7487.94 14.0158
7495.55 20.9899
7503.16 32.8590
7510.76 55.4673
7514.56 75.3310
7518.37 106.709
7522.17 159.283
7525.97 249.150
7529.49 364.718
7531.24 407.306
7533.00 408.614
7536.52 286.631
7540.04 154.109
7542.02 106.828
7543.99 75.3043
7545.97 54.7410
7547.95 41.6086
7549.93 33.5954
7551.90 29.2497
7555.86 28.3630
7559.81 35.5159
7563.76 50.2383
7567.72 73.7602
7571.67 108.427
7576.00 162.252
7580.34 232.539
7589.00 364.119
7593.34 376.426
7597.67 348.072
7606.34 251.573
7612.98 189.807
7619.63 145.650
7626.27 114.488
7632.91 91.8452
7639.56 74.4857
7646.20 59.7612
7649.52 52.2790
7651.18 48.1046
7652.84 43.2835
7654.50 37.2385
7655.33 33.4274
7656.16 28.8024
7657.00 23.0727
7657.41 19.7840
7657.83 16.4156
7658.24 13.7178
7658.45 13.2952
7658.66 14.3913
7658.86 18.5631
7658.97 22.6985
7659.07 28.9465
7659.17 38.3928
7659.28 52.3940
7659.38 72.9349
7659.49 102.310
7659.61 156.225
7659.74 232.146
7660.00 401.026
7660.13 438.924
7660.26 430.318
7660.52 350.202
7660.67 300.049
7660.83 259.130
7661.15 202.183
7661.46 166.685
7661.78 143.443
7662.09 127.229
7662.41 115.436
7663.04 99.4630
7663.67 89.1506
7664.30 81.9279
7665.56 72.3767
7666.82 66.2020
7668.08 61.7753
7670.61 55.6096
7673.13 51.2997
7675.65 47.9708
7680.70 42.9120
7690.79 35.9164
7700.88 30.9542
7721.06 23.9626
7741.24 18.9711
7761.43 14.8619
7771.52 12.8803
7781.61 10.7754
7791.70 8.32475
7796.74 6.85157
7801.79 5.11625
7806.84 3.05450
7809.36 1.94105
7811.88 0.939506
7813.14 0.616048
7813.77 0.551762
7814.40 0.589589
7815.03 0.772391
7815.66 1.16093
7816.30 1.84622
7816.93 2.95919
7817.56 4.70548
7818.19 7.39699
7818.82 11.5303
7819.45 17.8988
7820.08 27.8570
7820.71 43.6100
7821.34 68.9275
7821.97 109.406
7822.99 219.893
7824.00 337.274
7824.51 349.006
7825.02 324.751
7826.03 240.392
7827.01 174.542
7828.00 131.879
7828.98 104.368
7829.96 85.9090
7830.95 72.9606
7831.93 63.5060
7833.89 50.8072
7835.86 42.7807
7837.83 37.2950
7841.76 30.3168
7845.69 26.0591
7849.62 23.1733
7857.48 19.4487
7865.35 17.0784
7873.21 15.3796
7888.94 12.9844
7904.66 11.2557
7920.39 9.85554
7951.84 7.50022
7983.29 5.29506
7999.02 4.13037
8014.75 2.86540
8030.47 1.48287
8038.34 0.788606
8042.27 0.473647
8046.20 0.215928
8048.16 0.124442
8050.13 0.0714776
8052.10 0.0723767
8054.06 0.148877
8056.03 0.332514
8057.01 0.478189
8057.99 0.669559
8059.96 1.22958
8061.92 2.11919
8063.89 3.50920
8065.86 5.67797
8067.82 9.10058
8069.79 14.6198
8071.75 23.8224
8073.72 39.8072
8075.69 68.8202
8077.65 122.590
8079.83 225.117
8082.00 319.101
8084.18 286.494
8086.36 199.033
8088.74 130.679
8091.11 90.8651
8093.48 67.1027
8095.86 52.0025
8098.23 41.8047
8100.61 34.5494
8105.35 24.9995
8110.10 18.9864
8114.85 14.7811
8124.35 8.97933
8133.84 4.71239
8138.59 2.87003
8143.34 1.29321
8145.71 0.718990
8146.90 0.533329
8148.09 0.449744
8149.27 0.508103
8150.46 0.766102
8151.05 0.995268
8151.65 1.30849
8152.83 2.26195
8154.02 3.81961
8155.21 6.28267
8156.40 10.1325
8157.58 16.1584
8158.77 25.6860
8159.96 40.9774
8161.14 65.8571
8162.33 106.280
8164.17 212.196
8166.00 322.786
8166.92 332.557
8167.84 308.056
8169.67 225.887
8171.40 163.800
8173.13 123.253
8174.86 96.8716
8176.58 79.0642
8180.04 57.2834
8183.50 44.8237
8186.95 36.8669
8190.41 31.3664
8197.32 24.2151
8204.24 19.6722
8211.15 16.4138
8224.98 11.6750
8238.80 7.79538
8245.72 5.86171
8252.63 3.83088
8259.54 1.76106
8263.00 0.873073
8264.73 0.560472
8265.59 0.463684
8266.45 0.423086
8267.32 0.455956
8268.18 0.584880
8269.05 0.839915
8269.91 1.26134
8270.78 1.90364
8271.64 2.84132
8272.50 4.17751
8273.37 6.05668
8274.23 8.68751
8275.10 12.3594
8275.96 17.5050
8276.82 24.7579
8277.69 35.0559
8278.55 49.7789
8279.42 70.8970
8280.28 100.991
8282.14 205.728
8284.00 318.627
8284.93 330.983
8285.86 308.990
8287.72 229.942
8288.89 186.605
8290.06 153.403
8292.41 109.888
8294.75 84.4751
8297.09 68.5049
8299.44 57.7689
8301.78 50.1533
8306.47 40.1712
8311.15 33.9698
8315.84 29.7570
8325.21 24.3837
8334.58 21.0641
8343.96 18.7716
8362.70 15.7139
8381.45 13.6381
8400.19 11.9495
8409.57 11.0943
8414.25 10.6123
8418.94 10.0437
8423.63 9.29605
8425.97 8.79106
8428.31 8.12046
8429.48 7.68504
8430.65 7.14730
8431.83 6.45929
8433.00 5.54501
8433.58 4.96520
8434.17 4.27683
8434.76 3.45976
8435.34 2.51911
8435.93 1.58395
8436.22 1.30347
8436.51 1.48881
8436.66 1.97162
8436.81 2.94845
8436.95 4.79215
8437.10 8.13908
8437.17 10.7824
8437.25 14.3382
8437.32 19.2134
8437.39 25.9577
8437.46 35.3769
8437.54 48.6432
8437.61 67.4070
8437.68 93.7890
8437.84 184.993
8438.00 279.401
8438.08 287.766
8438.16 266.773
8438.32 196.358
8438.47 144.126
8438.61 109.992
8438.76 87.6492
8438.90 72.5040
8439.20 53.9298
8439.49 43.4052
8439.78 36.7435
8440.07 32.2301
8440.66 26.5415
8441.24 23.1443
8441.83 20.8993
8442.41 19.3090
8443.00 18.1240
8444.17 16.4741
8445.34 15.3758
8446.51 14.5873
8447.68 13.9897
8450.02 13.1337
8452.36 12.5381
8457.04 11.7330
8461.72 11.1834
8466.40 10.7622
8475.76 10.1155
8494.47 9.16340
8513.19 8.39707
8550.63 7.05865
8588.06 5.76112
8625.50 4.32559
8644.22 3.48868
8662.94 2.52174
8681.66 1.39231
8691.02 0.787708
8700.37 0.246923
8702.71 0.147569
8705.05 0.0771601
8707.39 0.0485015
8709.73 0.0799641
8712.07 0.198403
8713.24 0.302004
8714.41 0.443663
8716.75 0.876151
8719.09 1.58932
8721.43 2.73365
8723.77 4.55656
8726.11 7.48306
8728.45 12.2727
8730.79 20.3633
8733.13 34.5841
8735.47 60.6842
8737.81 109.605
8740.41 204.557
8743.00 294.556
8745.60 268.608
8748.20 189.561
8751.27 122.735
8754.34 85.1374
8757.41 63.3094
8760.48 49.7010
8763.55 40.6400
8766.61 34.2698
8772.75 26.0245
8778.89 20.9760
8785.03 17.5769
8797.30 13.2504
8809.58 10.5269
8821.85 8.55754
8846.41 5.60680
8870.96 3.11444
8883.23 1.91667
8895.51 0.812319
8901.65 0.377486
8904.72 0.224623
8907.78 0.140750
8909.32 0.133770
8910.85 0.156507
8912.39 0.215128
8913.92 0.317055
8915.46 0.471641
8916.99 0.690060
8918.53 0.986512
8920.06 1.37862
8923.13 2.54471
8926.20 4.44736
8929.27 7.51480
8932.34 12.4776
8935.40 20.6235
8938.47 34.2842
8941.54 57.6957
8944.61 97.9812
8948.81 193.351
8953.00 291.611
8955.10 299.394
8957.20 276.506
8961.39 201.859
8964.72 153.311
8968.06 119.402
8971.39 96.0576
8974.73 79.6267
8981.39 58.7638
8988.06 46.4788
8994.73 38.5501
9001.39 33.0674
9014.73 26.0276
9028.06 21.7027
9041.40 18.7532
9068.07 14.8915
9094.73 12.3228
9121.40 10.2905
9134.74 9.32743
9148.07 8.28345
9154.74 7.65325
9158.07 7.27214
9161.41 6.80613
9164.74 6.17928
9166.41 5.75382
9168.07 5.19306
9168.91 4.83313
9169.74 4.39524
9170.57 3.84757
9171.41 3.14768
9172.24 2.24776
9173.07 1.25079
9173.49 1.07473
9173.70 1.37742
9173.91 2.37141
9174.01 3.38363
9174.12 4.98254
9174.22 7.53502
9174.32 11.6683
9174.43 18.5208
9174.53 30.2338
9174.64 50.8883
9174.74 87.7347
9174.87 167.910
9175.00 248.036
9175.07 252.711
9175.13 231.923
9175.26 167.741
9175.38 121.748
9175.50 91.7809
9175.62 72.3260
9175.74 59.3187
9175.97 43.3788
9176.21 34.4256
9176.45 28.7909
9176.69 24.9972
9177.16 20.2506
9177.63 17.4274
9178.11 15.5706
9178.58 14.2592
9179.06 13.2856
9180.01 11.9276
9180.96 11.0226
9181.91 10.3696
9182.86 9.87106
9184.75 9.14616
9186.65 8.62900
9190.45 7.89787
9194.25 7.36196
9198.05 6.91905
9205.64 6.15917
9220.83 4.77784
9236.02 3.33412
9251.21 1.73414
9258.81 0.924381
9262.60 0.561607
9266.40 0.274920
9268.30 0.181062
9270.20 0.137749
9272.10 0.164363
9274.00 0.287750
9275.89 0.545927
9277.79 0.992910
9279.69 1.70699
9281.59 2.80284
9283.49 4.45490
9285.39 6.92873
9287.29 10.6420
9289.19 16.2618
9291.08 24.8931
9292.98 38.3551
9294.88 59.6233
9296.78 93.1356
9299.89 184.838
9303.00 280.319
9304.56 288.624
9306.12 267.259
9309.23 196.069
9312.61 136.122
9315.99 99.6363
9319.37 77.2195
9322.75 62.6786
9326.13 52.7084
9329.51 45.5474
9336.27 36.0696
9343.03 30.1479
9349.79 26.1174
9363.30 20.9718
9376.82 17.7752
9390.34 15.5305
9417.38 12.3585
9444.41 9.81889
9457.93 8.52041
9471.45 7.04890
9484.97 5.22077
9491.73 4.08785
9498.48 2.76184
9505.24 1.28890
9508.62 0.619621
9510.31 0.375373
9512.00 0.261142
9512.85 0.281505
9513.69 0.376609
9514.54 0.571075
9515.38 0.898114
9516.23 1.40299
9517.07 2.14809
9517.92 3.22046
9518.76 4.74109
9519.61 6.88992
9520.45 9.92227
9521.30 14.2172
9522.14 20.3411
9522.99 29.1465
9523.83 41.9122
9524.68 60.5018
9525.52 87.3690
9527.26 177.432
9529.00 274.419
9529.87 285.085
9530.75 266.157
9532.49 198.167
9533.94 150.872
9535.40 118.040
9536.85 95.6117
9538.30 79.9238
9541.21 60.0978
9544.11 48.4754
9547.02 40.9906
9549.92 35.8272
9555.73 29.2255
9561.54 25.2083
9567.35 22.5103
9578.98 19.0993
9590.60 17.0053
9602.22 15.5641
9625.46 13.6514
9648.70 12.3794
9671.95 11.4231
9718.43 9.96031
9764.92 8.72488
9788.16 8.09953
9811.40 7.40931
9834.64 6.56691
9846.26 6.03276
9857.89 5.35856
9869.51 4.43558
9875.32 3.81437
9881.13 3.02136
9886.94 1.98159
9889.84 1.35411
9892.75 0.692771
9894.20 0.396566
9895.66 0.196844
9896.38 0.171810
9897.11 0.233841
9897.83 0.429903
9898.56 0.834303
9899.29 1.56888
9900.01 2.83365
9900.74 4.97999
9901.47 8.64341
9902.19 15.0432
9902.92 26.5723
9903.64 48.1784
9904.01 65.5389
9904.37 89.4537
9905.19 172.796
9906.00 256.562
9906.41 261.769
9906.82 240.470
9907.63 174.029
9908.42 124.052
9909.21 92.2632
9910.00 72.0293
9910.79 58.5949
9911.58 49.2552
9912.36 42.4899
9913.94 33.5000
9915.52 27.8861
9917.10 24.0941
9920.25 19.3439
9923.41 16.5023
9926.56 14.6100
9932.87 12.2177
9939.18 10.7209
9945.49 9.64533
9958.12 8.03995
9970.74 6.62014
9977.05 5.83444
9983.36 4.89932
9989.67 3.68572
9992.82 2.91247
9995.98 1.99189
9999.14 0.954565
10000.7 0.483849
10001.5 0.315823
10002.3 0.248136
10003.1 0.361226
10003.9 0.800488
10004.3 1.22650
10004.7 1.83990
10005.1 2.75079
10005.5 4.02365
10005.9 5.89156
10006.2 8.50477
10006.6 12.3836
10007.0 17.9170
10007.4 26.3455
10007.8 38.7206
10008.2 57.4600
10008.6 85.7455
10009.3 168.693
10010.0 254.309
10010.4 261.097
10010.7 241.148
10011.4 176.198
10012.0 131.928
10012.6 101.780
10013.2 81.4784
10013.8 67.4289
10014.9 49.9049
10016.1 39.7655
10017.3 33.3059
10018.5 28.8864
10020.8 23.2947
10023.2 19.9352
10025.6 17.7034
10030.3 14.9266
10035.0 13.2492
10039.7 12.1147
10049.1 10.6448
10058.6 9.69486
10068.0 9.00141
10086.9 7.98860
10105.7 7.21366
10124.6 6.54392
10162.3 5.30055
10200.1 3.99227
10219.0 3.25933
10237.8 2.44660
10256.7 1.53841
10275.5 0.570009
10280.3 0.345741
10285.0 0.156971
10287.3 0.0877564
10289.7 0.0466937
10292.1 0.0484586
10294.4 0.116590
10296.8 0.292730
10298.0 0.442587
10299.1 0.651810
10300.3 0.941281
10301.5 1.34148
10302.7 1.89816
10303.8 2.67446
10305.0 3.79715
10306.2 5.45332
10307.4 7.98682
10308.6 12.0541
10309.7 19.0157
10310.9 31.9798
10311.5 42.8129
10312.1 58.7877
10312.7 82.8653
10313.3 118.389
10314.1 196.709
10315.0 253.143
10315.9 208.189
10316.7 133.150
10317.7 80.6478
10318.6 52.1393
10319.5 35.8655
10320.5 25.9378
10321.4 19.4374
10322.3 15.0481
10324.2 9.59804
10326.1 6.44901
10327.9 4.48044
10329.8 3.15863
10331.7 2.24705
10333.5 1.60131
10335.4 1.15331
10337.3 0.854940
10339.1 0.685310
10341.0 0.630574
10342.9 0.687956
10344.7 0.860225
10346.6 1.15666
10348.4 1.59511
10350.3 2.19239
10354.0 3.99882
10357.8 6.92652
10361.5 11.5561
10365.2 18.8483
10369.0 30.3976
10372.7 48.8030
10376.4 77.8721
10382.7 161.700
10389.0 253.274
10392.2 264.171
10395.3 247.463
10401.6 185.097
10406.3 145.438
10410.9 116.457
10415.6 95.7493
10420.2 80.7724
10429.5 61.1431
10438.8 49.2700
10448.1 41.4664
10457.4 36.0185
10476.0 28.9728
10494.6 24.6498
10513.1 21.7345
10550.3 18.0418
10587.5 15.7704
10624.7 14.2008
10699.0 12.0752
10773.4 10.5508
10847.7 9.16432
10884.9 8.37353
10903.5 7.89973
10922.1 7.32238
10940.7 6.54941
10950.0 6.02782
10959.2 5.34506
10963.9 4.90927
10968.5 4.38040
10973.2 3.72175
10977.8 2.88195
10982.5 1.79545
10987.1 0.542317
10988.3 0.299733
10989.5 0.200497
10990.0 0.250462
10990.6 0.410070
10991.2 0.732227
10991.8 1.29785
10992.4 2.23352
10992.9 3.74253
10993.5 6.16107
10994.1 10.0631
10994.7 16.4611
10995.3 27.1889
10995.8 45.5812
10996.4 77.2681
10997.2 153.289
10998.0 231.126
10998.4 237.784
10998.8 219.860
10999.6 161.593
11000.2 126.491
11000.7 100.969
11001.3 82.7641
11001.9 69.7894
11003.0 52.6441
11004.1 42.2831
11005.3 35.5059
11006.4 30.7908
11008.6 24.7397
11010.9 21.0648
11013.2 18.6116
11017.7 15.5470
11022.2 13.6961
11026.7 12.4458
11035.8 10.8122
11044.8 9.72846
11053.9 8.89586
11072.0 7.50928
11090.0 6.09845
11099.1 5.25606
11108.1 4.22903
11117.2 2.90426
11121.7 2.09413
11126.2 1.19702
11130.7 0.364730
11131.9 0.228092
11133.0 0.161350
11134.1 0.206129
11135.3 0.428585
11136.4 0.936360
11137.0 1.35365
11137.5 1.90967
11138.1 2.66830
11138.7 3.66048
11139.8 6.75013
11140.9 12.2321
11142.0 22.1657
11143.2 40.6641
11144.3 75.4815
11145.7 151.009
11147.0 230.734
11147.7 238.444
11148.4 221.376
11149.7 163.552
11150.6 131.676
11151.4 107.780
11153.2 76.7316
11154.9 58.6844
11156.6 47.4977
11158.3 39.9818
11160.1 34.7060
11163.5 27.8091
11167.0 23.5539
11170.4 20.6757
11177.3 17.0155
11184.2 14.7317
11191.1 13.1155
11204.9 10.7701
11218.7 8.77888
11225.6 7.70159
11232.5 6.43552
11239.4 4.80789
11242.8 3.78119
11246.3 2.57601
11249.7 1.23799
11251.4 0.639494
11252.3 0.430005
11253.2 0.343610
11254.0 0.474216
11254.9 0.977878
11255.3 1.45049
11255.7 2.13732
11256.2 3.11237
11256.6 4.47859
11257.0 6.38085
11257.5 9.02547
11257.9 12.7094
11258.3 17.8638
11258.8 25.1166
11259.2 35.3746
11259.6 49.9084
11260.0 70.3575
11260.5 103.003
11261.0 146.051
11262.0 229.961
11262.5 240.685
11263.0 226.295
11264.0 170.631
11264.7 133.814
11265.5 107.473
11266.2 88.7522
11266.9 75.2434
11268.4 57.6504
11269.9 47.0348
11271.4 40.0409
11272.9 35.1976
11275.8 28.9449
11278.8 25.1048
11281.8 22.5317
11287.7 19.2845
11293.6 17.3129
11299.5 15.9769
11311.4 14.2527
11323.3 13.1582
11335.1 12.3786
11358.8 11.2936
11382.6 10.5242
11406.3 9.90854
11453.7 8.86945
11501.1 7.83897
11524.9 7.23725
11548.6 6.49802
11572.3 5.49246
11584.2 4.81055
11596.0 3.92735
11607.9 2.73629
11613.8 1.98660
11619.7 1.14109
11625.7 0.337176
11627.2 0.199145
11628.6 0.126355
11630.1 0.156916
11631.6 0.353231
11632.3 0.546218
11633.1 0.821379
11633.8 1.20453
11634.6 1.72682
11635.3 2.42957
11636.0 3.36804
11637.5 6.27854
11639.0 11.4596
11640.5 20.8678
11642.0 38.4086
11643.4 71.4479
11645.2 143.917
11647.0 221.140
11647.9 229.033
11648.8 213.292
11650.6 158.163
11651.7 128.674
11652.8 106.201
11654.9 76.4089
11657.1 58.9215
11659.3 47.9127
11661.5 40.5183
11663.7 35.2810
11668.1 28.4490
11672.5 24.2433
11676.8 21.4163
11685.6 17.8774
11694.4 15.7476
11703.1 14.3193
11720.6 12.4977
11738.1 11.3473
11755.7 10.5203
11790.7 9.30931
11825.7 8.31067
11843.2 7.80213
11860.7 7.23256
11878.2 6.52191
11887.0 6.06211
11895.8 5.47257
11904.5 4.64739
11908.9 4.08079
11913.3 3.34522
11915.5 2.88634
11917.6 2.34924
11919.8 1.72319
11922.0 1.02114
11924.2 0.370537
11925.3 0.225441
11925.9 0.280320
11926.4 0.485855
11927.0 0.945122
11927.5 1.81976
11927.8 2.50971
11928.1 3.39804
11928.6 6.14224
11929.1 11.1504
11929.7 20.1877
11930.0 27.6644
11930.2 37.7057
11930.5 51.6557
11930.8 70.9127
11931.4 140.374
11932.0 210.979
11932.3 217.113
11932.6 200.878
11933.2 147.213
11934.0 100.347
11934.7 73.0149
11935.4 56.5152
11936.1 45.9381
11936.8 38.6662
11937.5 33.5622
11938.9 26.8604
11940.3 22.6928
11941.7 19.9113
11944.5 16.4278
11947.3 14.3350
11950.1 12.9440
11955.7 11.1818
11961.3 10.0873
11966.9 9.31618
11978.1 8.23713
11989.4 7.44098
12000.6 6.75987
12023.0 5.45762
12045.5 3.96095
12056.7 3.05063
12067.9 1.99404
12079.1 0.841227
12084.8 0.341608
12087.6 0.175073
12090.4 0.124208
12091.8 0.166519
12093.2 0.272764
12094.6 0.463281
12096.0 0.765105
12097.4 1.21857
12098.8 1.86736
12100.2 2.78287
12101.6 4.06107
12103.0 5.85253
12104.4 8.32739
12105.8 11.7783
12107.2 16.6175
12108.6 23.5082
12110.0 33.2420
12111.4 47.1118
12112.8 66.7459
12115.9 137.177
12119.0 214.114
12120.6 223.174
12122.1 209.004
12125.2 156.480
12127.8 119.621
12130.4 93.9218
12132.9 76.3143
12135.5 63.9645
12140.7 48.3341
12145.8 39.1623
12151.0 33.2361
12156.2 29.1439
12166.5 23.9150
12176.8 20.7324
12187.1 18.5998
12207.7 15.9102
12228.4 14.2660
12249.0 13.1367
12290.2 11.6277
12331.5 10.5748
12372.7 9.64866
12393.4 9.12365
12403.7 8.80268
12414.0 8.39954
12424.3 7.83205
12429.5 7.42973
12434.6 6.87977
12437.2 6.51454
12439.8 6.05672
12442.4 5.46327
12444.9 4.66588
12446.2 4.15262
12447.5 3.53652
12448.8 2.79356
12450.1 1.91186
12451.4 0.966213
12452.0 0.592801
12452.7 0.534795
12453.0 0.784851
12453.3 1.38473
12453.7 2.59301
12454.0 4.87677
12454.1 6.67462
12454.3 9.12999
12454.5 12.4967
12454.6 17.1389
12454.8 23.5802
12454.9 32.5663
12455.1 45.1246
12455.3 62.5579
12455.4 91.3816
12455.6 129.280
12456.0 200.056
12456.2 208.624
12456.4 195.090
12456.8 146.859
12457.0 114.596
12457.3 92.1032
12457.6 76.1029
12457.9 64.5449
12458.5 49.2769
12459.0 40.2605
12459.6 34.2650
12460.1 30.1689
12461.3 24.8547
12462.4 21.6259
12463.5 19.4723
12464.7 17.9390
12465.8 16.7937
12468.1 15.1989
12470.3 14.1409
12472.6 13.3862
12474.8 12.8213
12479.3 12.0203
12483.9 11.4775
12488.4 11.0786
12492.9 10.7703
12501.9 10.3130
12511.0 9.98000
12529.0 9.49736
12547.1 9.13412
12565.1 8.82708
12601.3 8.27611
12637.4 7.70978
12655.5 7.38106
12673.5 6.98311
12691.6 6.44631
12700.6 6.07829
12709.7 5.58558
12714.2 5.26378
12718.7 4.86455
12723.2 4.35204
12727.7 3.66820
12730.0 3.23134
12732.3 2.70919
12734.5 2.08267
12736.8 1.34840
12739.0 0.573322
12740.2 0.288779
12741.3 0.299597
12741.9 0.564020
12742.4 1.15688
12743.0 2.35142
12743.3 3.28802
12743.5 4.56685
12743.8 6.38770
12744.1 8.81312
12744.4 12.1631
12744.7 16.8281
12745.0 23.3830
12745.2 32.6685
12745.5 45.8746
12745.8 64.5429
12746.4 129.634
12747.0 197.107
12747.3 203.689
12747.6 189.283
12748.2 140.447
12748.9 98.7588
12749.5 73.3925
12750.2 57.3893
12750.8 47.1005
12751.4 39.9087
12752.1 34.8130
12753.4 28.0523
12754.7 23.8081
12755.9 20.9460
12758.5 17.3756
12761.1 15.2379
12763.7 13.8285
12766.2 12.8228
12768.8 12.0732
12774.0 11.0193
12779.1 10.3089
12784.3 9.79123
12789.4 9.39223
12799.7 8.80395
12810.0 8.37508
12830.6 7.74610
12851.2 7.25624
12871.8 6.82017
12913.0 5.96020
12954.2 4.95007
12974.8 4.31451
12995.4 3.52465
13016.0 2.49172
13026.3 1.84729
13036.6 1.11062
13046.9 0.359720
13049.5 0.206601
13052.1 0.0947982
13054.6 0.0518183
13057.2 0.124254
13058.5 0.226560
13059.8 0.390842
13061.1 0.636077
13062.4 0.984490
13063.7 1.47574
13064.9 2.15471
13066.2 3.08696
13067.5 4.35326
13068.8 6.10435
13070.1 8.52281
13071.4 11.8899
13072.7 16.5815
13074.0 23.2953
13075.2 32.8495
13076.5 46.7402
13077.8 66.5033
13080.4 130.158
13083.0 195.328
13084.3 200.621
13085.6 185.627
13088.2 136.121
13089.9 108.102
13091.7 87.2067
13095.2 60.7070
13098.6 45.7584
13102.1 36.5832
13105.6 30.5189
13109.1 26.2666
13116.0 20.7637
13123.0 17.3716
13130.0 15.0728
13143.9 12.1213
13157.8 10.2421
13171.7 8.87450
13199.5 6.81612
13227.4 5.06201
13255.2 3.24381
13269.1 2.22659
13276.1 1.67916
13283.0 1.10828
13290.0 0.534437
13293.5 0.275106
13296.9 0.0890274
13298.7 0.0612770
13300.4 0.125333
13302.2 0.365407
13303.0 0.603329
13303.9 0.972324
13304.8 1.54401
13305.6 2.44250
13306.5 3.89589
13307.4 6.35482
13308.2 10.7940
13308.7 14.4382
13309.1 19.5709
13309.6 27.3893
13310.0 39.1440
13310.4 57.6692
13310.8 87.0129
13311.4 147.588
13312.0 194.813
13312.6 163.417
13313.2 107.193
13313.6 78.2266
13314.0 58.3711
13314.4 44.8154
13314.8 35.3580
13315.6 23.5599
13316.4 16.8843
13317.3 12.6573
13318.1 9.86400
13319.7 6.41914
13321.3 4.43117
13323.0 3.17623
13324.6 2.32310
13326.2 1.71947
13327.9 1.28322
13329.5 0.975469
13331.1 0.768647
13332.8 0.649868
13334.4 0.613826
13336.0 0.661103
13337.7 0.795816
13339.3 1.02659
13342.6 1.83485
13345.8 3.24072
13349.1 5.51503
13352.4 9.05894
13355.6 14.5540
13358.9 23.0026
13362.1 36.0088
13365.4 55.8365
13368.6 83.8681
13371.7 121.387
13378.0 197.055
13381.2 208.722
13384.3 198.286
13390.6 151.957
13395.1 121.845
13399.7 99.3021
13404.2 82.8191
13408.7 70.7017
13417.8 54.5333
13426.9 44.5347
13435.9 37.8286
13445.0 33.0403
13463.1 26.5919
13481.3 22.2004
13499.4 18.4328
13508.5 16.2919
13513.0 14.9781
13517.6 13.3447
13522.1 11.1252
13524.4 9.64696
13526.6 7.79693
13528.9 5.43204
13531.2 2.66208
13532.3 1.59742
13532.9 1.53996
13533.1 1.76311
13533.4 2.24791
13533.7 3.14436
13534.0 4.55682
13534.3 6.74607
13534.6 10.0618
13534.8 15.2373
13535.1 22.7046
13535.4 33.7139
13535.7 49.7506
13536.0 77.3925
13536.3 115.841
13537.0 199.775
13537.3 217.176
13537.7 211.211
13538.3 168.767
13538.9 131.900
13539.5 105.950
13540.2 88.2198
13540.8 75.8058
13542.0 60.0640
13543.2 50.8011
13544.4 44.7072
13545.6 40.4524
13548.1 34.9424
13550.5 31.5047
13552.9 29.1635
13557.8 26.1326
13562.7 24.2270
13567.5 22.8916
13577.3 21.0911
13587.0 19.8864
13596.8 18.9931
13616.2 17.7060
13635.7 16.7855
13655.2 16.0737
13694.2 15.0152
13733.1 14.2465
13772.1 13.6529
13850.0 12.7816
13850.0 16.7665
14000.0 16.7007
15000.0 16.2872
16000.0 15.9123
17000.0 15.5705
18000.0 15.2569
19000.0 14.9678
20000.0 14.7003
25000.0 13.6067
30000.0 12.7914
35000.0 12.1514
40000.0 11.6302
50000.0 10.8217
60000.0 10.2129
70000.0 9.73078
80000.0 9.33504
90000.0 9.00165
100000 8.71510
110000 8.46495
120000 8.24379
130970 8.02821
130970 8.02440
131086 8.02157
131086 8.02156
135000 7.92610
150000 7.67527
200000 7.09596
250000 6.76113
300000 6.56783
381550 6.43622
384016 6.43224
384017 6.43224
400000 6.40644
500000 6.41857
600000 6.50178
679914 6.58673
693000 6.60064
693000 6.60064
700000 6.60808
725247 6.63491
725247 6.63491
800000 6.71437
856383 6.77431
856383 6.77431
858679 6.77675
858679 6.77675
900000 6.82067
941150 6.85680
941150 6.85680
1.00000E+06 6.90846
1.10000E+06 6.97819
1.20000E+06 7.02959
1.30000E+06 7.06355
1.40000E+06 7.08146
1.50000E+06 7.07864
1.60000E+06 7.07582
1.70000E+06 7.05085
1.80000E+06 7.02588
1.90000E+06 6.98454
2.00000E+06 6.94319
2.50000E+06 6.64727
3.00000E+06 6.28455
3.50000E+06 5.92182
4.00000E+06 5.57242
4.94102E+06 5.06500
5.00000E+06 5.03320
5.05176E+06 5.01952
5.05176E+06 5.01952
6.00000E+06 4.76886
7.00000E+06 4.70744
7.13569E+06 4.71037
7.40000E+06 4.71606
7.42965E+06 4.71670
7.42965E+06 4.71670
7.50000E+06 4.71822
8.00000E+06 4.74483
9.00000E+06 4.82872
1.00000E+07 4.94046
1.00622E+07 4.94741
1.00623E+07 4.94741
1.10000E+07 5.05219
1.20000E+07 5.16393
1.25015E+07 5.20595
1.25016E+07 5.20595
1.30000E+07 5.24771
1.40000E+07 5.29920
1.45000E+07 5.30756
1.50000E+07 5.31591
1.60000E+07 5.29923
1.66795E+07 5.26793
1.70000E+07 5.25317
1.80000E+07 5.18285
1.90000E+07 5.09397
2.00000E+07 4.99264