Eu-151(n,g) ENDF/B-VII.1
Energy(eV) XS(b)
1.00000E-05 679330
1.30871E-05 593795
1.50000E-05 554624
1.61743E-05 534100
2.00000E-05 480278
2.23486E-05 454323
2.75000E-05 409531
2.85229E-05 402113
3.16101E-05 381953
3.46972E-05 364547
3.50000E-05 362964
3.57529E-05 359118
3.65057E-05 355391
3.80115E-05 348272
4.10230E-05 335228
4.70459E-05 313004
5.00000E-05 303601
5.93945E-05 278514
7.17431E-05 253361
7.50000E-05 247786
8.40917E-05 233972
0.000100000 214499
0.000108789 205622
0.000133486 185552
0.000150000 174992
0.000158183 170382
0.000179092 160072
0.000200000 151421
0.000207578 148612
0.000232276 140432
0.000256973 133458
0.000275000 128971
0.000306367 122127
0.000350000 114178
0.000405156 106025
0.000500000 95290.1
0.000503945 94910.2
0.000516294 93749.0
0.000528642 92628.6
0.000553340 90500.7
0.000602734 86642.1
0.000750000 77481.9
0.000800313 74944.3
0.000997891 66896.9
0.00100000 66824.0
0.00100611 66614.1
0.00101222 66406.1
0.00102443 65995.6
0.00104887 65196.0
0.00109774 63676.8
0.00119547 60919.9
0.00150000 54112.6
0.00159062 52470.1
0.00178820 49325.7
0.00198578 46655.6
0.00200000 46478.6
0.00204762 45899.0
0.00209524 45338.9
0.00219047 44273.0
0.00238094 42332.7
0.00275000 39152.3
0.00317125 36209.1
0.00350000 34282.4
0.00396156 31982.5
0.00475187 28830.6
0.00500000 27993.7
0.00566625 26016.1
0.00633250 24348.2
0.00750000 21961.1
0.00791312 21240.9
0.00949375 18916.7
0.0100000 18286.8
0.0113275 16832.6
0.0126550 15605.0
0.0150000 13835.6
0.0158162 13311.3
0.0189775 11603.8
0.0200000 11138.9
0.0221387 10272.5
0.0253000 9200.73
0.0295458 8049.09
0.0337915 7133.61
0.0376500 6451.13
0.0380373 6389.06
0.0390988 6224.30
0.0401602 6067.00
0.0422831 5772.93
0.0500000 4892.55
0.0507746 4817.67
0.0528975 4622.95
0.0550204 4442.42
0.0592662 4118.80
0.0677577 3592.78
0.0750000 3241.96
0.0762493 3188.77
0.0804951 3021.80
0.0847408 2873.99
0.0932324 2626.43
0.100000 2466.89
0.101724 2430.80
0.105970 2348.93
0.110215 2276.24
0.127198 2061.04
0.144182 1940.12
0.150000 1916.15
0.161165 1892.16
0.169657 1892.25
0.178148 1907.81
0.186640 1939.09
0.195131 1986.90
0.200000 2022.29
0.212114 2138.56
0.220605 2247.70
0.229097 2384.41
0.237588 2554.55
0.246080 2766.07
0.254572 3029.52
0.263063 3358.47
0.271555 3769.49
0.280046 4279.40
0.281210 4357.73
0.285165 4639.29
0.289120 4943.76
0.297029 5606.89
0.308515 6568.12
0.314257 6945.12
0.320000 7186.91
0.321000 7213.08
0.322420 7242.01
0.322420 7242.01
0.322420 7242.01
0.322421 7242.02
0.322421 7242.03
0.322423 7242.05
0.322425 7242.09
0.322430 7242.17
0.322439 7242.33
0.322458 7242.64
0.322495 7243.27
0.322570 7244.51
0.322720 7246.90
0.323020 7251.36
0.323619 7259.04
0.324818 7269.52
0.327217 7272.03
0.332013 7215.32
0.341605 6978.04
0.351198 6794.64
0.355994 6778.42
0.360790 6827.58
0.367440 7014.52
0.374090 7348.90
0.380740 7841.32
0.387390 8506.12
0.394040 9363.08
0.400690 10437.4
0.407340 11757.7
0.413990 13350.8
0.413990 13350.8
0.413991 13351.0
0.413991 13351.1
0.413992 13351.4
0.413994 13351.9
0.413999 13353.1
0.414007 13355.3
0.414024 13359.7
0.414058 13368.6
0.414126 13386.4
0.414263 13422.2
0.414535 13494.0
0.415080 13639.2
0.416170 13935.3
0.418909 14713.6
0.421649 15539.3
0.427128 17319.3
0.438085 21157.5
0.449043 24437.6
0.454521 25364.6
0.460000 25576.6
0.465000 25096.9
0.470000 24032.0
0.480000 20720.2
0.500000 13442.6
0.503830 12287.4
0.517705 8915.65
0.531580 6599.00
0.531580 6598.97
0.531581 6598.89
0.531581 6598.80
0.531583 6598.64
0.531585 6598.32
0.531589 6597.69
0.531599 6596.43
0.531617 6593.91
0.531654 6588.86
0.531728 6578.78
0.531875 6558.69
0.532170 6518.73
0.532760 6439.77
0.533939 6285.61
0.536298 5991.67
0.541016 5456.75
0.550453 4566.53
0.569325 3306.78
0.588198 2490.01
0.607070 1937.46
0.644815 1268.89
0.682560 902.435
0.682560 902.433
0.682561 902.429
0.682561 902.425
0.682562 902.417
0.682564 902.402
0.682569 902.371
0.682577 902.309
0.682594 902.185
0.682628 901.938
0.682696 901.444
0.682831 900.456
0.683102 898.487
0.683644 894.571
0.684728 886.826
0.686895 871.676
0.691230 842.687
0.699899 789.545
0.717238 699.884
0.751915 571.056
0.814168 451.738
0.876420 442.442
0.876420 442.442
0.876421 442.443
0.876421 442.443
0.876422 442.444
0.876424 442.445
0.876428 442.449
0.876435 442.455
0.876450 442.468
0.876481 442.494
0.876541 442.545
0.876662 442.648
0.876903 442.857
0.877386 443.281
0.878351 444.157
0.880282 446.022
0.884144 450.220
0.891868 460.620
0.907315 490.772
0.938210 605.323
0.969105 856.228
0.984553 1082.36
1.00000 1426.40
1.01090 1768.09
1.02193 2207.78
1.03295 2707.54
1.05500 3309.36
1.07705 2637.14
1.09910 1667.18
1.12540 967.688
1.12540 967.651
1.12541 967.559
1.12541 967.467
1.12542 967.302
1.12544 966.952
1.12548 966.254
1.12555 964.878
1.12570 962.115
1.12601 956.623
1.12661 945.789
1.12782 924.616
1.13023 884.258
1.13506 810.789
1.14471 688.487
1.16401 515.138
1.20263 325.098
1.24124 229.986
1.27985 175.694
1.35708 118.814
1.43430 91.1625
1.44500 88.5382
1.44500 88.5378
1.44501 88.5366
1.44501 88.5354
1.44502 88.5331
1.44504 88.5284
1.44508 88.5190
1.44516 88.5005
1.44532 88.4634
1.44564 88.3893
1.44627 88.2415
1.44754 87.9483
1.45007 87.3711
1.45514 86.2519
1.46528 84.1483
1.48556 80.4441
1.52613 74.8392
1.60725 70.6315
1.68838 82.9053
1.72894 109.038
1.74922 136.723
1.76950 183.762
1.79225 263.864
1.81500 315.917
1.83520 269.397
1.85540 193.529
1.85540 193.522
1.85541 193.506
1.85541 193.489
1.85542 193.456
1.85544 193.389
1.85548 193.255
1.85556 192.989
1.85572 192.460
1.85604 191.405
1.85668 189.316
1.85795 185.216
1.86050 177.340
1.86922 153.624
1.87794 134.508
1.89538 107.048
1.93025 77.5826
1.96513 63.7620
2.00000 56.5080
2.09560 49.2423
2.19120 49.3856
2.28680 54.1755
2.38240 65.3793
2.38240 65.3796
2.38241 65.3805
2.38241 65.3811
2.38242 65.3827
2.38244 65.3857
2.38247 65.3916
2.38254 65.4035
2.38268 65.4272
2.38296 65.4749
2.38353 65.5707
2.38465 65.7635
2.38689 66.1546
2.39139 66.9597
2.40037 68.6667
2.41834 72.5155
2.45428 82.4524
2.52615 118.826
2.56209 155.044
2.59803 221.043
2.63396 358.167
2.65193 484.266
2.66990 679.133
2.68168 852.997
2.69345 1050.97
2.71700 1296.44
2.74055 1048.57
2.76410 680.886
2.78253 487.626
2.80096 366.637
2.83783 243.069
2.87469 191.987
2.91155 172.096
2.98528 177.111
3.05900 226.229
3.05900 226.231
3.05901 226.240
3.05902 226.248
3.05903 226.264
3.05907 226.297
3.05913 226.362
3.05926 226.493
3.05951 226.754
3.06002 227.279
3.06104 228.338
3.06309 230.494
3.06717 234.957
3.07534 244.528
3.09168 266.533
3.12435 325.144
3.15703 412.462
3.18970 548.300
3.22238 773.270
3.25505 1178.79
3.27139 1510.18
3.28773 1991.40
3.30406 2705.78
3.32040 3764.90
3.34420 5972.07
3.36800 7428.35
3.39180 5943.44
3.41560 3741.55
3.43106 2742.54
3.44653 2060.92
3.47745 1283.28
3.50838 911.621
3.53930 739.059
3.57023 692.384
3.60115 767.242
3.63208 1031.02
3.64754 1288.34
3.66300 1678.35
3.67475 2079.03
3.68650 2539.36
3.71000 3103.78
3.72175 2916.18
3.73350 2486.84
3.75700 1582.80
3.77836 1042.97
3.79973 722.394
3.82109 527.765
3.84245 403.522
3.88518 261.467
3.92790 186.540
3.92790 186.537
3.92791 186.528
3.92791 186.520
3.92793 186.504
3.92795 186.471
3.92800 186.405
3.92810 186.274
3.92830 186.013
3.92870 185.492
3.92950 184.458
3.93109 182.419
3.93428 178.455
3.94066 170.954
3.95342 157.476
3.97893 135.431
4.02996 104.622
4.13203 70.6100
4.23409 53.3852
4.33615 44.2019
4.43821 40.4173
4.54028 43.1971
4.59131 49.7213
4.64234 65.3393
4.66785 80.8640
4.69337 107.588
4.71889 156.753
4.74440 250.900
4.76720 386.169
4.79000 475.637
4.81280 384.209
4.83560 248.284
4.85615 167.959
4.87670 120.506
4.89725 92.0370
4.91780 74.2140
4.95890 54.7552
5.00000 45.6797
5.04350 41.5037
5.04350 41.5036
5.04351 41.5034
5.04351 41.5032
5.04352 41.5027
5.04354 41.5018
5.04357 41.5001
5.04364 41.4965
5.04378 41.4894
5.04405 41.4753
5.04461 41.4474
5.04571 41.3934
5.04791 41.2917
5.05233 41.1133
5.06115 40.8536
5.07880 40.7080
5.11410 41.8960
5.18470 51.9020
5.22000 63.7444
5.25530 85.6879
5.29060 129.455
5.30825 167.279
5.32590 222.400
5.35295 342.505
5.38000 422.056
5.40705 341.289
5.43410 221.194
5.46509 136.881
5.49608 93.9783
5.52706 71.3850
5.55805 58.9079
5.62003 48.4241
5.68200 48.2150
5.74398 56.7337
5.80595 80.5823
5.83694 105.236
5.86793 149.003
5.89891 233.228
5.92990 404.987
5.95495 634.706
5.98000 786.646
6.00510 631.600
6.03020 400.927
6.05806 242.035
6.08593 158.747
6.11379 113.191
6.14165 86.4637
6.19738 58.8400
6.25310 46.2379
6.36455 37.0895
6.47600 36.5594
6.47600 36.5594
6.47601 36.5595
6.47601 36.5596
6.47602 36.5597
6.47603 36.5600
6.47607 36.5606
6.47613 36.5619
6.47626 36.5643
6.47652 36.5691
6.47703 36.5789
6.47807 36.5988
6.48013 36.6398
6.48426 36.7265
6.49252 36.9189
6.50903 37.3785
6.54206 38.5968
6.60813 42.2908
6.74025 56.3441
6.80631 68.8815
6.87238 88.6461
6.93844 123.774
6.97147 154.738
7.00450 207.250
7.02725 262.598
7.05000 312.972
7.09550 344.736
7.13290 439.516
7.15160 528.330
7.17030 658.243
7.18900 851.191
7.20770 1147.10
7.22640 1617.04
7.24510 2371.48
7.26755 3716.54
7.29000 4643.86
7.31245 3872.97
7.33490 2730.92
7.35035 2276.25
7.36580 2105.70
7.38125 2199.16
7.39670 2571.53
7.40753 3005.61
7.41835 3535.75
7.44000 4177.97
7.45083 3907.94
7.46165 3331.76
7.48330 2130.39
7.50930 1246.86
7.53530 795.228
7.56130 549.241
7.58730 403.096
7.63930 246.180
7.69130 167.929
7.74330 123.131
7.79530 95.0243
7.89930 63.0496
8.00330 46.3943
8.10730 36.9263
8.31530 28.5841
8.31530 28.5841
8.31531 28.5840
8.31531 28.5839
8.31532 28.5837
8.31534 28.5834
8.31539 28.5826
8.31547 28.5812
8.31564 28.5783
8.31599 28.5725
8.31667 28.5610
8.31804 28.5382
8.32079 28.4938
8.32627 28.4093
8.33724 28.2577
8.35918 28.0238
8.40306 27.8368
8.49083 28.6916
8.57859 31.6819
8.66635 38.2286
8.75411 52.0963
8.79800 64.7348
8.84188 85.0896
8.88576 120.398
8.92964 188.377
8.95158 247.657
8.97352 339.232
8.99546 486.170
9.01740 724.306
9.04370 1149.86
9.07000 1432.02
9.09630 1146.45
9.12260 720.041
9.15002 438.557
9.17744 284.852
9.20486 198.009
9.23228 145.721
9.28711 89.8395
9.34195 62.7440
9.39679 47.8737
9.45163 39.0436
9.56130 30.1295
9.67098 27.0084
9.78065 27.2977
9.89033 30.8047
10.0000 39.0756
10.1058 56.3555
10.1586 72.3928
10.2115 98.8990
10.2644 146.980
10.2908 187.004
10.3173 247.031
10.3437 342.285
10.3701 504.007
10.3834 628.636
10.3966 800.141
10.4098 1038.82
10.4230 1368.49
10.4465 2186.13
10.4700 2732.41
10.4935 2182.73
10.5170 1365.68
10.5370 905.533
10.5570 626.317
10.5770 454.934
10.5970 345.679
10.6370 223.839
10.6770 165.161
10.6770 165.141
10.6771 165.081
10.6771 165.031
10.6772 164.931
10.6774 164.721
10.6779 164.304
10.6787 163.480
10.6804 161.880
10.6837 158.828
10.6904 153.275
10.7038 144.233
10.7305 133.316
10.7840 138.590
10.8108 159.122
10.8375 201.262
10.8643 283.942
10.8910 444.495
10.9155 680.955
10.9400 836.468
10.9645 674.185
10.9890 431.871
11.0077 304.913
11.0264 222.762
11.0451 169.346
11.0638 133.540
11.1011 90.7295
11.1385 67.3732
11.2133 44.1759
11.2880 33.5257
11.4375 24.9350
11.5870 23.2584
11.7365 26.2493
11.8113 30.1943
11.8860 37.1999
11.9608 50.3988
11.9981 61.7194
12.0355 79.3022
12.0729 108.875
12.1103 164.350
12.1289 212.048
12.1476 285.189
12.1663 401.983
12.1850 590.951
12.2075 932.462
12.2300 1163.03
12.2525 937.782
12.2750 603.129
12.2950 410.946
12.3150 299.731
12.3350 235.885
12.3550 199.414
12.3950 171.899
12.4350 182.665
12.4750 231.377
12.4950 276.987
12.5150 345.964
12.5350 452.361
12.5550 622.124
12.5750 903.105
12.5950 1372.73
12.6175 2166.52
12.6400 2688.59
12.6625 2159.73
12.6850 1362.13
12.6993 1000.88
12.7137 749.450
12.7423 452.824
12.7710 299.390
12.7996 212.314
12.8283 158.794
12.8569 123.795
12.9143 82.5420
12.9716 60.2726
13.0289 47.0910
13.1435 33.6502
13.2581 29.0803
13.3728 31.7779
13.4301 37.9491
13.4874 52.0991
13.5160 65.6279
13.5447 88.0080
13.5734 127.008
13.6020 196.610
13.6310 306.819
13.6600 380.404
13.6850 321.961
13.7100 222.375
13.7100 222.302
13.7101 222.051
13.7101 221.835
13.7103 221.404
13.7105 220.509
13.7110 218.728
13.7120 215.206
13.7140 208.324
13.7180 195.248
13.7337 152.205
13.7493 120.693
13.7807 81.0061
13.8120 59.0290
13.8434 46.0249
13.9060 32.5035
13.9687 26.3962
14.0941 22.5700
14.2194 24.2795
14.3448 31.6270
14.4074 39.1597
14.4701 52.0842
14.5328 76.5027
14.5641 97.6960
14.5955 130.946
14.6268 187.344
14.6581 293.494
14.6738 384.407
14.6895 522.708
14.7051 740.561
14.7208 1086.20
14.7404 1726.09
14.7600 2152.91
14.7796 1727.39
14.7992 1090.73
14.8205 660.086
14.8417 432.399
14.8630 308.268
14.8842 237.021
14.9267 170.439
14.9692 154.778
15.0117 175.200
15.0542 248.082
15.0755 323.602
15.0967 452.753
15.1073 551.263
15.1180 684.613
15.1286 866.527
15.1392 1111.83
15.1494 1414.49
15.1596 1760.67
15.1800 2192.18
15.1902 2062.73
15.2004 1754.66
15.2208 1101.61
15.2394 711.016
15.2580 480.999
15.2766 342.787
15.2953 255.617
15.3325 157.882
15.3697 107.877
15.4069 79.0494
15.4441 60.9451
15.5186 40.2837
15.5930 29.3299
15.6675 22.8026
15.8164 15.7188
15.9652 12.1902
16.1141 10.2529
16.4119 8.64229
16.7097 8.81450
17.0075 11.0686
17.1563 13.9139
17.3052 19.9577
17.3797 25.8694
17.4541 36.4441
17.5286 58.3303
17.5658 79.2822
17.6030 115.469
17.6030 115.495
17.6031 115.560
17.6031 115.625
17.6032 115.742
17.6034 115.977
17.6038 116.462
17.6045 117.440
17.6060 119.422
17.6089 123.542
17.6148 132.473
17.6266 153.493
17.6501 213.351
17.6737 312.030
17.6854 384.323
17.6972 477.315
17.7104 608.361
17.7236 758.018
17.7500 944.723
17.7632 889.494
17.7764 757.345
17.8028 476.841
17.8220 336.467
17.8412 244.451
17.8604 184.033
17.8796 143.333
17.9180 94.8211
17.9563 68.7777
17.9947 53.5468
18.0331 44.0917
18.1099 34.0096
18.1866 29.8398
18.2634 28.7877
18.4169 32.9559
18.5704 46.9785
18.6472 60.8761
18.7240 84.2765
18.8007 127.141
18.8391 162.955
18.8775 216.755
18.9159 302.092
18.9542 446.731
18.9734 557.927
18.9926 710.567
19.0118 922.330
19.0310 1214.08
19.0655 1944.37
19.1000 2432.26
19.1345 1940.59
19.1690 1209.36
19.1950 834.914
19.2209 593.526
19.2469 437.218
19.2729 332.952
19.3248 209.604
19.3768 143.458
19.4287 104.347
19.4806 79.4633
19.5845 50.9295
19.6884 35.8976
19.7923 27.0783
20.0000 17.8115
20.2060 13.5352
20.4121 11.4997
20.6181 10.8283
20.8241 11.3810
21.0301 13.7485
21.1331 16.2571
21.2362 20.6568
21.3392 29.2236
21.3907 36.9219
21.4422 49.5058
21.4937 72.2906
21.5194 91.3581
21.5452 120.233
21.5710 166.780
21.5967 247.774
21.6096 311.822
21.6225 401.958
21.6353 530.990
21.6482 714.496
21.6691 1133.74
21.6900 1412.84
21.7109 1134.42
21.7318 716.733
21.7457 522.648
21.7596 390.712
21.7873 239.657
21.8151 164.808
21.8428 124.607
21.8983 89.6877
21.9538 83.7089
22.0093 99.2058
22.0371 118.481
22.0648 151.731
22.0926 211.079
22.1064 258.510
22.1203 326.214
22.1342 426.364
22.1481 580.002
22.1619 824.320
22.1758 1215.20
22.1929 1930.09
22.2100 2405.73
22.2186 2265.06
22.2271 1928.26
22.2442 1212.73
22.2554 883.166
22.2666 657.634
22.2891 396.522
22.3115 264.232
22.3339 190.550
22.3563 146.195
22.3788 118.008
22.4236 87.1098
22.4685 74.2649
22.5133 72.6028
22.5582 82.0756
22.6030 109.735
22.6030 109.753
22.6031 109.801
22.6031 109.848
22.6032 109.943
22.6034 110.133
22.6038 110.516
22.6046 111.292
22.6062 112.872
22.6094 116.192
22.6157 123.532
22.6285 141.562
22.6539 197.507
22.6794 301.781
22.6921 386.297
22.7048 503.311
22.7161 638.377
22.7274 792.880
22.7500 985.583
22.7613 927.899
22.7726 790.479
22.7952 499.074
22.8223 286.654
22.8493 180.100
22.8764 123.425
22.9035 90.6023
22.9576 56.5777
23.0117 40.3883
23.0658 31.5103
23.1199 26.1817
23.2282 20.5883
23.4447 17.5850
23.6612 19.7386
23.8776 27.6357
23.9859 35.8419
24.0941 50.3308
24.1483 61.9790
24.2024 78.8824
24.2565 104.675
24.2836 122.954
24.3106 146.732
24.3377 178.413
24.3647 221.843
24.3918 283.447
24.4189 374.510
24.4459 515.989
24.4730 749.058
24.4865 923.487
24.5000 1157.36
24.5136 1473.11
24.5271 1895.68
24.5536 3027.37
24.5800 3780.26
24.6065 3024.22
24.6329 1892.24
24.6636 1085.05
24.6943 672.542
24.7250 450.852
24.7557 322.041
24.7864 241.912
24.8171 189.321
24.8785 128.277
24.9399 98.3957
25.0013 88.0884
25.0320 91.2264
25.0627 104.069
25.0934 136.532
25.1241 212.847
25.1471 312.508
25.1700 378.454
25.1930 308.446
25.2159 204.852
25.2371 142.121
25.2583 105.249
25.3007 69.3865
25.3431 54.6984
25.3856 49.1307
25.4280 49.8522
25.4704 58.7260
25.4916 68.7283
25.5128 85.8796
25.5340 115.942
25.5552 168.853
25.5776 255.432
25.6000 312.914
25.6224 253.996
25.6448 166.110
25.6609 122.393
25.6771 93.5273
25.7093 61.4511
25.7416 45.8278
25.7738 37.3294
25.8383 29.2234
25.9028 26.0929
26.0318 25.8095
26.1608 30.9591
26.2898 44.4256
26.3543 57.7102
26.4188 80.5560
26.4833 124.057
26.5156 161.979
26.5478 221.499
26.5801 321.940
26.6123 508.467
26.6284 665.536
26.6446 899.877
26.6607 1260.00
26.6768 1814.32
26.6984 2897.59
26.7200 3618.61
26.7416 2894.96
26.7632 1811.26
26.7825 1172.77
26.8018 793.084
26.8211 563.395
26.8405 418.012
26.8791 254.876
26.9177 171.873
26.9563 124.583
26.9950 95.4492
27.0722 63.8349
27.1495 49.9819
27.2267 47.7123
27.2653 52.3410
27.3040 64.8707
27.3426 95.7233
27.3619 126.144
27.3812 174.930
27.4056 266.621
27.4300 327.474
27.4544 264.724
27.4788 171.279
27.4965 124.527
27.5142 93.6923
27.5496 59.4466
27.5849 42.6707
27.6203 33.4371
27.6911 24.3762
27.7618 20.7068
27.8326 19.9479
27.9033 22.5497
27.9387 26.3767
27.9741 34.2047
28.0094 51.6467
28.0271 68.2750
28.0448 94.5287
28.0674 144.058
28.0900 177.018
28.1126 143.749
28.1352 93.9898
28.1630 57.0950
28.1907 38.9336
28.2184 29.4427
28.2462 24.0579
28.3017 18.7122
28.3572 16.4764
28.4681 15.5002
28.5791 16.9154
28.6901 20.6391
28.8011 28.3826
28.8565 35.2186
28.9120 45.9254
28.9675 63.9331
29.0230 97.4981
29.0230 97.5150
29.0231 97.5573
29.0231 97.5911
29.0232 97.6588
29.0233 97.7944
29.0237 98.0665
29.0243 98.6144
29.0256 99.7335
29.0282 102.024
29.0333 106.870
29.0436 117.714
29.0642 145.271
29.0848 184.124
29.1054 241.100
29.1260 328.675
29.1466 470.809
29.1672 714.662
29.1878 1143.66
29.2089 1824.43
29.2300 2277.45
29.2511 1823.24
29.2722 1142.42
29.2863 823.889
29.3004 607.490
29.3286 359.085
29.3568 234.286
29.3850 164.926
29.4132 123.011
29.4414 96.0267
29.4979 64.9739
29.5543 48.9667
29.6107 40.2271
29.7235 33.8292
29.8363 37.5712
29.8927 44.2882
29.9492 57.0047
30.0056 81.8199
30.0338 103.269
30.0620 136.264
30.0902 190.138
30.1184 284.944
30.1325 360.529
30.1466 467.538
30.1607 621.557
30.1748 842.181
30.1974 1341.79
30.2200 1674.62
30.2313 1576.22
30.2426 1340.70
30.2652 840.840
30.2807 602.714
30.2961 442.459
30.3116 334.761
30.3271 260.798
30.3580 170.703
30.3890 121.146
30.4199 91.5440
30.4508 72.8182
30.5127 52.4932
30.5746 44.7935
30.6365 47.1424
30.6674 53.9799
30.6983 68.3544
30.7293 98.1707
30.7602 161.124
30.7851 246.174
30.8100 302.656
30.8349 244.617
30.8598 158.119
30.8811 108.850
30.9024 78.7899
30.9236 60.2042
30.9449 48.2471
30.9874 34.6681
31.0300 27.8269
31.1151 22.3918
31.2002 22.3818
31.2852 27.2263
31.3278 32.6198
31.3703 41.8065
31.4129 58.2748
31.4554 90.7075
31.4767 119.413
31.4980 164.289
31.5192 237.321
31.5405 357.615
31.5529 455.855
31.5653 567.992
31.5900 707.953
31.6148 567.246
31.6395 356.467
31.6680 206.775
31.6965 129.815
31.7250 88.1968
31.7536 63.8508
31.7821 48.5700
31.8106 38.4189
31.8676 26.2415
31.9246 19.5096
31.9817 15.4032
32.0957 10.8544
32.2098 8.52639
32.3238 7.19304
32.5519 5.89818
32.7800 5.56867
33.0081 6.16235
33.1222 7.21536
33.2362 9.89655
33.2932 12.9869
33.3503 19.5760
33.3788 26.0283
33.4073 37.3330
33.4358 59.0336
33.4501 77.3254
33.4643 103.489
33.4872 162.713
33.5100 202.168
33.5329 162.692
33.5557 103.530
33.5708 76.0821
33.5860 57.3701
33.6163 35.8444
33.6465 25.0157
33.6768 19.0108
33.7373 13.1147
33.7979 10.5576
33.9190 8.81183
34.0401 8.83543
34.1611 9.97475
34.2822 12.8175
34.3428 15.7209
34.4033 21.3353
34.4336 26.5269
34.4639 35.3946
34.4941 52.3146
34.5244 87.6289
34.5472 132.278
34.5700 162.426
34.5929 134.402
34.6157 92.0403
34.6399 64.5616
34.6641 50.8492
34.7126 42.2221
34.7610 44.9876
34.8094 55.9251
34.8578 78.7913
34.8820 98.2648
34.9063 127.414
34.9305 173.085
34.9547 248.743
34.9668 305.613
34.9789 382.018
34.9910 485.563
35.0031 624.435
35.0266 993.610
35.0500 1239.36
35.0735 993.010
35.0969 623.777
35.1118 458.390
35.1267 343.728
35.1564 208.851
35.1862 139.402
35.2159 100.223
35.2456 76.3470
35.2754 60.9201
35.3349 43.2451
35.3944 34.3731
35.4539 29.8884
35.5729 28.1475
35.6918 34.3752
35.7513 42.0518
35.8108 55.8288
35.8703 82.4275
35.9001 105.631
35.9298 141.920
35.9596 202.809
35.9744 249.640
35.9893 314.720
36.0042 408.020
36.0191 545.841
36.0339 754.861
36.0488 1072.26
36.0694 1709.97
36.0900 2135.08
36.1106 1709.19
36.1312 1071.53
36.1443 786.238
36.1573 588.428
36.1835 355.938
36.2096 236.233
36.2358 168.661
36.2619 127.418
36.2880 100.701
36.3403 69.8808
36.3926 54.0978
36.4449 45.7189
36.5494 40.7032
36.6540 47.4468
36.7062 56.9498
36.7585 74.2741
36.8108 107.489
36.8369 135.979
36.8631 179.615
36.8892 250.571
36.9153 374.899
36.9284 473.542
36.9415 612.792
36.9545 812.403
36.9676 1096.84
36.9888 1747.98
37.0100 2182.04
37.0312 1747.00
37.0524 1095.77
37.0658 804.983
37.0792 603.317
37.1061 365.971
37.1329 243.575
37.1597 174.467
37.1865 132.323
37.2134 105.098
37.2670 73.9693
37.2670 73.9614
37.2671 73.9376
37.2671 73.9138
37.2672 73.8702
37.2675 73.7793
37.2679 73.6022
37.2688 73.2472
37.2707 72.5497
37.2743 71.2027
37.2816 68.6942
37.2961 64.3271
37.3252 57.7417
37.3834 50.8207
37.4416 50.2258
37.4998 56.1375
37.5580 72.3031
37.5870 87.4419
37.6161 111.339
37.6452 150.847
37.6743 220.616
37.6889 276.115
37.7034 354.404
37.7180 466.591
37.7325 626.207
37.7563 993.611
37.7800 1238.30
37.8038 992.216
37.8275 623.907
37.8482 410.949
37.8690 282.647
37.8897 204.129
37.9104 154.010
37.9519 97.1979
37.9933 67.9245
38.0348 51.0456
38.0762 40.4903
38.1591 28.6271
38.2420 22.6032
38.3249 19.3156
38.4907 16.8104
38.6565 17.7817
38.8223 23.2782
38.9052 29.8317
38.9881 43.3158
39.0296 56.2338
39.0710 79.1510
39.0917 98.1232
39.1125 126.601
39.1228 146.434
39.1332 171.604
39.1435 203.753
39.1539 244.585
39.1654 301.225
39.1770 366.072
39.2000 456.847
39.2231 412.118
39.2461 345.998
39.2668 341.643
39.2875 401.060
39.2978 460.671
39.3081 547.228
39.3185 668.935
39.3288 834.891
39.3494 1295.01
39.3700 1601.13
39.3803 1506.46
39.3906 1283.38
39.4112 810.479
39.4265 569.554
39.4418 412.527
39.4570 309.758
39.4723 240.701
39.5029 158.322
39.5334 113.928
39.5640 87.8392
39.5945 71.6246
39.6556 54.8624
39.7167 50.3694
39.7778 57.7885
39.8084 69.6947
39.8389 94.1938
39.8695 148.341
39.8847 199.384
39.9000 279.076
39.9100 350.563
39.9200 432.261
39.9400 534.103
39.9600 431.241
39.9800 277.179
40.0005 176.386
40.0211 120.717
40.0416 88.9791
40.0621 69.7470
40.1032 49.1100
40.1442 39.1594
40.2263 30.8871
40.3085 28.5842
40.4727 31.0490
40.6369 40.7539
40.7190 49.5502
40.8011 62.9047
40.8832 84.0773
40.9654 120.075
41.0064 148.214
41.0475 188.090
41.0885 247.098
41.1296 339.336
41.1706 494.275
41.2117 779.960
41.2322 1018.84
41.2528 1373.15
41.2733 1912.81
41.2938 2735.71
41.3219 4372.18
41.3500 5461.18
41.3781 4368.03
41.4062 2731.30
41.4271 1897.80
41.4479 1355.69
41.4688 1002.18
41.4897 765.225
41.5314 483.395
41.5731 331.630
41.6149 241.836
41.6566 184.844
41.7401 120.379
41.8235 88.6703
41.9070 75.5661
41.9487 76.3670
41.9904 86.2416
42.0322 117.678
42.0530 152.463
42.0739 212.804
42.0970 315.429
42.1200 383.313
42.1431 312.123
42.1661 206.276
42.1967 122.929
42.2273 83.3771
42.2579 62.9204
42.2885 51.1416
42.3498 38.7871
42.4110 32.8036
42.5334 28.1080
42.6559 28.6027
42.7783 34.8070
42.8395 41.8727
42.9007 54.4741
42.9620 78.7611
42.9926 99.8914
43.0232 132.809
43.0538 187.603
43.0844 287.051
43.0997 368.788
43.1150 487.884
43.1303 665.401
43.1456 929.663
43.1678 1480.39
43.1900 1846.99
43.2122 1479.42
43.2344 928.366
43.2524 627.801
43.2703 439.820
43.2883 321.219
43.3062 243.708
43.3421 153.890
43.3780 106.712
43.4139 79.2030
43.4498 61.8956
43.5216 42.3375
43.5934 32.3278
43.6652 26.7787
43.8089 22.2101
43.9525 23.1724
44.0243 26.1078
44.0961 32.0422
44.1679 44.1545
44.2038 54.9863
44.2397 72.1951
44.2756 101.556
44.3115 156.708
44.3295 203.616
44.3474 274.321
44.3654 384.215
44.3833 555.827
44.3950 708.874
44.4067 883.689
44.4300 1102.24
44.4417 1037.67
44.4534 883.183
44.4767 555.201
44.5046 316.620
44.5325 197.018
44.5604 133.591
44.5883 97.0410
44.6162 74.3808
44.6441 59.5059
44.7000 41.9991
44.7558 32.6835
44.8116 27.3563
44.9232 22.5937
45.0348 22.4236
45.1465 27.4112
45.2023 34.1179
45.2581 48.4628
45.2860 62.1534
45.3139 85.2940
45.3418 127.342
45.3558 160.944
45.3697 207.074
45.3823 260.883
45.3949 322.303
45.4200 399.145
45.4452 322.686
45.4703 207.976
45.4982 128.996
45.5260 87.6495
45.5538 65.1716
45.5817 52.1733
45.6374 39.2995
45.6931 34.2538
45.8044 33.5067
45.9158 40.2165
45.9715 46.7971
46.0272 56.7848
46.0550 63.6695
46.0829 72.3570
46.1107 83.5004
46.1386 98.0830
46.1664 117.650
46.1942 144.691
46.2221 183.498
46.2499 241.760
46.2778 334.409
46.2917 402.173
46.3056 492.208
46.3195 614.237
46.3335 782.679
46.3474 1017.88
46.3613 1344.05
46.3857 2137.79
46.4100 2666.27
46.4344 2138.32
46.4587 1346.24
46.4814 865.444
46.5040 585.762
46.5266 419.922
46.5493 316.835
46.5946 204.260
46.6398 149.999
46.6851 122.101
46.7304 108.364
46.8210 106.266
46.9115 134.414
46.9568 165.671
47.0021 218.248
47.0474 310.860
47.0926 488.902
47.1153 642.721
47.1379 877.562
47.1606 1248.19
47.1832 1836.95
47.2116 2929.51
47.2400 3656.97
47.2684 2926.17
47.2968 1832.00
47.3141 1357.99
47.3314 1024.21
47.3661 624.191
47.4007 413.742
47.4354 292.943
47.4700 218.115
47.5046 168.876
47.5739 110.434
47.6432 78.4954
47.7125 59.1934
47.8510 38.0550
47.8510 38.0529
47.8511 38.0457
47.8512 38.0384
47.8513 38.0249
47.8515 37.9980
47.8521 37.9442
47.8531 37.8361
47.8552 37.6225
47.8594 37.2006
47.8678 36.3826
47.8845 34.8400
47.9180 32.0862
47.9850 27.6462
48.1189 21.6386
48.3868 15.5780
48.6547 13.2254
48.9226 12.9051
49.1905 14.4253
49.4583 18.8355
49.5923 23.2735
49.7262 31.3246
49.7932 38.4596
49.8602 50.9749
49.8937 61.8693
49.9271 79.9716
49.9606 114.499
49.9774 144.527
49.9941 189.342
50.0171 277.396
50.0400 337.698
50.0859 206.841
50.1130 153.105
50.1401 130.837
50.1942 127.553
50.2484 151.988
50.3025 202.382
50.3567 295.879
50.3837 371.930
50.4108 482.217
50.4379 648.700
50.4650 911.463
50.4920 1345.23
50.5191 2072.02
50.5496 3311.35
50.5800 4136.99
50.6105 3308.44
50.6409 2068.29
50.6678 1344.70
50.6947 911.744
50.7216 648.413
50.7485 481.136
50.8023 292.589
50.8561 196.070
50.9100 140.710
50.9638 106.224
51.0714 67.5183
51.1790 47.6349
51.2866 36.2855
51.5019 25.2325
51.7171 21.9964
51.9323 25.5582
52.0400 32.5364
52.0938 39.1543
52.1476 50.0607
52.2014 69.6132
52.2552 109.673
52.2821 147.405
52.3090 211.052
52.3225 259.950
52.3359 327.157
52.3494 420.636
52.3628 549.840
52.3746 696.828
52.3864 864.670
52.4100 1076.07
52.4218 1017.24
52.4336 873.223
52.4572 567.949
52.4822 368.669
52.5072 268.551
52.5322 223.627
52.5572 213.554
52.5821 234.066
52.6071 294.719
52.6321 426.514
52.6446 539.092
52.6571 698.754
52.6786 1085.62
52.7000 1342.80
52.7215 1077.57
52.7429 682.565
52.7573 496.822
52.7717 370.639
52.8006 225.550
52.8294 152.227
52.8582 111.204
52.8870 86.2935
52.9159 70.2791
52.9735 52.4476
53.0312 45.2506
53.0888 46.5332
53.1176 51.8962
53.1465 63.5008
53.1753 87.9290
53.2041 140.064
53.2271 210.064
53.2500 256.625
53.2730 208.969
53.2959 137.915
53.3146 99.0265
53.3332 74.7835
53.3706 49.7271
53.4079 38.6314
53.4452 33.3377
53.5199 30.4428
53.5946 33.6829
53.6692 44.2061
53.7066 54.4315
53.7439 71.1273
53.7812 100.144
53.8185 155.600
53.8372 203.438
53.8559 276.399
53.8745 391.604
53.8932 574.576
53.9049 733.037
53.9166 914.212
53.9400 1140.62
53.9517 1073.73
53.9634 913.555
53.9868 573.600
54.0059 386.939
54.0250 270.769
54.0442 197.809
54.0633 150.309
54.1015 95.4275
54.1397 66.6870
54.1780 49.9649
54.2162 39.4658
54.2927 27.6501
54.3692 21.6760
54.4456 18.4570
54.5986 16.1920
54.7515 17.8160
54.8280 20.5501
54.9044 25.7333
54.9809 36.0171
55.0191 45.1175
55.0574 59.5030
55.0956 83.9648
55.1338 129.817
55.1530 168.791
55.1721 227.480
55.1912 318.727
55.2103 461.129
55.2352 733.008
55.2600 914.262
55.2849 732.876
55.3097 461.134
55.3353 283.204
55.3609 185.449
55.3866 129.990
55.4122 96.5388
55.4634 60.8553
55.5147 43.7748
55.5659 34.7101
55.6171 29.7332
55.7196 26.3538
55.8221 29.3138
55.8733 33.8638
55.9246 42.1173
55.9758 57.5464
56.0270 89.4478
56.0527 119.109
56.0783 167.934
56.1039 253.237
56.1295 406.757
56.1548 643.707
56.1800 801.605
56.2053 643.661
56.2305 406.894
56.2474 296.228
56.2643 221.086
56.2980 134.970
56.3318 91.8840
56.3655 68.1297
56.4330 45.0913
56.5005 35.5262
56.6355 30.7266
56.7705 35.4655
56.9054 50.9748
56.9729 66.5589
57.0404 93.2857
57.0742 114.176
57.1079 143.685
57.1417 187.104
57.1754 254.357
57.2092 365.779
57.2260 450.452
57.2429 566.821
57.2598 731.300
57.2767 969.966
57.2935 1323.91
57.3104 1847.87
57.3352 2951.10
57.3600 3685.23
57.3848 2949.46
57.4096 1845.94
57.4312 1207.57
57.4529 822.711
57.4745 587.285
57.4961 437.004
57.5393 266.936
57.5826 179.553
57.6258 129.337
57.6691 98.0323
57.7555 62.9272
57.8420 44.9912
57.9285 34.9015
58.1015 25.7154
58.2744 24.7643
58.3609 27.3710
58.4474 33.4531
58.5339 46.5085
58.5771 58.3797
58.6203 77.3557
58.6636 109.819
58.7068 170.832
58.7284 222.652
58.7501 300.591
58.7717 421.344
58.7825 505.243
58.7933 609.133
58.8075 777.529
58.8217 969.733
58.8500 1209.70
58.8642 1138.75
58.8784 968.949
58.9067 607.956
58.9363 369.195
58.9658 238.616
58.9954 164.709
59.0249 120.109
59.0545 91.5176
59.0841 72.2288
59.1432 48.7664
59.2023 35.6509
59.2614 27.6127
59.3797 18.7270
59.4979 14.2540
59.6161 11.7958
59.8526 9.82797
60.0891 10.4806
60.2073 12.0751
60.3256 15.3256
60.4438 22.1966
60.5029 28.6083
60.5620 39.2836
60.6212 58.8110
60.6507 75.1778
60.6803 99.8686
60.7098 139.282
60.7394 206.704
60.7690 331.334
60.7837 432.574
60.7985 573.186
60.8243 914.879
60.8500 1142.58
60.8758 914.437
60.9015 572.642
60.9184 415.272
60.9353 307.575
60.9691 182.861
61.0029 119.569
61.0366 84.1067
61.0704 62.5313
61.1042 48.5284
61.1718 32.1736
61.2393 23.4307
61.3069 18.2804
61.4420 12.9617
61.4420 12.9612
61.4421 12.9597
61.4421 12.9582
61.4422 12.9555
61.4425 12.9498
61.4429 12.9387
61.4438 12.9165
61.4456 12.8726
61.4492 12.7861
61.4564 12.6191
61.4709 12.3072
61.4997 11.7658
61.5574 10.9643
61.6728 10.2603
61.7883 10.6269
61.9037 12.3569
62.0191 16.6811
62.0768 20.9071
62.1345 28.0903
62.1922 41.5084
62.2210 52.9636
62.2499 70.5602
62.2788 99.3755
62.3076 150.492
62.3365 250.344
62.3509 335.891
62.3653 459.860
62.3765 587.247
62.3877 732.648
62.4100 914.363
62.4324 732.535
62.4547 459.850
62.4761 290.697
62.4975 193.699
62.5189 136.754
62.5402 101.531
62.5830 62.9922
62.6258 44.0014
62.6685 33.6124
62.7113 27.6349
62.7968 22.6266
62.8823 23.7654
62.9251 26.9760
62.9679 33.1432
63.0106 44.7312
63.0534 67.9062
63.0748 88.4174
63.0961 120.324
63.1175 171.798
63.1389 255.614
63.1517 325.575
63.1645 405.505
63.1900 505.360
63.2156 404.923
63.2411 254.574
63.2591 181.126
63.2771 132.277
63.2951 99.7552
63.3132 77.5704
63.3492 50.6780
63.3852 35.8846
63.4212 26.9637
63.4573 21.1940
63.5293 14.4328
63.6014 10.7626
63.6734 8.53889
63.8175 6.07365
63.9616 4.79636
64.1057 4.04719
64.3939 3.26281
64.9703 2.80976
65.5467 3.05497
66.1231 4.09413
66.4113 5.22214
66.6995 7.29099
66.9877 11.6082
67.1318 15.7589
67.2759 23.0108
67.4200 37.4253
67.4921 50.6676
67.5641 72.7031
67.6001 89.6448
67.6362 113.308
67.6722 147.717
67.7082 200.250
67.7442 285.630
67.7622 349.350
67.7803 435.511
67.7983 554.864
67.8163 723.788
67.8343 966.849
67.8523 1314.92
67.8812 2102.17
67.9100 2626.40
67.9389 2101.13
67.9677 1313.75
68.0013 750.081
68.0350 462.688
68.0686 308.323
68.1022 218.520
68.1359 162.450
68.1695 125.368
68.2368 81.2103
68.3040 57.0930
68.3713 42.6042
68.5058 27.0700
68.6403 19.9157
68.7749 17.5251
68.8421 18.5231
68.9094 22.9574
68.9430 28.2406
68.9766 38.4771
69.0103 60.2684
69.0271 80.2777
69.0439 110.886
69.0670 171.968
69.0900 212.602
69.1131 171.480
69.1361 109.949
69.1607 68.5684
69.1852 46.1757
69.2098 33.5725
69.2344 25.9756
69.2835 17.7737
69.3326 13.6911
69.4309 9.90026
69.5292 8.25240
69.7257 7.07464
69.9222 7.24134
70.1187 8.76804
70.2170 10.4615
70.3153 13.4792
70.4135 19.4280
70.4627 24.8101
70.5118 33.6371
70.5609 49.6230
70.5855 62.9749
70.6100 83.1035
70.6346 115.317
70.6592 170.699
70.6837 274.159
70.6960 359.048
70.7083 478.038
70.7292 760.628
70.7500 949.040
70.7709 761.050
70.7917 479.086
70.8096 318.207
70.8275 220.668
70.8454 160.785
70.8633 122.599
70.8991 79.7382
70.9349 58.4211
70.9706 47.0604
71.0064 41.0835
71.0780 38.5702
71.1496 46.5768
71.1854 56.2136
71.2212 72.6681
71.2569 101.803
71.2927 157.740
71.3106 205.892
71.3285 279.019
71.3464 393.671
71.3643 574.386
71.3872 914.847
71.4100 1141.82
71.4214 1074.67
71.4329 914.081
71.4557 573.111
71.4699 423.287
71.4841 318.548
71.5124 194.007
71.5407 129.027
71.5691 91.9366
71.5974 69.0771
71.6258 54.1024
71.6824 36.4657
71.7391 27.0015
71.7958 21.4826
71.9092 16.2108
72.0225 15.3453
72.0792 16.5123
72.1359 19.3900
72.1926 25.5250
72.2492 39.3823
72.2776 53.1067
72.3059 77.0572
72.3343 122.350
72.3626 212.751
72.3863 336.785
72.4100 419.328
72.4337 336.489
72.4574 212.243
72.4832 127.345
72.5091 82.1474
72.5349 57.0749
72.5607 42.1602
72.6124 26.3802
72.6641 18.7921
72.7157 14.6599
72.7674 12.2497
72.8707 10.0527
72.9740 10.0458
73.0774 12.8317
73.1290 16.6623
73.1807 25.0237
73.2065 33.1092
73.2323 46.9083
73.2582 72.2146
73.2840 120.706
73.3070 190.257
73.3300 236.585
73.3530 190.170
73.3760 120.578
73.3991 75.8848
73.4221 50.9069
73.4452 36.5465
73.4682 27.8043
73.5143 18.3944
73.5605 13.8643
73.6527 10.1983
73.7449 9.54250
73.8371 10.9531
73.8832 12.7803
73.9294 16.0203
73.9755 22.0305
74.0216 34.4071
74.0446 45.8780
74.0677 64.6738
74.0908 97.3173
74.1138 155.565
74.1369 246.617
74.1600 307.298
74.1831 246.485
74.2062 155.359
74.2297 96.1529
74.2533 63.3626
74.2768 44.6251
74.3004 33.2493
74.3474 20.9737
74.3945 14.9500
74.4416 11.5984
74.4886 9.56898
74.5828 7.40147
74.7711 6.01888
74.9594 6.22452
75.1476 7.77816
75.2418 9.45365
75.3359 12.4169
75.4301 18.2314
75.4772 23.4587
75.5242 31.9444
75.5713 47.0087
75.6184 77.3524
75.6419 105.212
75.6654 150.624
75.6772 184.303
75.6890 229.094
75.7007 289.010
75.7125 368.359
75.7244 470.445
75.7363 586.967
75.7600 732.574
75.7719 689.664
75.7838 586.851
75.8075 368.284
75.8323 223.477
75.8572 144.514
75.8820 99.9274
75.9068 73.0893
75.9317 55.9349
75.9565 44.4030
76.0062 30.4689
76.0558 22.7804
76.1055 18.1601
76.2048 13.2740
76.3041 11.0933
76.4035 10.2017
76.6021 10.6075
76.8008 13.8029
76.9001 17.2118
76.9994 23.1825
77.0987 34.7625
77.1484 45.0680
77.1981 61.6415
77.2477 90.7051
77.2726 114.121
77.2974 148.157
77.3222 199.884
77.3470 282.576
77.3719 421.589
77.3967 660.222
77.4234 1052.73
77.4500 1314.46
77.4767 1052.76
77.5033 660.601
77.5346 378.664
77.5659 235.902
77.5972 159.723
77.6286 115.735
77.6599 88.5414
77.6912 70.8372
77.7538 50.5987
77.8164 41.0417
77.8791 38.0452
77.9417 43.2455
77.9730 53.1568
78.0043 76.1832
78.0500 125.094
78.0729 106.019
78.0957 77.4092
78.1282 54.7484
78.1608 45.9323
78.2258 43.5332
78.2909 50.3802
78.3560 66.1147
78.3885 79.2135
78.4210 98.1491
78.4536 126.516
78.4861 171.236
78.5186 246.832
78.5349 305.400
78.5511 387.208
78.5674 505.300
78.5837 681.274
78.5999 951.255
78.6162 1366.03
78.6381 2180.46
78.6600 2723.26
78.6819 2179.76
78.7038 1365.28
78.7275 813.410
78.7511 518.222
78.7748 354.015
78.7984 256.196
78.8221 194.135
78.8457 152.652
78.8930 102.864
78.8930 102.849
78.8931 102.788
78.8932 102.736
78.8933 102.630
78.8936 102.420
78.8942 101.995
78.8953 101.154
78.8976 99.5075
78.9021 96.3571
78.9112 90.5565
78.9294 80.6613
78.9658 66.0020
79.0387 49.1196
79.1115 41.4529
79.1843 39.8024
79.2571 44.7841
79.2936 51.4215
79.3300 63.4348
79.3664 86.1148
79.3846 105.191
79.4028 133.761
79.4210 178.757
79.4301 211.254
79.4392 253.906
79.4483 310.895
79.4574 387.992
79.4665 493.235
79.4756 635.718
79.4842 808.931
79.4928 1007.04
79.5100 1254.80
79.5186 1181.78
79.5272 1006.76
79.5444 635.356
79.5554 468.740
79.5663 353.461
79.5882 218.139
79.6101 148.567
79.6319 109.349
79.6757 70.0970
79.7195 52.5601
79.7632 43.9271
79.8070 39.8024
79.8945 39.2600
79.9820 47.6350
80.0258 56.8939
80.0696 72.5867
80.1133 100.819
80.1352 123.823
80.1571 157.499
80.1790 209.082
80.2008 292.389
80.2227 434.389
80.2446 682.441
80.2673 1079.69
80.2900 1344.54
80.3127 1080.76
80.3354 684.870
80.3568 442.585
80.3781 302.728
80.3995 220.473
80.4209 169.785
80.4636 115.337
80.5064 90.1992
80.5918 74.4671
80.6773 81.5968
80.7628 110.651
80.8055 138.930
80.8483 184.417
80.8910 261.583
80.9124 321.041
80.9337 403.514
80.9551 521.165
80.9765 693.917
80.9978 953.540
81.0192 1343.29
81.0496 2143.58
81.0800 2676.68
81.1104 2141.84
81.1408 1340.67
81.1702 840.114
81.1996 554.352
81.2289 387.100
81.2583 283.727
81.3171 170.252
81.3758 113.513
81.4346 81.4040
81.4934 61.5584
81.6109 39.3980
81.7284 28.0224
81.8459 21.4953
82.0810 14.9982
82.3160 12.7655
82.5510 13.8269
82.6686 16.6596
82.7861 24.1471
82.8448 32.7708
82.9036 50.9717
82.9330 68.5718
82.9624 99.0118
82.9917 156.342
83.0064 203.792
83.0211 270.701
83.0333 343.684
83.0456 426.989
83.0700 531.206
83.0945 427.435
83.1189 271.697
83.1446 168.279
83.1703 112.259
83.1960 80.9353
83.2217 62.3560
83.2731 43.1899
83.3246 34.8389
83.4274 30.6419
83.5302 35.1811
83.6330 49.3865
83.6844 63.1189
83.7359 85.6643
83.7873 125.404
83.8387 203.340
83.8644 272.532
83.8901 381.250
83.9158 559.755
83.9415 856.919
83.9708 1367.95
84.0000 1708.34
84.0293 1367.16
84.0585 855.849
84.0830 569.379
84.1075 393.202
84.1320 283.619
84.1565 212.771
84.2055 131.557
84.2544 89.2931
84.3034 64.7872
84.3524 49.4015
84.4504 31.9919
84.5483 22.9696
84.6463 17.7898
84.8422 12.7536
85.0381 11.4724
85.1361 12.0878
85.2341 14.0520
85.3320 18.7719
85.3810 23.3413
85.4300 31.0392
85.4790 45.1772
85.5035 57.0125
85.5279 74.8068
85.5524 103.043
85.5769 150.888
85.6014 238.046
85.6137 307.910
85.6259 403.899
85.6369 515.924
85.6480 643.901
85.6700 803.967
85.6921 643.617
85.7141 403.468
85.7293 288.635
85.7444 211.511
85.7596 159.693
85.7747 124.140
85.8050 80.7723
85.8353 56.8064
85.8656 42.3372
85.8959 32.9909
85.9566 22.0893
86.0172 16.2303
86.0778 12.7269
86.1990 8.92619
86.3202 7.02838
86.4415 5.96888
86.6839 5.00103
86.9264 4.86731
87.1688 5.60154
87.2900 6.70923
87.4113 9.42618
87.4719 12.5275
87.5325 19.1612
87.5628 25.7164
87.5931 37.3549
87.6234 60.2033
87.6386 79.8790
87.6537 108.562
87.6769 170.963
87.7000 212.590
87.7232 171.068
87.7463 108.807
87.7725 65.2518
87.7987 42.6634
87.8248 30.4154
87.8510 23.2767
87.9034 15.9524
87.9557 12.6414
88.0604 10.2683
88.1652 10.1757
88.2699 11.5069
88.3746 15.0172
88.4269 18.7016
88.4793 25.9006
88.5055 32.5025
88.5317 43.4892
88.5578 63.3415
88.5840 101.191
88.6070 154.718
88.6300 190.683
88.6530 156.141
88.6760 104.083
88.6949 75.6304
88.7139 58.3549
88.7517 41.5647
88.7896 35.4127
88.8274 33.8463
88.9031 37.7351
88.9788 49.3948
89.0545 73.4005
89.0924 94.3274
89.1302 126.676
89.1491 149.755
89.1681 179.822
89.1870 219.860
89.2059 274.375
89.2248 350.560
89.2438 459.561
89.2627 618.541
89.2816 849.335
89.3108 1355.35
89.3400 1692.35
89.3546 1593.10
89.3692 1355.04
89.3984 849.149
89.4214 578.918
89.4444 407.798
89.4674 298.794
89.4904 227.093
89.5364 143.560
89.5825 99.6509
89.6285 74.2988
89.6745 58.7486
89.7665 42.8626
89.8585 38.7225
89.9506 46.4566
89.9966 59.3315
90.0426 87.8589
90.0656 115.023
90.0886 160.119
90.1116 239.334
90.1346 382.197
90.1573 603.001
90.1800 749.913
90.2027 602.154
90.2254 380.627
90.2521 220.827
90.2788 139.674
90.3055 96.1967
90.3322 70.9338
90.3857 44.7683
90.4391 32.4633
90.4925 25.9293
90.5459 22.2911
90.6528 19.6735
90.7596 21.6683
90.8130 24.9804
90.8664 31.1480
90.9199 42.9342
90.9733 67.8836
91.0000 91.5555
91.0267 131.285
91.0534 202.522
91.0801 335.022
91.1051 531.871
91.1300 663.065
91.1550 531.537
91.1799 334.476
91.1964 243.295
91.2128 181.025
91.2458 109.071
91.2787 72.6386
91.3116 52.2538
91.3445 39.8536
91.3775 31.8083
91.4433 22.4209
91.5092 17.4189
91.5750 14.4975
91.7067 11.5651
91.9701 10.3391
92.2336 12.1440
92.4970 17.6422
92.6287 23.2122
92.7604 32.9490
92.8921 51.9202
92.9579 68.8579
93.0238 96.1196
93.0897 143.851
93.1226 182.193
93.1555 237.691
93.1884 321.559
93.2214 454.441
93.2543 675.167
93.2872 1048.07
93.3236 1675.20
93.3600 2092.88
93.3964 1674.31
93.4328 1047.08
93.4546 779.097
93.4765 589.334
93.5201 360.199
93.5637 238.752
93.6074 168.725
93.6510 125.259
93.6947 96.6436
93.7819 62.7035
93.8692 44.2242
93.9565 33.1251
94.1311 21.1293
94.3057 15.2557
94.4802 12.1035
94.8294 9.64065
95.1785 10.4012
95.3531 12.2788
95.5276 16.1087
95.7022 24.2625
95.7895 31.9595
95.8768 44.9597
95.9641 69.3052
96.0077 90.2259
96.0513 122.614
96.0950 176.233
96.1168 216.987
96.1386 273.000
96.1604 352.128
96.1823 467.030
96.2041 637.487
96.2259 889.929
96.2580 1421.22
96.2900 1774.93
96.3221 1420.68
96.3541 889.321
96.3744 651.453
96.3947 486.361
96.4353 291.903
96.4759 191.521
96.5165 134.659
96.5572 99.8096
96.5978 77.0769
96.6790 50.4016
96.7602 36.0863
96.8414 27.6424
97.0039 18.9714
97.1663 15.6533
97.3287 16.0991
97.4100 18.6307
97.4912 25.3885
97.5318 32.8330
97.5724 47.3845
97.5927 60.2520
97.6130 80.3995
97.6333 113.340
97.6536 167.984
97.6652 211.928
97.6768 262.114
97.7000 324.874
97.7232 262.505
97.7464 168.818
97.7748 99.6627
97.8031 65.7091
97.8315 48.1562
97.8598 38.3990
97.9165 29.2889
97.9732 26.3093
98.0866 28.3152
98.2000 39.0504
98.2000 39.0533
98.2000 39.0548
98.2000 39.0592
98.2001 39.0621
98.2001 39.0680
98.2002 39.0798
98.2004 39.1049
98.2007 39.1552
98.2014 39.2561
98.2027 39.4581
98.2054 39.8705
98.2108 40.7215
98.2217 42.5412
98.2433 46.7120
98.2866 57.7894
98.3299 74.3138
98.3732 100.126
98.4165 143.084
98.4598 220.847
98.4815 284.521
98.5031 377.047
98.5248 514.391
98.5464 717.792
98.5782 1146.34
98.6100 1431.81
98.6418 1145.68
98.6736 716.861
98.6943 520.431
98.7151 385.593
98.7565 228.857
98.7980 149.005
98.8394 104.134
98.8808 76.7455
98.9223 58.9139
99.0052 37.9704
99.0881 26.6381
99.1710 19.8289
99.3368 12.3907
99.5025 8.61216
99.6683 6.41921
99.9999 4.07811
100.000 122.981
125.000 107.949
150.000 96.9875
170.000 90.1512
200.000 81.9912
250.000 70.9866
300.000 63.9741
350.000 58.1329
400.000 53.4751
500.000 46.9823
600.000 41.9842
720.000 37.7115
800.000 35.4768
1000.00 30.9827
1250.00 26.9091
1500.00 23.9892
1700.00 22.1562
2000.00 19.9926
2500.00 17.4971
3000.00 15.4973
3500.00 14.0894
4000.00 12.9943
5000.00 11.1980
6000.00 10.0195
7200.00 8.88703
8000.00 8.29731
10000.0 7.30685
12500.0 6.36482
15000.0 5.71520
17000.0 5.27464
20000.0 4.76438
21644.0 4.55971
22000.0 4.51855
25000.0 3.91545
30000.0 3.41529
35000.0 3.10043
40000.0 2.86334
50000.0 2.46225
60000.0 2.21047
70000.0 2.06056
80000.0 1.90974
90000.0 1.78900
99999.9 1.70920
100000 1.70000
150000 1.50460
197510 1.30910
197511 1.30910
197810 1.30840
197813 1.30839
244830 1.12790
262140 1.05950
262141 1.05950
300000 0.926070
309050 0.909140
309560 0.908250
352140 0.775440
355960 0.762840
355963 0.762835
418780 0.661670
418781 0.661669
500000 0.569010
800000 0.421530
1.00000E+06 0.366330
1.20000E+06 0.321860
1.30000E+06 0.301890
1.35000E+06 0.292270
1.40000E+06 0.282870
1.45000E+06 0.273700
1.50000E+06 0.264740
1.55000E+06 0.256000
1.60000E+06 0.247460
1.65000E+06 0.239080
1.70000E+06 0.230920
1.90000E+06 0.200300
2.10000E+06 0.172730
2.35000E+06 0.142370
2.68450E+06 0.102890
3.00000E+06 0.0775290
3.50000E+06 0.0477800
4.42440E+06 0.0180260
4.92390E+06 0.0106410
5.48590E+06 0.00599680
6.00000E+06 0.00371900
6.50000E+06 0.00245288
7.00000E+06 0.00158530
7.61340E+06 0.000980412
7.98730E+06 0.000741653
8.00000E+06 0.000733544
8.75000E+06 0.000432077
9.00000E+06 0.000366551
9.50000E+06 0.000316557
1.05000E+07 0.000308370
1.15000E+07 0.000379323
1.25000E+07 0.000518499
1.35000E+07 0.000682235
1.41000E+07 0.000775019
1.44460E+07 0.000812788
1.60000E+07 0.000982418
1.65000E+07 0.000996063
1.70000E+07 0.00100971
1.75000E+07 0.00102335
1.80000E+07 0.00103700
1.90000E+07 0.00106429
2.00000E+07 0.00109158