Eu-153(n,g) ENDF/B-VII.1
Energy(eV) XS(b)
1.00000E-05 18616.5
1.30871E-05 16273.3
1.61743E-05 14638.0
2.00000E-05 13163.7
2.23486E-05 12452.8
2.85229E-05 11022.8
3.46972E-05 9993.94
4.70459E-05 8582.54
5.00000E-05 8325.11
5.93945E-05 7638.30
7.17431E-05 6949.80
8.40917E-05 6419.17
0.000100000 5886.35
0.000108789 5643.50
0.000133486 5094.58
0.000158183 4679.85
0.000200000 4161.72
0.000207578 4085.00
0.000232276 3861.60
0.000256973 3671.22
0.000306367 3362.05
0.000405156 2923.19
0.000500000 2631.04
0.000503945 2620.71
0.000516294 2589.14
0.000528642 2558.68
0.000553340 2500.84
0.000602734 2396.02
0.000800313 2078.78
0.000997891 1861.15
0.00100000 1859.18
0.00100611 1853.51
0.00101222 1847.90
0.00102443 1836.82
0.00104887 1815.24
0.00109774 1774.26
0.00119547 1699.96
0.00159062 1472.98
0.00198578 1317.60
0.00200000 1312.88
0.00204762 1297.45
0.00209524 1282.54
0.00219047 1254.19
0.00238094 1202.67
0.00277610 1113.20
0.00317125 1040.99
0.00396156 930.403
0.00475187 848.623
0.00500000 827.025
0.00566625 776.195
0.00633250 733.579
0.00791312 654.862
0.00949375 596.618
0.0100000 580.931
0.0113275 544.875
0.0126550 514.604
0.0158162 458.407
0.0189775 416.762
0.0200000 405.429
0.0226500 379.664
0.0253000 358.001
0.0253000 358.001
0.0253000 358.000
0.0253000 358.000
0.0253001 358.000
0.0253001 358.000
0.0253002 357.999
0.0253004 357.997
0.0253008 357.994
0.0253016 357.988
0.0253032 357.976
0.0253064 357.952
0.0253128 357.904
0.0253256 357.807
0.0253512 357.615
0.0254025 357.230
0.0255049 356.465
0.0257099 354.948
0.0261197 351.966
0.0269394 346.204
0.0285787 335.419
0.0318574 316.356
0.0384149 285.696
0.0500000 246.800
0.0515297 242.647
0.0548084 234.322
0.0580872 226.693
0.0646446 213.168
0.0777595 191.307
0.100000 164.340
0.103989 160.418
0.117104 148.928
0.130219 139.178
0.156449 123.423
0.182678 111.153
0.200000 104.403
0.235138 93.0992
0.287598 80.3523
0.322420 73.7585
0.322420 73.7585
0.322420 73.7585
0.322421 73.7584
0.322422 73.7582
0.322423 73.7580
0.322426 73.7575
0.322431 73.7566
0.322443 73.7546
0.322465 73.7508
0.322510 73.7430
0.322599 73.7276
0.322778 73.6968
0.323136 73.6352
0.323851 73.5123
0.325282 73.2679
0.328143 72.7843
0.333867 71.8377
0.345313 70.0224
0.368205 66.6768
0.413990 60.9449
0.413990 60.9449
0.413991 60.9448
0.413992 60.9447
0.413993 60.9446
0.413995 60.9443
0.414001 60.9437
0.414011 60.9425
0.414032 60.9401
0.414074 60.9354
0.414158 60.9259
0.414326 60.9069
0.414662 60.8690
0.415334 60.7933
0.416678 60.6426
0.419366 60.3438
0.424741 59.7563
0.435493 58.6201
0.456995 56.4932
0.500000 52.7503
0.531580 50.3726
0.531580 50.3726
0.531581 50.3725
0.531581 50.3725
0.531583 50.3724
0.531585 50.3722
0.531589 50.3719
0.531599 50.3712
0.531617 50.3699
0.531654 50.3673
0.531728 50.3621
0.531875 50.3517
0.532170 50.3308
0.532760 50.2891
0.533939 50.2061
0.536298 50.0411
0.541016 49.7155
0.550453 49.0812
0.569325 47.8777
0.607070 45.7081
0.682560 42.1767
0.682560 42.1767
0.682561 42.1766
0.682562 42.1766
0.682563 42.1765
0.682566 42.1764
0.682572 42.1762
0.682584 42.1757
0.682608 42.1747
0.682655 42.1728
0.682750 42.1690
0.682939 42.1613
0.683317 42.1460
0.684075 42.1155
0.685589 42.0546
0.688618 41.9339
0.694676 41.6966
0.706793 41.2382
0.731025 40.3831
0.779490 38.9023
0.876420 36.7497
0.876420 36.7497
0.876421 36.7497
0.876421 36.7497
0.876422 36.7497
0.876424 36.7496
0.876428 36.7496
0.876435 36.7494
0.876450 36.7492
0.876481 36.7487
0.876541 36.7476
0.876662 36.7456
0.876903 36.7414
0.877386 36.7332
0.878351 36.7168
0.880282 36.6843
0.884144 36.6204
0.891868 36.4971
0.907315 36.2680
0.938210 35.8791
1.00000 35.3741
1.12540 35.5011
1.12540 35.5011
1.12541 35.5011
1.12541 35.5012
1.12542 35.5013
1.12544 35.5014
1.12548 35.5017
1.12556 35.5023
1.12571 35.5035
1.12603 35.5059
1.12665 35.5108
1.12790 35.5206
1.13040 35.5409
1.13539 35.5836
1.14538 35.6780
1.16535 35.9040
1.20530 36.5169
1.28520 38.5331
1.44500 48.5831
1.44500 48.5834
1.44501 48.5842
1.44502 48.5850
1.44503 48.5866
1.44506 48.5898
1.44512 48.5962
1.44523 48.6091
1.44546 48.6348
1.44593 48.6865
1.44685 48.7905
1.44871 49.0011
1.45241 49.4330
1.45981 50.3420
1.47463 52.3634
1.50425 57.4463
1.56350 75.0707
1.59313 91.6852
1.62275 120.381
1.65238 175.488
1.68200 290.423
1.70450 436.169
1.72700 531.838
1.74950 434.748
1.77200 291.400
1.79285 205.998
1.81370 157.426
1.85540 113.780
1.85540 113.779
1.85541 113.776
1.85541 113.774
1.85542 113.768
1.85544 113.758
1.85547 113.738
1.85554 113.697
1.85568 113.616
1.85597 113.455
1.85653 113.136
1.85766 112.513
1.85992 111.320
1.86444 109.142
1.87348 105.518
1.89155 100.623
1.92770 97.2980
2.00000 106.206
2.09560 144.479
2.14340 180.543
2.19120 237.848
2.23900 335.050
2.28680 517.521
2.31070 674.334
2.33460 916.192
2.35850 1311.68
2.37045 1606.36
2.38240 2000.92
2.38240 2001.00
2.38241 2001.27
2.38242 2001.53
2.38243 2002.03
2.38246 2003.06
2.38251 2005.13
2.38262 2009.28
2.38283 2017.60
2.38326 2034.34
2.38413 2068.39
2.38585 2138.80
2.38930 2289.25
2.39620 2632.81
2.41000 3522.44
2.43300 5593.64
2.45600 6952.14
2.46750 6529.82
2.47900 5542.23
2.50200 3459.65
2.51941 2387.41
2.53681 1697.78
2.55422 1252.51
2.57163 956.490
2.60644 608.271
2.64125 423.506
2.67606 316.020
2.71088 249.331
2.78050 177.852
2.85013 148.301
2.91975 143.096
2.98938 160.559
3.05900 213.834
3.05900 213.837
3.05901 213.844
3.05901 213.851
3.05902 213.864
3.05905 213.891
3.05909 213.944
3.05918 214.052
3.05936 214.267
3.05973 214.698
3.06045 215.568
3.06190 217.333
3.06480 220.970
3.07060 228.693
3.08219 246.135
3.10538 291.057
3.15175 448.901
3.17494 592.546
3.19813 823.052
3.22131 1211.39
3.24450 1878.59
3.26925 2966.39
3.29400 3681.87
3.31875 2945.01
3.34350 1852.72
3.36079 1324.95
3.37808 973.498
3.39537 739.755
3.41266 580.855
3.44724 390.280
3.48183 288.484
3.51641 230.729
3.55099 197.680
3.62015 174.957
3.68931 197.276
3.72389 230.423
3.75848 288.881
3.79306 392.954
3.82764 590.410
3.84493 757.248
3.86222 1005.77
3.87951 1385.46
3.89680 1965.82
3.91235 2694.06
3.92790 3482.08
3.92790 3482.17
3.92791 3482.52
3.92792 3482.87
3.92793 3483.58
3.92796 3484.95
3.92803 3487.73
3.92815 3493.26
3.92841 3504.25
3.92891 3525.86
3.92991 3567.68
3.93193 3645.16
3.93595 3770.85
3.94400 3875.24
3.95580 3642.31
3.96760 3094.06
3.99120 1936.04
4.01349 1227.14
4.03578 817.996
4.05807 576.339
4.08036 425.947
4.12494 259.663
4.16953 175.861
4.21411 128.132
4.25869 98.4750
4.34785 65.2352
4.43701 48.4612
4.52618 40.1642
4.61534 40.6057
4.65992 49.5641
4.68221 60.6351
4.70450 81.0502
4.75000 135.426
4.79550 77.2862
4.82106 52.9765
4.84663 40.0264
4.89775 28.2409
4.94888 23.1855
5.00000 20.4626
5.04350 18.9923
5.04350 18.9923
5.04351 18.9921
5.04351 18.9920
5.04352 18.9918
5.04353 18.9913
5.04357 18.9904
5.04363 18.9886
5.04376 18.9850
5.04402 18.9778
5.04454 18.9633
5.04558 18.9347
5.04766 18.8780
5.05182 18.7676
5.06013 18.5575
5.07676 18.1764
5.11001 17.5473
5.17653 16.6956
5.30955 16.1537
5.44258 16.9869
5.57560 19.7103
5.70863 26.2193
5.77514 32.5318
5.84165 43.2422
5.90816 63.2095
5.94142 80.2245
5.97468 106.304
6.00793 148.850
6.04119 223.964
6.07444 369.556
6.09107 493.304
6.10770 671.646
6.12078 856.928
6.13385 1068.41
6.16000 1331.13
6.18615 1063.82
6.21230 665.880
6.22878 489.019
6.24526 366.148
6.27823 221.330
6.31119 146.501
6.34415 104.094
6.37711 78.0932
6.41008 61.1265
6.47600 41.1954
6.47600 41.1950
6.47601 41.1933
6.47602 41.1918
6.47603 41.1888
6.47606 41.1828
6.47611 41.1708
6.47623 41.1468
6.47645 41.0988
6.47690 41.0032
6.47780 40.8133
6.47959 40.4380
6.48319 39.7057
6.49037 38.3103
6.50474 35.7712
6.53348 31.5309
6.59096 25.4364
6.70591 18.5544
6.82087 15.0719
6.93583 13.1967
7.16574 11.8052
7.39565 12.2189
7.62556 14.2063
7.85548 18.5469
8.08539 27.9168
8.20034 36.8345
8.31530 52.0670
8.31530 52.0674
8.31531 52.0688
8.31532 52.0700
8.31533 52.0727
8.31536 52.0778
8.31542 52.0882
8.31554 52.1090
8.31577 52.1504
8.31624 52.2337
8.31718 52.4007
8.31907 52.7375
8.32283 53.4218
8.33036 54.8346
8.34543 57.8492
8.37555 64.7470
8.43580 83.2200
8.49605 111.601
8.55630 158.386
8.61655 243.388
8.64668 314.371
8.67680 421.215
8.70693 591.390
8.73705 881.786
8.75211 1106.58
8.76718 1417.03
8.78224 1850.74
8.79730 2452.47
8.82365 3917.60
8.85000 4889.81
8.87635 3905.23
8.90270 2437.39
8.91985 1767.40
8.93699 1307.54
8.97128 773.475
9.00557 501.673
9.03986 349.134
9.07415 256.219
9.10844 195.857
9.17703 125.221
9.24561 87.2640
9.31419 64.6515
9.45135 40.3513
9.58851 28.4160
9.72568 21.8441
10.0000 15.7718
10.3385 14.3206
10.5078 15.4051
10.6770 18.0927
10.6770 18.0931
10.6771 18.0944
10.6771 18.0956
10.6772 18.0980
10.6775 18.1029
10.6779 18.1125
10.6787 18.1318
10.6805 18.1708
10.6839 18.2494
10.6908 18.4102
10.7046 18.7455
10.7323 19.4753
10.7875 21.2064
10.8980 26.1340
11.0085 34.2357
11.1190 48.5501
11.2295 76.9974
11.2848 102.966
11.3400 145.787
11.3953 223.535
11.4229 288.397
11.4505 385.852
11.4781 540.809
11.5058 804.346
11.5196 1007.75
11.5334 1287.98
11.5472 1678.45
11.5610 2218.97
11.5855 3557.63
11.6100 4452.35
11.6345 3549.74
11.6590 2209.35
11.6824 1383.97
11.7059 912.243
11.7293 635.776
11.7528 464.816
11.7762 353.238
11.7996 277.028
11.8465 183.279
11.8934 130.377
11.9403 97.8481
12.0340 61.9871
12.1278 44.4515
12.2215 36.4344
12.2684 35.8226
12.3153 39.3561
12.3387 44.3344
12.3621 53.8764
12.3856 72.6167
12.4090 110.187
12.4295 164.544
12.4500 200.897
12.4705 163.000
12.4910 107.272
12.5124 70.6881
12.5338 50.6502
12.5551 39.1920
12.5765 32.1735
12.6193 24.4266
12.6620 20.4796
12.7475 16.9390
12.8330 16.1292
12.9185 17.6255
13.0040 23.6017
13.0468 30.8533
13.0895 45.7716
13.1109 59.4604
13.1323 81.5719
13.1536 119.144
13.1750 184.228
13.1975 289.290
13.2200 358.793
13.2425 288.544
13.2650 183.096
13.2789 136.721
13.2928 104.161
13.3206 65.3007
13.3484 44.9269
13.3763 33.2430
13.4319 21.2249
13.4875 15.5224
13.5988 10.4319
13.7100 8.25763
13.7100 8.25736
13.7101 8.25668
13.7101 8.25600
13.7102 8.25478
13.7104 8.25234
13.7107 8.24747
13.7115 8.23763
13.7129 8.21808
13.7159 8.17944
13.7217 8.10405
13.7334 7.96044
13.7567 7.69919
13.8035 7.26317
13.8969 6.64027
14.0838 5.98205
14.4575 5.94372
14.6444 6.60689
14.8313 8.46803
14.9247 10.6967
15.0181 15.7141
15.0649 20.9855
15.1116 31.0897
15.1349 39.9091
15.1583 53.5788
15.1817 75.6346
15.2050 111.624
15.2325 174.963
15.2600 216.999
15.2875 174.805
15.3150 111.538
15.3453 67.9924
15.3756 45.0257
15.4059 32.4123
15.4363 24.9928
15.4969 17.3035
15.5575 13.7740
15.6788 11.1136
15.8000 10.7111
16.0425 13.2870
16.1638 17.1966
16.2244 21.3720
16.2547 25.2328
16.2850 32.1375
16.3300 46.3074
16.3750 40.2437
16.4128 39.8899
16.4507 45.3357
16.4885 55.6350
16.5264 72.6515
16.5642 101.593
16.6020 154.947
16.6210 199.398
16.6399 265.088
16.6588 364.702
16.6777 515.842
16.7039 818.545
16.7300 1019.85
16.7562 817.811
16.7823 515.359
16.8064 332.963
16.8306 226.406
16.8547 162.990
16.8789 123.436
16.9271 79.9090
16.9754 58.5275
17.0237 47.0146
17.0720 40.6064
17.1685 35.8342
17.2651 37.8657
17.3616 47.7635
17.4099 58.7020
17.4582 79.6905
17.4823 98.3581
17.5064 128.441
17.5306 180.570
17.5426 220.896
17.5547 275.044
17.5660 340.105
17.5774 414.219
17.6000 508.707
17.6030 507.369
17.6030 507.347
17.6031 507.292
17.6031 507.247
17.6032 507.154
17.6034 506.948
17.6037 506.514
17.6043 505.509
17.6057 502.960
17.6083 495.819
17.6136 474.425
17.6242 414.354
17.6453 294.607
17.6652 222.634
17.6850 183.235
17.7247 156.788
17.7644 167.100
17.8042 205.823
17.8240 238.697
17.8439 284.759
17.8637 349.956
17.8836 444.356
17.9034 585.751
17.9233 805.777
17.9432 1161.67
17.9630 1742.80
17.9865 2773.41
18.0100 3459.40
18.0218 3255.98
18.0335 2769.79
18.0570 1738.53
18.0763 1171.33
18.0955 819.214
18.1148 598.719
18.1340 455.629
18.1726 291.651
18.2111 207.343
18.2496 160.058
18.2881 132.430
18.3652 108.984
18.4422 113.763
18.5192 154.162
18.5578 201.790
18.5963 291.304
18.6348 473.985
18.6541 635.328
18.6733 874.498
18.7017 1379.80
18.7300 1715.74
18.7584 1376.23
18.7867 868.965
18.8050 638.377
18.8234 479.596
18.8600 294.568
18.8967 200.104
18.9333 147.145
18.9700 115.070
19.0066 94.5225
19.0799 71.4959
19.1532 60.8042
19.2265 56.6386
19.3732 60.9342
19.5198 83.6467
19.5931 107.439
19.6664 148.383
19.7397 224.891
19.7763 289.859
19.8130 388.901
19.8497 549.150
19.8863 828.216
19.9046 1048.50
19.9230 1357.81
19.9413 1798.88
19.9596 2423.68
20.0000 4358.87
20.0200 4833.39
20.0502 3863.99
20.0804 2414.90
20.0993 1774.67
20.1181 1328.27
20.1559 799.379
20.1936 524.530
20.2313 368.088
20.2690 271.837
20.3067 208.824
20.3822 134.463
20.4576 94.1111
20.5331 69.8623
20.6839 43.4851
20.8348 30.2702
20.9857 22.8035
21.2875 15.4948
21.5892 13.1841
21.7401 13.5017
21.8910 15.2768
22.0419 19.9901
22.1173 24.7539
22.1927 33.0706
22.2682 49.1620
22.3059 63.3923
22.3436 86.0468
22.3813 125.060
22.4191 199.815
22.4379 264.819
22.4568 365.037
22.4756 525.463
22.4851 640.079
22.4945 784.833
22.5059 1002.61
22.5173 1251.18
22.5400 1561.54
22.5514 1469.64
22.5628 1249.97
22.5855 783.425
22.6030 539.217
22.6030 538.994
22.6031 538.217
22.6031 537.552
22.6033 536.226
22.6035 533.475
22.6040 528.135
22.6050 517.551
22.6070 497.182
22.6109 459.452
22.6188 394.709
22.6347 298.175
22.6663 185.202
22.6980 125.986
22.7296 91.7700
22.7613 70.4580
22.7929 56.4070
22.8562 39.8706
22.9195 31.2190
22.9828 26.5536
23.1094 23.7619
23.2360 27.8807
23.2993 33.7378
23.3626 44.6079
23.4259 65.9682
23.4576 84.7368
23.4892 114.186
23.5209 163.643
23.5525 254.521
23.5683 330.128
23.5842 441.567
23.6000 610.052
23.6158 864.920
23.6379 1380.06
23.6600 1722.89
23.6821 1378.49
23.7042 862.801
23.7233 567.211
23.7423 388.059
23.7614 278.013
23.7805 207.535
23.8186 127.478
23.8568 86.1639
23.8949 62.3027
23.9330 47.3488
24.0093 30.3906
24.0856 21.5002
24.1618 16.2551
24.3144 10.6010
24.4669 7.75186
24.6195 6.10449
24.9246 4.37291
25.2296 3.59575
25.5347 3.43359
25.6873 3.72786
25.8398 4.79638
25.9161 6.20102
25.9542 7.46691
25.9924 9.50191
26.0305 13.0384
26.0686 19.8751
26.0877 25.8670
26.1068 35.1689
26.1258 50.1881
26.1449 74.6975
26.1675 118.106
26.1900 146.993
26.2126 117.987
26.2351 74.5330
26.2535 50.6593
26.2719 35.7920
26.2904 26.4507
26.3088 20.3644
26.3456 13.3328
26.3825 9.64503
26.4193 7.49495
26.4561 6.13899
26.5298 4.59556
26.6772 3.31696
26.8245 2.83267
27.1192 2.56567
27.4140 2.72466
27.7087 3.36523
27.8560 4.05312
28.0034 5.30411
28.1507 7.88408
28.2244 10.3344
28.2981 14.5583
28.3718 22.7819
28.4086 30.1697
28.4455 42.1686
28.4823 63.4853
28.5007 80.8765
28.5191 106.449
28.5376 145.892
28.5560 210.212
28.5744 321.274
28.5836 406.039
28.5928 518.221
28.6021 662.584
28.6114 827.454
28.6300 1033.22
28.6486 826.919
28.6672 517.574
28.6894 292.119
28.7117 178.987
28.7339 118.942
28.7562 84.3050
28.7784 62.7878
28.8006 48.6150
28.8451 31.8059
28.8896 22.6528
28.9341 17.1565
29.0230 11.2163
29.0230 11.2154
29.0231 11.2127
29.0231 11.2105
29.0232 11.2060
29.0234 11.1971
29.0238 11.1788
29.0246 11.1428
29.0263 11.0716
29.0295 10.9314
29.0360 10.6614
29.0490 10.1599
29.0750 9.29104
29.1270 7.96822
29.2310 6.38315
29.3350 5.63628
29.4390 5.46716
29.5430 5.94466
29.6469 7.75067
29.6989 9.96395
29.7509 14.6868
29.7769 19.2403
29.8029 27.0387
29.8289 41.4809
29.8549 69.5592
29.8775 109.066
29.9000 135.372
29.9226 109.040
29.9451 69.5675
29.9641 47.3618
29.9831 33.7629
30.0021 25.3428
30.0211 19.9277
30.0591 13.7824
30.0970 10.6555
30.1730 7.88829
30.2490 6.93409
30.4009 6.98895
30.5528 8.65278
30.7047 12.6738
30.7807 16.5177
30.8567 22.9943
30.9326 35.0272
30.9706 45.2720
31.0086 60.9795
31.0466 86.6304
31.0845 131.995
31.1225 220.161
31.1415 295.292
31.1605 403.802
31.1754 516.306
31.1903 644.767
31.2200 805.187
31.2498 644.148
31.2795 403.042
31.3147 228.947
31.3498 141.005
31.3850 94.0786
31.4201 66.9156
31.4553 50.0089
31.4904 38.8611
31.5607 25.6277
31.6310 18.4325
31.7013 14.1353
31.8420 9.60021
31.9826 7.65200
32.1232 7.35004
32.1935 8.10577
32.2638 10.4350
32.2990 13.0600
32.3341 18.1139
32.3693 29.0329
32.3868 39.2906
32.4044 55.3318
32.4272 85.8972
32.4500 106.221
32.4728 85.7529
32.4956 55.0860
32.5111 40.5169
32.5266 30.6754
32.5577 19.4627
32.5887 13.8613
32.6198 10.7528
32.6818 7.65847
32.7439 6.25486
32.8680 5.12429
32.9922 4.80433
33.2405 5.09373
33.4888 6.34059
33.7370 9.27291
33.8612 12.1537
33.9853 17.2112
34.1095 27.2910
34.1716 36.5696
34.2336 52.0466
34.2957 80.6828
34.3267 105.060
34.3578 142.454
34.3888 203.648
34.4198 312.166
34.4354 399.435
34.4509 524.179
34.4664 705.728
34.4819 968.760
34.5060 1547.63
34.5300 1932.89
34.5541 1546.50
34.5781 967.431
34.5936 704.368
34.6091 523.016
34.6402 311.348
34.6712 203.069
34.7023 142.107
34.7333 104.875
34.7643 80.6484
34.8264 52.2684
34.8885 37.0139
34.9506 27.9469
35.0747 18.2854
35.1989 13.6788
35.3230 11.3219
35.5713 9.86239
35.8196 11.3709
35.9438 13.6257
36.0679 17.8677
36.1921 26.4464
36.2541 34.2848
36.3162 47.1766
36.3783 70.5019
36.4093 89.8971
36.4404 118.962
36.4714 165.025
36.5024 243.063
36.5180 303.058
36.5335 385.419
36.5490 499.674
36.5645 656.886
36.5923 1047.07
36.6200 1306.79
36.6478 1046.54
36.6755 656.493
36.6940 474.611
36.7125 350.889
36.7494 208.730
36.7864 137.292
36.8234 97.6383
36.8604 73.7738
36.8973 58.5101
36.9713 41.2783
37.0452 32.9100
37.1191 29.0405
37.2670 29.5231
37.2670 29.5239
37.2671 29.5261
37.2671 29.5280
37.2672 29.5321
37.2675 29.5404
37.2679 29.5566
37.2688 29.5898
37.2705 29.6568
37.2740 29.7960
37.2809 30.0936
37.2948 30.7684
37.3225 32.4658
37.3780 37.5913
37.4336 46.1240
37.4891 60.6806
37.5446 87.4182
37.5723 109.759
37.6001 143.302
37.6278 196.575
37.6417 235.490
37.6556 287.080
37.6695 356.926
37.6834 453.147
37.6972 587.210
37.7111 772.558
37.7233 984.706
37.7356 1226.91
37.7600 1530.00
37.7722 1441.31
37.7845 1228.36
37.8089 776.150
37.8369 458.051
37.8648 295.223
37.8927 208.557
37.9207 159.734
37.9766 115.254
38.0325 106.369
38.0883 124.003
38.1163 146.392
38.1442 184.267
38.1722 249.267
38.2001 366.962
38.2141 462.061
38.2281 597.934
38.2420 795.095
38.2560 1079.66
38.2780 1714.49
38.3000 2136.58
38.3220 1711.33
38.3440 1074.19
38.3657 670.144
38.3873 441.480
38.4090 308.505
38.4306 226.672
38.4739 137.013
38.5172 92.1485
38.5605 66.6516
38.6038 50.7954
38.6903 32.8656
38.7769 23.4337
38.8635 17.8302
39.0367 11.7332
39.2099 8.64392
39.3830 6.87626
39.7294 5.13776
40.0757 4.62406
40.4220 5.18633
40.5952 6.30570
40.6818 7.40042
40.7684 9.28910
40.8550 12.9661
40.8983 16.2898
40.9415 21.7587
40.9848 31.7285
41.0065 40.1151
41.0281 52.8465
41.0498 73.4160
41.0714 109.249
41.0931 177.493
41.1039 234.497
41.1147 315.532
41.1235 402.386
41.1324 501.444
41.1500 625.189
41.1677 501.429
41.1853 315.673
41.1997 213.486
41.2142 149.889
41.2286 109.980
41.2430 84.0417
41.2719 54.1802
41.3007 38.6810
41.3296 29.7932
41.3584 24.3405
41.4161 18.5481
41.4738 16.0942
41.5315 15.3467
41.6470 17.1420
41.7624 23.9314
41.8201 30.8310
41.8778 42.6884
41.9355 65.0924
41.9643 84.4342
41.9932 114.488
42.0221 164.510
42.0365 202.716
42.0509 255.422
42.0653 330.345
42.0798 439.835
42.0942 603.820
42.1086 848.951
42.1293 1355.74
42.1500 1693.46
42.1707 1355.12
42.1914 848.309
42.2058 604.011
42.2201 440.606
42.2345 331.298
42.2489 256.494
42.2776 165.635
42.3063 115.713
42.3350 85.7651
42.3638 66.5771
42.4212 44.5745
42.4787 33.2401
42.5361 27.0115
42.6510 22.2384
42.7659 24.2834
42.8234 28.4493
42.8808 36.4284
42.9383 51.9769
42.9670 65.3273
42.9957 85.6802
43.0244 118.456
43.0532 174.924
43.0819 280.183
43.0962 366.221
43.1106 486.391
43.1230 621.150
43.1353 775.194
43.1600 967.607
43.1847 774.466
43.2094 485.289
43.2339 301.438
43.2583 197.902
43.2828 137.946
43.3072 101.168
43.3561 61.0738
43.4050 41.1468
43.4539 29.9004
43.5028 22.9578
43.6006 15.2052
43.6984 11.2175
43.7962 8.92468
43.9918 6.64811
44.1873 5.92285
44.3829 6.54155
44.4807 7.89254
44.5785 11.4130
44.6274 15.4235
44.6763 23.7031
44.7008 31.4801
44.7252 44.4638
44.7497 67.6356
44.7741 110.537
44.7971 174.427
44.8200 216.995
44.8430 174.404
44.8659 110.558
44.8932 64.2253
44.9205 40.9586
44.9478 28.6224
44.9752 21.5338
45.0298 14.3390
45.0844 11.1117
45.1937 8.84958
45.3029 9.00146
45.4122 11.1375
45.4668 13.4361
45.5214 17.3700
45.5760 24.6068
45.6307 39.6884
45.6580 53.9714
45.6853 77.9989
45.7126 121.353
45.7399 202.818
45.7524 258.524
45.7650 322.123
45.7900 401.595
45.8151 321.989
45.8401 202.684
45.8592 140.633
45.8783 100.768
45.8974 75.0262
45.9165 57.9197
45.9547 37.7651
45.9929 27.0324
46.0310 20.7446
46.0692 16.7981
46.1456 12.4188
46.2220 10.3154
46.2984 9.32078
46.4511 9.14947
46.6039 11.0031
46.6802 13.0922
46.7566 16.7304
46.8330 23.6325
46.8712 29.6281
46.9094 39.0384
46.9475 55.0042
46.9857 85.0592
47.0048 110.803
47.0239 149.926
47.0430 211.490
47.0526 254.883
47.0621 309.094
47.0741 393.586
47.0861 490.035
47.1100 610.678
47.1220 575.313
47.1340 490.434
47.1579 310.091
47.1796 203.063
47.2012 139.932
47.2229 102.122
47.2445 78.4778
47.2879 52.6110
47.3312 40.2744
47.3745 34.1637
47.4178 31.4774
47.5045 32.5281
47.5911 41.6973
47.6344 50.9410
47.6777 65.7900
47.7210 90.7454
47.7644 136.131
47.7860 173.635
47.8077 229.137
47.8293 314.936
47.8510 453.660
47.8510 453.823
47.8511 454.314
47.8511 454.805
47.8513 455.790
47.8515 457.685
47.8520 461.590
47.8529 469.448
47.8547 485.698
47.8585 520.452
47.8659 600.091
47.8808 807.098
47.9054 1287.53
47.9300 1607.34
47.9546 1286.60
47.9792 805.825
47.9991 543.313
48.0191 379.236
48.0390 275.732
48.0589 208.154
48.0988 129.866
48.1386 88.7285
48.1785 64.7300
48.2183 49.6012
48.2980 32.4143
48.3777 23.4634
48.4574 18.2804
48.6168 13.0174
48.7762 10.8931
48.9356 10.5000
49.0950 12.3049
49.1747 16.0521
49.2146 21.0641
49.2345 25.8212
49.2544 33.5059
49.3000 55.8325
49.3456 38.3923
49.3728 32.6160
49.4000 33.3589
49.4271 40.4573
49.4543 57.4472
49.4772 81.7546
49.5000 98.2262
49.5229 82.3441
49.5457 58.5547
49.5711 42.6012
49.5966 34.9569
49.6475 30.6788
49.6983 33.0654
49.7492 40.4474
49.8001 55.3766
49.8510 86.8965
49.8764 116.615
49.9018 166.317
49.9146 204.049
49.9273 255.284
49.9400 325.477
49.9527 420.802
49.9645 535.070
49.9764 665.533
50.0000 828.823
50.0118 781.063
50.0237 666.352
50.0473 422.698
50.0671 286.812
50.0868 203.464
50.1065 151.887
50.1263 118.894
50.1658 82.0624
50.2053 64.3235
50.2842 52.2383
50.3632 55.6060
50.4422 72.9245
50.4817 89.9351
50.5212 117.100
50.5606 162.502
50.6001 243.978
50.6199 309.848
50.6396 404.228
50.6594 541.931
50.6791 742.046
50.7096 1180.64
50.7400 1472.48
50.7705 1179.57
50.8009 740.527
50.8236 516.419
50.8462 370.728
50.8689 275.768
50.8915 212.145
50.9368 136.531
50.9822 95.8701
51.0275 71.8637
51.0728 56.6856
51.1634 39.6353
51.2540 31.2374
51.3447 27.0619
51.5259 25.6266
51.7072 31.9520
51.7978 39.6642
51.8884 53.5419
51.9790 80.5131
52.0243 104.217
52.0697 141.603
52.1150 205.063
52.1376 254.461
52.1603 323.830
52.1829 424.637
52.2056 576.250
52.2283 811.542
52.2509 1177.97
52.2805 1878.51
52.3100 2344.77
52.3396 1877.78
52.3691 1177.49
52.3891 846.446
52.4091 622.578
52.4491 367.506
52.4891 240.425
52.5292 170.413
52.5692 128.673
52.6092 102.423
52.6892 74.5532
52.7692 65.4696
52.8493 72.9044
52.8893 86.8660
52.9293 115.263
52.9693 174.603
52.9893 226.955
53.0093 304.017
53.0245 382.111
53.0397 471.416
53.0700 582.687
53.1004 469.315
53.1307 299.979
53.1653 180.556
53.1999 118.596
53.2345 84.8469
53.2690 65.0223
53.3382 44.3876
53.4074 34.8683
53.5457 28.2497
53.6840 29.6978
53.8223 39.2106
53.8915 49.4669
53.9607 67.3790
54.0298 101.368
54.0644 130.622
54.0990 175.796
54.1336 250.147
54.1681 382.954
54.1854 490.371
54.2027 644.727
54.2200 870.782
54.2373 1200.81
54.2637 1917.17
54.2900 2394.23
54.3164 1915.88
54.3427 1199.17
54.3677 757.630
54.3927 502.966
54.4177 352.727
54.4427 259.385
54.4926 156.391
54.5426 104.741
54.5926 75.5087
54.6426 57.5029
54.7425 37.6608
54.8425 28.0538
54.9424 23.8130
55.0424 25.3326
55.0923 32.0197
55.1173 40.0109
55.1423 54.9218
55.1900 92.8554
55.2377 56.6412
55.2735 39.3623
55.3092 34.0003
55.3450 34.5150
55.3807 39.6231
55.4165 50.9085
55.4522 73.9547
55.4701 94.0725
55.4880 124.682
55.5058 172.599
55.5237 247.714
55.5469 390.825
55.5700 486.057
55.5932 390.065
55.6163 246.305
55.6422 146.338
55.6680 93.8723
55.6939 65.0280
55.7198 47.9537
55.7715 29.8729
55.8232 21.0664
55.8749 16.1158
55.9267 13.0412
56.0301 9.53685
56.2370 6.49983
56.4439 5.19631
56.8577 4.13066
57.2716 3.86185
57.6854 4.07173
58.0992 4.91777
58.3061 5.87009
58.5130 7.90454
58.6165 10.1129
58.7199 14.9974
58.7716 20.2970
58.8234 31.2230
58.8492 41.6840
58.8751 59.6763
58.9009 93.4146
58.9268 160.480
58.9484 252.276
58.9700 313.494
58.9916 252.665
59.0132 161.332
59.0337 105.217
59.0541 72.9601
59.0745 54.0518
59.0950 42.4361
59.1359 30.0099
59.1767 24.3018
59.2585 20.7047
59.3403 22.0728
59.4220 27.8665
59.4629 33.4656
59.5038 42.4647
59.5447 57.8323
59.5855 86.6620
59.6060 111.171
59.6264 148.141
59.6469 205.707
59.6673 295.853
59.6937 466.665
59.7200 580.628
59.7464 467.159
59.7727 297.006
59.7897 219.788
59.8067 166.692
59.8408 105.072
59.8748 73.9467
59.9088 56.8261
59.9769 40.6623
60.0450 34.7083
60.1811 34.5292
60.2492 38.0215
60.3173 43.9219
60.3853 52.9973
60.4534 66.8478
60.5215 88.6549
60.5895 125.119
60.6236 153.101
60.6576 192.027
60.6916 248.269
60.7257 333.328
60.7597 469.684
60.7937 704.212
60.8278 1141.42
60.8448 1499.54
60.8618 2000.14
60.8909 3196.79
60.9200 3993.46
60.9491 3194.47
60.9782 1997.62
61.0072 1232.84
61.0362 803.729
61.0652 556.042
61.0942 404.573
61.1231 306.530
61.1521 239.972
61.2101 158.597
61.2681 112.956
61.3261 84.9960
61.4420 54.2117
61.4420 54.2081
61.4421 54.1955
61.4421 54.1847
61.4423 54.1613
61.4425 54.1146
61.4430 54.0232
61.4441 53.8394
61.4461 53.4750
61.4502 52.7612
61.4585 51.3819
61.4749 48.8109
61.5079 44.3275
61.5737 37.4240
61.7054 29.0263
61.8370 25.0665
61.9687 24.3650
62.1004 27.6043
62.1662 31.8028
62.2321 39.4325
62.2979 54.0504
62.3637 85.6768
62.3967 116.607
62.4296 170.414
62.4625 272.224
62.4954 476.103
62.5227 754.097
62.5500 939.173
62.5773 753.911
62.6046 476.000
62.6373 273.307
62.6700 171.825
62.7027 118.124
62.7353 87.2915
62.8007 55.9776
62.8661 41.8548
62.9314 34.9107
62.9968 31.6437
63.1275 31.4566
63.2582 38.6151
63.3236 46.3385
63.3890 59.3337
63.4543 82.8456
63.5197 131.792
63.5524 179.117
63.5850 261.995
63.6177 422.896
63.6341 560.832
63.6504 761.584
63.6752 1194.48
63.7000 1485.34
63.7248 1207.13
63.7496 787.869
63.7669 587.999
63.7842 458.043
63.8187 324.020
63.8533 278.462
63.8878 282.955
63.9224 331.206
63.9569 438.434
63.9742 526.478
63.9915 649.378
64.0087 820.853
64.0260 1056.39
64.0580 1662.88
64.0900 2066.23
64.1060 1944.17
64.1220 1654.38
64.1540 1039.54
64.1754 751.480
64.1968 555.451
64.2397 329.953
64.2825 215.938
64.3253 152.018
64.3682 112.962
64.4110 87.4609
64.4967 57.3147
64.5824 40.8396
64.6680 30.8407
64.8394 19.7953
65.0107 14.1370
65.1820 10.8715
65.5247 7.57456
65.8674 6.42661
66.2101 7.13570
66.3814 9.00102
66.4671 10.9266
66.5527 14.3334
66.6384 21.0383
66.6812 27.0714
66.7241 36.8493
66.7669 54.1472
66.8097 88.7183
66.8312 120.176
66.8526 170.949
66.8740 257.485
66.8847 322.748
66.8954 408.377
66.9066 521.539
66.9177 650.799
66.9400 812.226
66.9623 650.635
66.9846 408.225
67.0021 279.187
67.0196 197.310
67.0371 145.020
67.0545 110.532
67.0895 70.2265
67.1245 48.8980
67.1594 36.4321
67.1944 28.6005
67.2643 19.8315
67.3342 15.4843
67.4042 13.2545
67.5440 12.1460
67.6839 14.5824
67.7538 17.7986
67.8237 23.6949
67.8936 35.2646
67.9286 45.4647
67.9636 61.5559
67.9985 88.8264
68.0335 139.634
68.0510 182.510
68.0684 246.656
68.0859 345.417
68.1034 497.974
68.1151 636.647
68.1267 795.193
68.1500 993.369
68.1733 794.812
68.1966 497.448
68.2106 370.204
68.2246 280.230
68.2526 171.722
68.2806 114.272
68.3086 81.1604
68.3366 60.6057
68.3646 47.0708
68.4206 31.0002
68.4766 22.2292
68.5326 16.9442
68.6446 11.1954
68.7566 8.34331
68.8686 6.78202
69.0927 5.48098
69.3167 5.68495
69.4287 6.46202
69.5407 8.09455
69.6527 11.5748
69.7087 14.8214
69.7647 20.2090
69.8207 30.0010
69.8487 38.1451
69.8767 50.3345
69.9047 69.5783
69.9327 101.976
69.9607 160.484
69.9887 270.550
70.0015 345.768
70.0144 431.666
70.0400 539.035
70.0657 431.482
70.0913 270.308
70.1103 188.572
70.1292 135.286
70.1482 100.462
70.1671 77.0776
70.2050 49.2039
70.2429 34.1506
70.2808 25.2142
70.3187 19.5146
70.3944 12.9757
70.4702 9.55258
70.5460 7.58558
70.6976 5.71840
70.8491 5.38966
70.9249 5.78469
71.0007 6.80070
71.0765 9.06503
71.1144 11.1626
71.1522 14.5609
71.1901 20.4713
71.2280 31.8416
71.2470 41.7299
71.2659 56.9372
71.2849 81.2103
71.3038 120.250
71.3269 191.072
71.3500 238.229
71.3731 190.945
71.3962 120.044
71.4137 83.3430
71.4312 59.6599
71.4487 44.3181
71.4662 34.0858
71.5011 21.9660
71.5361 15.4530
71.5711 11.5906
71.6060 9.12411
71.6760 6.27374
71.7459 4.74967
71.8159 3.83738
71.9558 2.83936
72.2355 2.03750
72.5153 1.74870
72.7951 1.67247
73.0749 1.80794
73.2147 2.05580
73.3546 2.70803
73.4246 3.48846
73.4945 5.23666
73.5295 7.04580
73.5645 10.4282
73.5820 13.2982
73.5994 17.6136
73.6169 24.3111
73.6344 34.7400
73.6572 54.6719
73.6800 67.9417
73.7028 54.6671
73.7256 34.7428
73.7522 20.4835
73.7787 13.2072
73.8052 9.29913
73.8318 7.02793
73.8849 4.67979
73.9379 3.57768
74.0441 2.64129
74.1503 2.29731
74.3626 2.14308
74.5750 2.27343
74.7873 2.62300
74.9996 3.38525
75.1058 4.18343
75.2120 5.89163
75.2651 7.70531
75.3181 11.3869
75.3447 14.8669
75.3712 20.7862
75.3978 31.7153
75.4243 53.0007
75.4472 82.7476
75.4700 102.592
75.4929 82.9065
75.5157 53.3372
75.5369 35.4518
75.5581 25.0550
75.5793 18.9023
75.6004 15.0969
75.6428 10.9840
75.6852 9.04914
75.7699 7.63812
75.8547 7.53544
76.0241 9.04938
76.1936 12.6892
76.3631 20.4312
76.4478 27.7165
76.5326 40.0424
76.6173 63.2667
76.6597 83.3835
76.7020 114.799
76.7444 167.470
76.7656 208.018
76.7868 264.372
76.8080 345.196
76.8291 464.711
76.8503 646.151
76.8715 921.951
76.9008 1474.32
76.9300 1842.28
76.9593 1473.67
76.9885 921.178
77.0183 562.564
77.0480 363.757
77.0778 250.071
77.1075 180.987
77.1373 136.497
77.1671 106.392
77.2266 69.6936
77.2861 49.1485
77.3456 36.5553
77.4646 22.6062
77.5837 15.4892
77.7027 11.3912
77.9408 7.13409
78.1788 5.13470
78.4169 4.10773
78.6549 3.60386
78.8930 3.46318
78.8930 3.46319
78.8931 3.46319
78.8931 3.46320
78.8932 3.46321
78.8933 3.46322
78.8937 3.46326
78.8943 3.46334
78.8956 3.46351
78.8983 3.46387
78.9035 3.46473
78.9140 3.46696
78.9350 3.47345
78.9770 3.49486
79.0609 3.57359
79.2289 3.90412
79.3968 4.57190
79.5647 5.86061
79.7326 8.54432
79.8166 11.0640
79.9006 15.3306
79.9845 23.4019
80.0265 30.4396
80.0685 41.5238
80.1105 60.3628
80.1524 95.8052
80.1734 126.070
80.1944 171.909
80.2154 243.641
80.2364 356.579
80.2498 455.756
80.2632 569.137
80.2900 710.905
80.3168 569.122
80.3436 356.707
80.3700 222.078
80.3965 146.212
80.4229 102.306
80.4494 75.4422
80.5022 46.3503
80.5551 32.1890
80.6080 24.5357
80.6609 20.2106
80.7666 16.8547
80.8724 18.4256
80.9252 21.5176
80.9781 27.3745
81.0310 38.6157
81.0839 62.3508
81.1103 84.7634
81.1367 122.151
81.1632 188.587
81.1764 240.565
81.1896 310.663
81.2022 396.512
81.2148 494.626
81.2400 617.168
81.2652 494.245
81.2904 310.026
81.3163 189.632
81.3421 123.220
81.3680 85.3603
81.3939 62.3935
81.4197 47.6134
81.4456 37.6127
81.4973 25.4105
81.5490 18.5670
81.6007 14.3652
81.7042 9.71265
81.8076 7.37041
81.9111 6.08665
82.1180 5.07252
82.3248 5.44423
82.4283 6.30412
82.5317 8.04742
82.6352 11.7272
82.6869 15.1619
82.7386 20.8862
82.7903 31.3753
82.8162 40.1829
82.8421 53.4953
82.8679 74.8011
82.8938 111.382
82.9196 179.366
82.9326 234.866
82.9455 312.299
82.9566 399.128
82.9678 498.202
82.9900 621.957
83.0123 498.054
83.0345 312.112
83.0489 227.476
83.0633 169.173
83.0920 101.121
83.1207 66.3066
83.1495 46.7000
83.1782 34.7298
83.2070 26.9423
83.2644 17.8274
83.3219 12.9497
83.3794 10.0834
83.4944 7.18870
83.6093 6.23930
83.7243 6.96765
83.7818 8.55652
83.8392 12.3927
83.8680 16.3077
83.8967 23.2871
83.9255 36.8411
83.9398 48.3332
83.9542 64.8430
83.9771 102.055
84.0000 126.830
84.0229 101.923
84.0458 64.5997
84.0685 40.8127
84.0912 27.4088
84.1139 19.6393
84.1366 14.8681
84.1820 9.64970
84.2274 7.04095
84.2728 5.55849
84.3182 4.63661
84.4089 3.59645
84.5905 2.74574
84.7721 2.44927
85.1352 2.41959
85.4984 2.85811
85.8615 3.99659
86.0431 5.13075
86.2246 7.13274
86.4062 11.1741
86.4970 14.9744
86.5878 21.5068
86.6786 34.2713
86.7240 45.8413
86.7693 64.8781
86.8147 99.4587
86.8374 128.378
86.8601 171.968
86.8828 241.635
86.9055 361.013
86.9169 453.881
86.9282 582.677
86.9396 763.485
86.9509 1015.35
86.9705 1620.84
86.9900 2023.94
87.0096 1620.83
87.0291 1015.69
87.0484 631.798
87.0676 414.999
87.0869 289.318
87.1061 212.283
87.1447 128.686
87.1832 87.7461
87.2217 65.3526
87.2602 52.3466
87.3373 40.7464
87.4143 40.9779
87.4528 45.6230
87.4913 54.9332
87.5299 72.2862
87.5684 105.644
87.5876 133.764
87.6069 175.360
87.6262 238.206
87.6454 332.906
87.6591 423.480
87.6727 527.039
87.7000 656.268
87.7273 525.950
87.7546 330.846
87.7787 217.107
87.8027 148.798
87.8268 107.122
87.8508 80.5397
87.8989 50.4103
87.9470 34.8410
87.9951 25.8088
88.0432 20.1121
88.1394 13.5947
88.2356 10.1468
88.3318 8.11883
88.5242 6.05427
88.7165 5.37821
88.9089 5.97127
89.0051 7.28133
89.0532 8.56407
89.1013 10.7186
89.1494 14.6394
89.1975 22.7092
89.2216 30.2485
89.2456 42.7489
89.2697 64.8258
89.2937 105.126
89.3169 166.300
89.3400 207.084
89.3632 166.257
89.3863 105.072
89.4070 69.0904
89.4276 47.6708
89.4483 34.7035
89.4689 26.4924
89.5102 17.2800
89.5515 12.6001
89.5928 9.94361
89.6341 8.31700
89.7167 6.57087
89.8819 5.49200
90.0472 5.76868
90.2124 7.27334
90.2950 8.86716
90.3776 11.6758
90.4602 17.1797
90.5015 22.1248
90.5428 30.1479
90.5841 44.3816
90.6254 72.9956
90.6461 99.2041
90.6667 141.843
90.6770 173.398
90.6874 215.241
90.6977 271.142
90.7080 345.002
90.7185 440.607
90.7290 549.828
90.7500 686.264
90.7605 646.102
90.7710 549.746
90.7920 344.947
90.8073 242.016
90.8227 174.578
90.8380 130.266
90.8533 100.410
90.8840 64.6995
90.9146 45.3636
90.9453 33.8756
90.9759 26.5523
91.0372 18.1704
91.0985 13.8011
91.1598 11.2942
91.2824 8.82173
91.5276 7.70492
91.7728 8.65560
92.0179 11.3273
92.2631 17.1377
92.3857 22.7194
92.5083 32.9021
92.5696 42.0660
92.6309 58.2966
92.6616 72.3920
92.6922 95.4588
92.7229 137.831
92.7535 223.687
92.7768 331.834
92.8000 406.287
92.8233 343.882
92.8465 248.195
92.8685 193.170
92.8904 166.424
92.9344 157.193
92.9783 180.511
93.0223 232.476
93.0662 327.458
93.0882 402.030
93.1101 506.149
93.1321 655.358
93.1541 875.271
93.1760 1206.98
93.1980 1706.75
93.2290 2726.11
93.2600 3404.97
93.2910 2723.87
93.3220 1703.42
93.3438 1206.77
93.3655 875.849
93.3873 655.196
93.4090 504.683
93.4525 322.296
93.4960 222.170
93.5395 162.022
93.5830 123.323
93.6701 78.4177
93.7571 54.4690
93.8441 40.2797
94.0181 25.1810
94.1921 18.0745
94.3662 14.9644
94.4532 14.8042
94.5402 16.4259
94.5837 18.7870
94.6272 23.8047
94.6490 28.4351
94.6707 35.9098
94.6925 48.5820
94.7142 70.5249
94.7371 106.036
94.7600 129.851
94.7829 106.790
94.8058 72.0937
94.8244 53.3788
94.8430 42.0385
94.8801 31.4369
94.9173 28.7212
94.9545 30.6092
94.9916 37.3534
95.0288 52.4682
95.0474 66.0315
95.0659 86.9738
95.0845 120.189
95.1031 173.014
95.1266 271.743
95.1500 337.504
95.1735 271.178
95.1969 171.921
95.2222 104.737
95.2474 68.6899
95.2727 48.5467
95.2979 36.4948
95.3484 23.6286
95.3989 17.3443
95.5000 11.6947
95.6010 9.36838
95.8030 7.80470
96.0051 7.91259
96.2071 9.27568
96.4091 12.8976
96.5102 16.8862
96.6112 25.3881
96.6617 34.2148
96.7122 51.6176
96.7375 67.6061
96.7627 94.0355
96.7880 141.014
96.8132 228.175
96.8366 356.445
96.8600 442.319
96.8834 358.344
96.9068 232.063
96.9251 165.332
96.9435 123.420
96.9801 80.2576
97.0168 61.9542
97.0534 54.2066
97.1267 52.9950
97.2000 63.3979
97.2000 63.4022
97.2001 63.4132
97.2001 63.4219
97.2002 63.4394
97.2004 63.4767
97.2007 63.5493
97.2013 63.6951
97.2027 63.9899
97.2053 64.5919
97.2106 65.8485
97.2212 68.5702
97.2423 74.9431
97.2846 92.3310
97.3269 118.744
97.3692 160.367
97.3904 190.432
97.4115 229.985
97.4327 283.171
97.4538 356.498
97.4750 460.398
97.4961 611.757
97.5173 837.104
97.5384 1171.90
97.5692 1871.93
97.6000 2337.91
97.6308 1870.86
97.6616 1170.40
97.6828 835.328
97.7039 609.882
97.7251 458.391
97.7462 354.324
97.7885 227.378
97.8308 157.192
97.8731 114.840
97.9154 87.4873
98.0000 55.6233
98.0000 89.8921
100.000 88.8714
101.503 88.2350
105.711 86.4539
109.813 84.7171
117.940 81.2769
125.000 78.2881
125.542 78.1195
132.595 75.9273
139.091 73.9083
145.035 72.0607
150.000 70.5176
156.056 69.0290
164.867 66.8631
170.000 65.6013
171.800 65.2464
182.751 63.0878
194.400 60.7916
200.000 59.6877
203.007 59.2473
211.422 58.0147
219.627 56.8128
235.880 54.4321
250.000 52.3637
251.084 52.2474
265.191 50.7346
278.182 49.3414
290.071 48.0665
300.000 47.0017
312.111 45.9999
329.734 44.5422
343.601 43.3951
350.000 42.8658
365.502 41.8395
388.800 40.2971
400.000 39.5556
406.014 39.2541
422.843 38.4104
439.253 37.5877
471.759 35.9581
500.000 34.5423
502.169 34.4630
530.381 33.4315
556.364 32.4816
580.141 31.6122
600.000 30.8862
624.223 30.2205
659.468 29.2519
687.202 28.4898
720.000 27.5885
731.005 27.3584
777.600 26.3845
812.027 25.6649
845.686 24.9613
850.000 24.8711
878.507 24.4113
943.518 23.3627
1000.00 22.4517
1004.34 22.4002
1060.76 21.7303
1112.73 21.1133
1160.28 20.5487
1248.45 19.5020
1250.00 19.4836
1318.94 18.8908
1374.40 18.4139
1462.01 17.6606
1500.00 17.3339
1555.20 16.9627
1624.06 16.4996
1691.37 16.0469
1700.00 15.9889
1757.01 15.6848
1887.04 14.9913
2000.00 14.3887
2008.68 14.3549
2125.00 13.9009
2181.02 13.6824
2225.46 13.5089
2250.00 13.4132
2320.57 13.1378
2352.79 13.0120
2375.00 12.9254
2496.89 12.4497
2500.00 12.4376
2514.16 12.3978
2625.00 12.0868
2637.87 12.0507
2748.81 11.7393
2750.00 11.7360
2823.65 11.5293
2875.00 11.3851
2924.02 11.2476
3000.00 11.0343
3080.51 10.8628
3110.40 10.7991
3248.11 10.5056
3250.00 10.5016
3288.38 10.4198
3382.74 10.2187
3500.00 9.96886
3514.03 9.94528
3626.78 9.75570
3750.00 9.54852
3774.07 9.50804
4000.00 9.12817
4017.35 9.10648
4243.05 8.82439
4250.00 8.81571
4362.03 8.67569
4450.91 8.56460
4500.00 8.50325
4641.13 8.32686
4705.59 8.24629
4750.00 8.19078
4993.78 7.88610
5000.00 7.87832
5028.33 7.85308
5250.00 7.65557
5275.74 7.63263
5497.61 7.43494
5500.00 7.43282
5647.29 7.30158
5750.00 7.21007
5848.04 7.12271
6000.00 6.98731
6161.02 6.87922
6220.80 6.83910
6496.22 6.65421
6500.00 6.65167
6576.76 6.60015
6765.49 6.47346
7000.00 6.31603
7028.06 6.30128
7253.56 6.18266
7500.00 6.05302
7548.15 6.02770
8000.00 5.79001
8034.70 5.77528
8486.10 5.58363
8500.00 5.57773
8901.83 5.40714
8944.27 5.38912
9000.00 5.36546
9282.26 5.26649
9500.00 5.19014
9987.56 5.01919
10000.0 5.01483
10551.5 4.86929
10625.0 4.84990
10905.1 4.77598
10995.2 4.75219
11250.0 4.68496
11696.1 4.56724
11764.0 4.54933
11875.0 4.52003
12441.6 4.37051
12500.0 4.35509
12992.4 4.26370
13125.0 4.23910
13433.0 4.18194
13531.0 4.16376
13750.0 4.12311
14056.1 4.06630
14375.0 4.00712
14838.4 3.92111
15000.0 3.89112
15096.3 3.87746
15988.1 3.75093
16069.4 3.73940
16250.0 3.71377
16972.2 3.61131
17000.0 3.60736
17500.0 3.55227
17803.7 3.51882
17881.9 3.51020
18564.5 3.43499
18750.0 3.41455
19975.1 3.27957
20000.0 3.27683
21103.0 3.19031
21250.0 3.17878
21990.5 3.12070
22133.6 3.10947
22500.0 3.08073
23392.2 3.01075
23750.0 2.98268
23882.0 2.97233
24883.2 2.89380
25000.0 2.88464
25984.9 2.83061
26171.4 2.82037
26250.0 2.81606
26734.0 2.78951
26766.8 2.78771
27062.0 2.77152
27500.0 2.74749
27515.6 2.74663
28112.2 2.71390
28116.7 2.71366
28750.0 2.67891
29043.1 2.66283
30000.0 2.61034
30192.6 2.60248
31098.4 2.56552
32092.5 2.52496
32138.8 2.52307
32500.0 2.50833
32988.4 2.48840
34224.2 2.43798
34616.7 2.42196
35000.0 2.40632
35890.5 2.37813
36876.5 2.34691
37500.0 2.32716
38406.5 2.29846
40000.0 2.24800
42294.9 2.19494
42500.0 2.19019
44102.0 2.15315
45000.0 2.13238
46958.5 2.08709
47500.0 2.07457
49766.4 2.02216
50000.0 2.01676
52500.0 1.97635
54772.3 1.93962
55000.0 1.93594
60000.0 1.85511
62408.9 1.82628
64807.4 1.79759
65000.0 1.79528
70000.0 1.73545
70000.0 1.73545
74833.2 1.69098
75000.0 1.68945
80000.0 1.64344
80000.0 1.64344
80059.7 1.64298
80118.5 1.64252
80176.4 1.64207
80233.4 1.64163
80289.6 1.64119
80344.9 1.64076
80399.5 1.64034
80453.2 1.63992
80506.1 1.63951
80527.6 1.63934
80558.2 1.63910
80609.5 1.63870
80660.1 1.63831
80709.9 1.63792
80758.9 1.63754
80807.2 1.63717
80854.8 1.63680
80901.7 1.63643
80947.9 1.63608
80993.3 1.63572
81038.1 1.63537
81082.2 1.63503
81125.7 1.63469
81168.5 1.63436
81210.6 1.63403
81252.1 1.63371
81293.0 1.63339
81333.2 1.63308
81372.9 1.63277
81411.9 1.63247
81450.4 1.63217
81488.2 1.63188
81525.5 1.63159
81562.3 1.63130
81598.4 1.63102
81634.1 1.63074
81669.2 1.63047
81703.7 1.63020
81737.7 1.62994
81771.2 1.62968
81804.2 1.62942
81836.7 1.62917
81900.7 1.62867
81962.8 1.62819
82022.9 1.62772
82081.3 1.62727
82137.8 1.62683
82192.6 1.62640
82245.7 1.62599
82297.3 1.62559
82347.2 1.62520
82395.6 1.62483
82442.5 1.62446
82488.0 1.62411
82532.0 1.62377
82574.7 1.62343
82616.1 1.62311
82656.3 1.62280
82695.2 1.62250
82732.9 1.62221
82769.4 1.62192
82804.8 1.62165
82839.1 1.62138
82872.4 1.62112
82936.9 1.62062
82997.3 1.62015
83054.1 1.61971
83107.3 1.61930
83157.3 1.61891
83204.1 1.61854
83248.1 1.61820
83289.3 1.61788
83327.9 1.61758
83364.2 1.61730
83398.2 1.61704
83462.0 1.61654
83517.9 1.61611
83566.8 1.61573
83609.6 1.61539
83647.1 1.61510
83679.9 1.61485
83737.4 1.61440
83780.5 1.61407
83845.2 1.61356
83910.0 1.61306
83910.0 1.50158
83919.9 1.50144
91600.2 1.39303
98072.7 1.30167
100000 1.27447
103861 1.23863
104427 1.23336
108756 1.19603
109051 1.19374
117361 1.12905
117640 1.12714
117772 1.12623
124818 1.07785
125448 1.07353
132979 1.02719
134330 1.01964
139917 0.988409
139939 0.988285
146328 0.955455
148384 0.945636
152156 0.927626
152620 0.925609
154009 0.919575
162920 0.880860
171490 0.847340
172270 0.844614
173990 0.838601
185197 0.799435
194334 0.771540
200000 0.754239
201319 0.750655
210379 0.726035
211474 0.723059
220510 0.700523
223464 0.693802
223607 0.693477
234792 0.668028
236832 0.663872
250000 0.637041
271509 0.608940
293926 0.579653
300000 0.571717
323983 0.537327
327204 0.532708
350000 0.500020
385526 0.468437
399015 0.456445
399619 0.455908
400000 0.455569
405950 0.450601
443909 0.418904
445540 0.417543
450000 0.413818
451086 0.413287
476120 0.401039
481072 0.398616
484223 0.397074
500000 0.389355
541549 0.375731
550000 0.372960
555641 0.371540
563422 0.369581
572753 0.367232
588859 0.363178
593892 0.361911
600000 0.360373
621070 0.355878
638900 0.352074
639189 0.352013
641202 0.351583
646235 0.350509
650000 0.349706
659321 0.348183
662340 0.347689
686499 0.343740
700000 0.341533
800000 0.302967
900000 0.264401
1.00000E+06 0.229028
1.50000E+06 0.194591
1.75000E+06 0.158149
2.00000E+06 0.132105
2.25000E+06 0.113260
2.50000E+06 0.0988891
3.00000E+06 0.0794675
4.00000E+06 0.0499479
5.00000E+06 0.0296359
5.93288E+06 0.0166934
6.00000E+06 0.0157622
7.00000E+06 0.00880585
7.10944E+06 0.00836942
7.21710E+06 0.00794014
7.32294E+06 0.00751806
7.42696E+06 0.00710328
7.52913E+06 0.00669583
7.62945E+06 0.00629578
7.72791E+06 0.00590315
7.82451E+06 0.00551796
7.91924E+06 0.00514021
8.00000E+06 0.00481815
8.01210E+06 0.00479661
8.10000E+06 0.00464012
8.19513E+06 0.00447075
8.20000E+06 0.00446208
8.30000E+06 0.00428405
8.37052E+06 0.00415851
8.40000E+06 0.00410601
8.50000E+06 0.00392798
8.53835E+06 0.00387530
8.60630E+06 0.00378195
8.60640E+06 0.00378181
8.67130E+06 0.00369265
8.69874E+06 0.00365495
8.70000E+06 0.00365322
8.80000E+06 0.00351584
8.85185E+06 0.00344461
8.99784E+06 0.00324405
9.00000E+06 0.00324108
9.00618E+06 0.00323493
9.10000E+06 0.00314159
9.13688E+06 0.00310490
9.20000E+06 0.00304210
9.26919E+06 0.00297326
9.30000E+06 0.00294261
9.39497E+06 0.00284813
9.40000E+06 0.00284312
9.50000E+06 0.00274363
9.51443E+06 0.00273229
9.60000E+06 0.00266506
9.62781E+06 0.00264321
9.67395E+06 0.00260696
9.70000E+06 0.00258649
9.80000E+06 0.00250792
9.83991E+06 0.00247656
9.84405E+06 0.00247331
9.90000E+06 0.00242935
9.99809E+06 0.00235228
1.00000E+07 0.00235078
1.00372E+07 0.00232517
1.01487E+07 0.00224852
1.02094E+07 0.00220677
1.02500E+07 0.00217884
1.02919E+07 0.00215000
1.03624E+07 0.00210151
1.04281E+07 0.00205638
1.04982E+07 0.00200811
1.05000E+07 0.00200690
1.06882E+07 0.00190917
1.07402E+07 0.00188217
1.07500E+07 0.00187707
1.09211E+07 0.00178822
1.10000E+07 0.00174724
1.11291E+07 0.00169020
1.12500E+07 0.00163675
1.13143E+07 0.00160834
1.14789E+07 0.00153559
1.15000E+07 0.00152625
1.17500E+07 0.00148546
1.17727E+07 0.00148176
1.19980E+07 0.00144501
1.20000E+07 0.00144468
1.21697E+07 0.00141698
1.22500E+07 0.00140389
1.24320E+07 0.00137419
1.25000E+07 0.00136310
1.27000E+07 0.00133047
1.27500E+07 0.00131989
1.30000E+07 0.00126700
1.32500E+07 0.00121410
1.35000E+07 0.00116121
1.37500E+07 0.00110831
1.40000E+07 0.00105542
1.42500E+07 0.00100615
1.45000E+07 0.000956887
1.47500E+07 0.000907621
1.49560E+07 0.000867025
1.50000E+07 0.000858354
1.52500E+07 0.000803994
1.55000E+07 0.000749634
1.57500E+07 0.000695274
1.60000E+07 0.000640914
1.60729E+07 0.000628957
1.62500E+07 0.000599892
1.65000E+07 0.000558870
1.67500E+07 0.000517848
1.70000E+07 0.000476826
1.72500E+07 0.000446137
1.75000E+07 0.000415447
1.77500E+07 0.000384758
1.80000E+07 0.000354068
1.82500E+07 0.000334812
1.85000E+07 0.000315556
1.87500E+07 0.000296300
1.90000E+07 0.000277044
1.92500E+07 0.000257788
1.95000E+07 0.000238532
1.97500E+07 0.000219276
2.00000E+07 0.000200020