Gd-156(n,tot) ENDF/B-VII.1
Energy(eV) XS(b)
1.00000E-05 95.0654
1.25000E-05 85.5447
1.50000E-05 78.5168
2.00000E-05 68.6518
2.75000E-05 59.2654
3.50000E-05 53.0879
4.25000E-05 48.6283
5.00000E-05 45.2143
6.25000E-05 40.9565
7.50000E-05 37.8135
0.000100000 33.4018
0.000125000 30.3911
0.000150000 28.1687
0.000200000 25.0491
0.000275000 22.0809
0.000350000 20.1274
0.000425000 18.7172
0.000500000 17.6376
0.000625000 16.2912
0.000750000 15.2973
0.00100000 13.9023
0.00125000 12.9502
0.00150000 12.2475
0.00200000 11.2610
0.00275000 10.3224
0.00350000 9.70475
0.00425000 9.25884
0.00500000 8.91748
0.00625000 8.49176
0.00750000 8.17753
0.0100000 7.73645
0.0125000 7.43546
0.0150000 7.21329
0.0200000 6.90144
0.0253000 6.67792
0.0314750 6.49254
0.0376500 6.35489
0.0500000 6.16062
0.0625000 6.02603
0.0750000 5.92667
0.100000 5.78716
0.125000 5.69191
0.150000 5.62154
0.200000 5.52263
0.275000 5.42825
0.350000 5.36585
0.500000 5.28566
0.750000 5.20886
1.00000 5.16167
1.50000 5.10267
2.00000 5.06434
2.75000 5.02333
3.50000 4.99188
5.00000 4.94163
7.50000 4.87179
10.0000 4.80596
15.0000 4.66568
20.0000 4.49614
23.2944 4.36475
24.9416 4.30157
26.5889 4.26485
27.4125 4.27734
28.2361 4.34106
29.0597 4.51675
29.8833 4.96204
30.2951 5.40960
30.7069 6.16982
31.1187 7.54031
31.5305 10.2447
31.7364 12.6373
31.9423 16.4028
32.0453 19.1310
32.1482 22.7351
32.1997 24.9826
32.2254 26.2456
32.2512 27.6144
32.2640 28.3426
32.2769 29.1020
32.2898 29.8943
32.3026 30.7215
32.3155 31.5855
32.3284 32.4884
32.3541 34.4199
32.3798 36.5382
32.4056 38.8666
32.4313 41.4330
32.4571 44.2689
32.5085 50.9157
32.5600 59.2058
32.6115 69.7176
32.6630 83.2934
32.7144 101.226
32.7659 125.537
32.8174 159.584
32.8689 209.181
32.9203 285.203
32.9718 409.627
32.9975 503.554
33.0233 632.385
33.0490 815.043
33.0748 1084.39
33.1005 1501.26
33.1262 2182.90
33.1520 3362.79
33.1777 5461.21
33.2039 8800.59
33.2300 11082.8
33.2562 8933.79
33.2823 5626.34
33.2986 4153.93
33.3150 3122.33
33.3476 1894.48
33.3803 1252.51
33.4129 885.138
33.4456 657.926
33.4782 508.530
33.5435 331.112
33.6088 234.001
33.6741 175.171
33.8047 110.411
33.9353 77.3100
34.0660 58.0644
34.1966 45.8457
34.3272 37.5774
34.5884 27.3693
34.8496 21.4985
35.1108 17.7839
35.3720 15.2681
35.8945 12.1447
36.4169 10.3259
36.9393 9.15732
37.4617 8.35226
38.5066 7.32622
39.5514 6.70473
40.5963 6.28820
41.6412 5.98796
43.7309 5.57692
45.8206 5.29811
50.0000 4.90848
53.3788 4.65870
55.0681 4.54287
55.9128 4.49537
56.3352 4.50802
56.4408 4.53961
56.5463 4.62789
56.5991 4.73444
56.6519 4.96673
56.6783 5.19646
56.7047 5.60060
56.7311 6.37806
56.7443 7.03308
56.7575 7.96920
56.7788 10.0984
56.8000 11.5182
56.8213 10.0975
56.8425 7.96580
56.8575 6.92508
56.8724 6.23182
56.9023 5.45490
56.9322 5.07262
56.9622 4.86199
57.0220 4.65212
57.0818 4.55455
57.2015 4.46661
57.3211 4.42615
57.7997 4.35731
58.7569 4.27735
60.6713 4.12747
64.5000 3.79232
66.4144 3.59693
68.3288 3.37898
70.2431 3.14456
71.2003 3.03962
71.6789 3.03636
71.9182 3.18399
71.9780 3.32406
72.0379 3.64069
72.0678 3.96531
72.0977 4.55996
72.1276 5.77562
72.1426 6.86315
72.1575 8.49627
72.1788 11.8461
72.2000 14.0794
72.2213 11.8444
72.2425 8.49097
72.2577 6.83338
72.2729 5.73632
72.3033 4.51628
72.3336 3.92052
72.3640 3.59415
72.4248 3.27075
72.4855 3.12153
72.7285 2.93029
73.2145 2.84761
74.1864 2.84655
75.1584 3.07099
76.1303 3.85229
76.3733 4.22782
76.6163 4.72613
76.7378 5.03454
76.7985 5.20651
76.8593 5.39166
76.9200 5.59117
76.9808 5.80627
77.0415 6.03842
77.1023 6.28910
77.1630 6.56013
77.2238 6.85339
77.2845 7.17102
77.3452 7.51536
77.4667 8.29557
77.5882 9.21966
77.7097 10.3206
77.8312 11.6406
77.9527 13.2350
78.0742 15.1767
78.3172 20.5304
78.5602 29.0255
78.6817 35.2064
78.8032 43.3851
78.9247 54.4648
79.0462 69.9065
79.1677 92.1966
79.2891 125.821
79.4106 179.552
79.5321 272.314
79.5929 345.814
79.6536 451.081
79.7144 608.629
79.7751 857.947
79.8359 1282.36
79.8966 2077.06
79.9270 2750.06
79.9574 3758.35
79.9877 5312.82
80.0181 7718.17
80.0591 12505.7
80.1000 15841.4
80.1410 12843.0
80.1819 8128.84
80.2206 5190.78
80.2593 3478.06
80.2980 2458.76
80.3367 1820.50
80.4142 1109.37
80.4916 747.888
80.5690 540.500
80.6464 410.775
80.8012 263.527
80.9561 185.998
81.1109 140.000
81.2657 110.353
81.4205 90.0506
81.7302 64.6508
82.0399 49.8246
82.3495 40.3342
82.6592 33.8447
83.2785 25.6980
83.8978 20.8955
84.5171 17.7812
85.1364 15.6211
86.3751 12.8522
87.6137 11.1716
88.8523 10.0507
90.0910 9.25180
92.5682 8.18859
95.0455 7.50883
97.5227 7.03072
100.000 6.67003
102.614 6.36768
105.229 6.11535
106.536 6.00171
107.843 5.89844
108.496 5.86039
108.823 5.85401
109.150 5.87146
109.477 5.95477
109.640 6.06134
109.804 6.27826
109.885 6.47093
109.967 6.77209
110.049 7.27043
110.130 8.16379
110.212 9.96521
110.253 11.6217
110.294 14.3417
110.335 19.2392
110.375 29.1511
110.396 38.2497
110.416 53.0271
110.437 78.3339
110.457 122.745
110.468 156.921
110.479 196.067
110.500 247.504
110.522 202.014
110.543 130.167
110.563 86.7365
110.582 60.9327
110.601 45.1822
110.621 35.2195
110.660 23.9183
110.699 18.0979
110.737 14.7140
110.776 12.5810
110.854 10.1420
110.932 8.84285
111.010 8.06612
111.087 7.56097
111.165 7.21183
111.320 6.76864
111.476 6.50432
111.787 6.20827
112.098 6.04675
112.409 5.94326
113.030 5.81238
114.274 5.66020
115.518 5.55552
120.492 5.24429
125.467 4.97079
130.441 4.68739
135.416 4.35750
137.903 4.15693
140.390 3.91503
142.877 3.61021
144.121 3.42850
145.365 3.23695
145.986 3.15233
146.608 3.10147
147.230 3.14221
147.852 3.43473
148.163 3.80632
148.474 4.50457
148.785 5.85722
148.940 6.99379
148.979 7.35230
149.018 7.74687
149.057 8.18423
149.095 8.66759
149.134 9.20575
149.173 9.80497
149.212 10.4739
149.251 11.2209
149.290 12.0617
149.329 13.0064
149.406 15.2895
149.484 18.2601
149.562 22.1894
149.640 27.5115
149.717 34.9207
149.795 45.6058
149.873 61.6424
149.950 87.0948
150.028 130.567
150.067 164.670
150.106 212.986
150.145 284.252
150.184 394.430
150.223 576.873
150.261 902.440
150.281 1167.06
150.300 1544.85
150.320 2096.39
150.339 2899.52
150.370 4721.41
150.400 6010.29
150.431 4887.56
150.461 3100.74
150.484 2152.63
150.508 1539.67
150.531 1142.02
150.555 876.159
150.601 560.237
150.648 389.717
150.695 287.706
150.742 222.148
150.835 145.866
150.929 104.658
151.022 79.8423
151.116 63.6621
151.209 52.4847
151.396 38.3664
151.584 30.0486
151.771 24.6877
151.958 21.0037
152.332 16.3477
152.706 13.5837
153.080 11.7796
153.454 10.5211
154.203 8.89374
154.951 7.89316
155.699 7.21599
156.447 6.72535
157.944 6.05354
159.440 5.60345
162.434 5.00136
165.427 4.57259
168.420 4.21113
174.406 3.52608
177.399 3.15740
180.392 2.74911
183.385 2.28998
186.379 1.78987
187.875 1.55004
189.372 1.36630
190.868 1.34923
191.243 1.39868
191.617 1.48325
191.804 1.54198
191.991 1.61381
192.178 1.70077
192.365 1.80509
192.552 1.92958
192.739 2.07738
192.926 2.25229
193.113 2.45870
193.300 2.70223
193.487 2.98929
193.861 3.72699
194.236 4.75872
194.610 6.21658
194.984 8.31145
195.358 11.3924
195.732 16.0704
196.106 23.4792
196.480 35.9293
196.855 58.6573
197.042 77.5351
197.229 105.692
197.416 150.022
197.603 225.004
197.790 365.484
197.883 485.749
197.977 670.780
198.071 974.086
198.164 1510.45
198.258 2551.05
198.304 3436.81
198.351 4712.48
198.426 7633.70
198.500 9716.79
198.575 7913.94
198.649 5002.44
198.734 2920.86
198.818 1832.15
198.902 1235.43
198.987 883.661
199.071 661.118
199.156 512.546
199.325 333.056
199.493 232.939
199.662 171.374
200.000 102.365
200.216 77.1295
200.431 59.8021
200.647 48.2461
200.862 42.5637
200.970 42.9234
201.078 46.9685
201.131 51.1618
201.158 54.0358
201.185 57.5417
201.199 59.5815
201.212 61.8331
201.226 64.3175
201.239 67.0372
201.253 70.0597
201.266 73.3698
201.293 81.0881
201.320 90.5633
201.347 102.162
201.374 116.551
201.401 134.403
201.428 156.918
201.455 185.405
201.482 222.027
201.509 269.802
201.536 333.479
201.562 419.424
201.589 539.041
201.616 708.724
201.643 958.514
201.670 1334.81
201.697 1917.93
201.724 2823.32
201.762 4753.42
201.800 6200.27
201.838 5175.22
201.876 3401.81
201.918 2116.91
201.960 1410.18
202.002 1006.50
202.044 759.496
202.086 598.435
202.128 487.705
202.212 349.206
202.296 268.308
202.380 216.563
202.548 155.465
202.716 121.319
202.884 99.7868
203.219 74.3476
203.555 59.8529
203.891 50.4719
204.563 38.9878
205.234 32.1744
205.906 27.6403
207.249 21.9597
208.592 18.5369
209.935 16.2478
212.622 13.3776
215.308 11.6480
217.995 10.4871
223.367 9.01128
228.740 8.08898
234.113 7.42931
236.799 7.15135
239.486 6.88534
240.829 6.74773
241.501 6.67502
242.172 6.59883
242.844 6.52243
243.180 6.49063
243.515 6.47831
243.683 6.49119
243.851 6.53304
244.019 6.63465
244.187 6.87218
244.271 7.09924
244.355 7.46961
244.439 8.10820
244.523 9.29500
244.607 11.7803
244.649 14.1239
244.691 18.0503
244.733 25.2842
244.754 31.3374
244.775 40.4082
244.796 54.6877
244.817 78.5094
244.827 96.4918
244.838 120.745
244.848 153.687
244.859 197.591
244.869 254.300
244.879 320.197
244.900 407.920
244.910 388.938
244.921 335.449
244.942 217.421
244.955 163.334
244.968 125.488
244.994 80.0166
245.020 55.9654
245.046 42.0516
245.072 33.3583
245.098 27.5823
245.150 20.6271
245.202 16.7415
245.254 14.3490
245.358 11.6481
245.462 10.2179
245.566 9.35908
245.670 8.79586
245.774 8.40240
245.982 7.89433
246.190 7.58355
246.398 7.37423
246.606 7.22339
247.022 7.01819
247.438 6.88210
248.271 6.70372
249.103 6.58278
249.935 6.48864
251.600 6.33899
254.929 6.10591
256.593 6.01311
257.009 5.99876
257.425 6.00320
257.633 6.02965
257.737 6.06071
257.841 6.11953
257.946 6.24263
257.998 6.35811
258.050 6.55206
258.102 6.91117
258.128 7.21566
258.154 7.68009
258.180 8.43243
258.206 9.74628
258.232 12.2493
258.245 14.3408
258.258 17.3131
258.279 24.1649
258.300 28.6994
258.321 24.1299
258.343 17.3104
258.363 13.1008
258.383 10.6668
258.403 9.22810
258.423 8.33250
258.463 7.34258
258.503 6.84509
258.543 6.56111
258.584 6.38460
258.664 6.18554
258.744 6.08062
258.825 6.01782
258.985 5.94721
259.146 5.90808
259.307 5.88213
259.628 5.84680
260.271 5.79829
260.914 5.75835
263.485 5.61558
268.627 5.34692
278.912 4.81303
289.196 4.22991
299.481 3.53070
304.623 3.10952
309.765 2.62065
314.908 2.04870
320.050 1.39609
322.621 1.06359
325.192 0.779636
326.478 0.689169
327.121 0.667952
327.763 0.669708
328.085 0.681405
328.406 0.701762
328.728 0.732080
329.049 0.773867
329.370 0.828878
329.692 0.899159
330.013 0.987107
330.335 1.09550
330.656 1.22772
330.977 1.38768
331.620 1.81039
332.263 2.41330
332.906 3.26888
333.549 4.48563
334.191 6.23057
334.834 8.76977
335.477 12.5440
336.120 18.3241
336.762 27.5374
337.405 43.0511
338.048 71.2509
338.369 94.4489
338.691 128.611
339.012 181.310
339.334 267.641
339.655 420.830
339.816 544.596
339.976 723.937
340.137 994.079
340.298 1418.78
340.458 2113.94
340.619 3266.67
340.810 5372.55
341.000 6917.97
341.191 5705.18
341.381 3667.27
341.519 2620.83
341.656 1921.01
341.794 1453.44
341.931 1133.37
342.206 743.198
342.481 526.725
342.756 395.015
343.031 309.111
343.581 207.338
344.132 151.352
344.682 117.056
345.232 94.3865
345.782 78.5309
346.882 58.1866
347.982 45.9464
349.082 37.9031
350.183 32.2700
352.383 24.9648
354.583 20.4546
356.784 17.3751
358.984 15.1000
363.385 11.7682
365.585 10.3664
367.786 8.96058
369.986 7.39185
371.086 6.48401
372.186 5.47436
372.736 4.95239
373.287 4.47376
373.837 4.17557
374.387 4.46030
374.524 4.73690
374.662 5.15832
374.731 5.44008
374.799 5.78012
374.868 6.19036
374.937 6.68293
375.006 7.27563
375.074 7.98803
375.143 8.84536
375.212 9.87759
375.281 11.1277
375.349 12.6432
375.418 14.4946
375.487 16.7627
375.625 23.0639
375.762 33.0370
375.900 49.6223
375.968 62.1414
376.037 79.1399
376.106 102.889
376.175 137.021
376.243 188.141
376.312 268.220
376.381 401.852
376.450 641.608
376.484 835.509
376.518 1112.75
376.553 1515.41
376.587 2096.11
376.644 3487.83
376.700 4521.61
376.757 3750.16
376.813 2434.82
376.862 1644.59
376.912 1156.07
376.961 850.841
377.010 652.522
377.109 421.920
377.207 299.247
377.306 226.315
377.404 179.406
377.601 124.290
377.798 94.0087
377.995 75.3878
378.192 62.9832
378.389 54.2361
378.784 42.8586
379.178 35.8829
379.572 31.2163
379.966 27.8940
380.754 23.4998
381.542 20.7318
382.330 18.8267
383.119 17.4312
384.695 15.5093
386.271 14.2311
389.424 12.5937
392.577 11.5493
395.729 10.7971
402.035 9.73205
408.340 8.95972
414.646 8.32179
420.951 7.72186
422.527 7.56190
424.104 7.38567
424.892 7.28620
425.286 7.23283
425.680 7.17889
426.074 7.13446
426.271 7.12842
426.468 7.15792
426.567 7.20350
426.665 7.29233
426.764 7.46521
426.862 7.81770
426.961 8.61167
427.010 9.39697
427.059 10.7591
427.109 13.3654
427.133 15.6106
427.158 19.0640
427.183 24.7078
427.207 34.4981
427.232 52.8757
427.244 67.9610
427.256 89.1164
427.267 114.124
427.278 143.141
427.300 183.208
427.322 152.760
427.344 101.125
427.367 65.1029
427.391 45.2002
427.414 33.8260
427.438 26.8860
427.461 22.3831
427.484 19.3065
427.531 15.4937
427.578 13.3040
427.625 11.9244
427.718 10.3336
427.812 9.47251
427.906 8.94543
427.999 8.59427
428.093 8.34553
428.280 8.01738
428.467 7.81052
428.841 7.55986
429.216 7.40672
429.590 7.29733
430.339 7.13764
431.836 6.90342
433.333 6.70045
436.328 6.28940
439.323 5.80627
442.317 5.16865
443.815 4.74882
445.312 4.22417
446.061 3.91276
446.810 3.56921
447.558 3.21341
448.307 2.93079
448.681 2.90141
449.056 3.07361
449.430 3.69997
449.524 3.98719
449.617 4.35497
449.711 4.82538
449.804 5.42703
449.898 6.20078
449.991 7.20033
450.085 8.50142
450.179 10.2119
450.272 12.4888
450.366 15.5671
450.459 19.8095
450.553 25.7889
450.647 34.4881
450.740 47.6140
450.834 68.3946
450.927 103.397
451.021 167.799
451.068 221.482
451.114 301.456
451.161 426.152
451.208 631.087
451.255 986.433
451.302 1617.00
451.351 2679.79
451.400 3468.82
451.449 2873.36
451.499 1858.92
451.548 1178.34
451.598 790.183
451.647 562.484
451.697 421.013
451.747 328.053
451.796 263.962
451.895 183.848
451.995 137.455
452.094 108.140
452.292 74.2680
452.491 55.9453
452.689 44.7894
452.888 37.4089
453.086 32.2311
453.483 25.5312
453.880 21.4445
454.277 18.7200
454.674 16.7847
455.468 14.2289
456.261 12.6179
457.055 11.5045
457.849 10.6819
459.437 9.52450
461.024 8.71507
464.199 7.53223
467.375 6.49869
468.962 5.93104
470.550 5.26602
471.344 4.87783
472.137 4.44320
472.931 3.96588
473.725 3.49467
474.122 3.31990
474.519 3.28120
474.916 3.57772
475.114 3.99066
475.213 4.31044
475.313 4.73633
475.412 5.30215
475.511 6.05255
475.610 7.05222
475.660 7.67281
475.709 8.39305
475.809 10.2118
475.908 12.7076
476.007 16.1965
476.106 21.1852
476.206 28.5357
476.305 39.7510
476.404 57.7209
476.503 88.4188
476.553 112.282
476.602 145.685
476.652 194.011
476.702 266.776
476.751 381.732
476.801 573.869
476.850 914.496
476.900 1537.55
476.950 2555.03
477.000 3316.31
477.050 2754.17
477.100 1786.50
477.132 1336.39
477.164 1019.27
477.227 637.716
477.290 435.085
477.354 317.623
477.417 243.787
477.481 194.568
477.608 134.850
477.734 101.162
477.861 80.1784
478.115 56.1684
478.369 43.2449
478.622 35.3663
478.876 30.1347
479.130 26.4409
479.637 21.6111
480.145 18.6131
480.398 17.5129
480.652 16.6407
480.779 16.3499
480.906 16.3744
480.969 16.7678
481.001 17.2227
481.033 18.0404
481.064 19.5775
481.096 22.7118
481.112 25.5330
481.128 29.9173
481.144 37.0441
481.160 48.5719
481.180 71.5204
481.200 89.2125
481.220 77.3938
481.241 56.0014
481.253 45.9263
481.266 38.7801
481.291 30.0465
481.317 25.3050
481.342 22.5094
481.368 20.7114
481.393 19.4886
481.444 17.9488
481.495 17.0247
481.546 16.4074
481.647 15.6132
481.851 14.7196
482.054 14.1564
482.461 13.3695
482.868 12.7846
483.682 11.9075
484.495 11.2555
486.123 10.3221
487.750 9.66614
491.005 8.75816
492.633 8.42059
493.039 8.35237
493.446 8.30886
493.650 8.31747
493.751 8.34389
493.853 8.40472
493.955 8.54514
494.006 8.68272
494.057 8.91808
494.107 9.36208
494.133 9.74195
494.158 10.3259
494.184 11.2855
494.209 12.9771
494.235 16.2576
494.247 19.0448
494.260 23.0596
494.280 32.0579
494.300 38.0147
494.320 32.0046
494.340 23.0470
494.362 16.8441
494.384 13.5831
494.407 11.7824
494.429 10.7135
494.451 10.0358
494.473 9.58177
494.517 9.03214
494.561 8.72416
494.606 8.53422
494.694 8.31804
494.782 8.20032
494.871 8.12591
495.048 8.03298
495.401 7.92374
495.755 7.84454
497.170 7.58283
500.000 7.08846
503.897 6.32333
505.845 5.84482
507.794 5.24317
508.768 4.87332
509.742 4.44179
510.717 3.93951
511.691 3.38333
512.178 3.11947
512.665 2.93025
513.152 2.96176
513.396 3.16609
513.517 3.35228
513.639 3.61842
513.761 3.99146
513.883 4.50811
514.005 5.22055
514.065 5.67251
514.126 6.20311
514.187 6.82919
514.248 7.56852
514.370 9.48471
514.492 12.2157
514.613 16.1870
514.735 22.1345
514.857 31.3683
514.979 46.4194
515.100 72.5946
515.161 93.2718
515.222 122.585
515.283 165.637
515.344 231.667
515.405 338.473
515.466 522.701
515.527 863.701
515.557 1139.29
515.588 1521.45
515.644 2534.37
515.700 3293.97
515.756 2739.22
515.813 1780.38
515.877 1068.44
515.942 691.045
516.007 481.285
516.072 355.957
516.136 275.545
516.201 221.157
516.331 154.200
516.460 115.974
516.590 91.9561
516.848 64.3140
517.107 49.3586
517.366 40.2191
517.625 34.1492
517.884 29.8696
518.402 24.2936
518.920 20.8629
519.438 18.5583
519.956 16.9112
520.992 14.7227
522.028 13.3379
523.064 12.3823
524.099 11.6817
526.171 10.7175
528.243 10.0782
530.315 9.61708
532.386 9.26409
536.530 8.74808
540.673 8.37681
544.817 8.08753
545.852 8.02505
546.888 7.96860
547.406 7.94590
547.924 7.93673
548.183 7.94956
548.442 8.00880
548.572 8.09713
548.636 8.18328
548.701 8.33224
548.766 8.62018
548.798 8.87464
548.831 9.27771
548.863 9.97162
548.895 11.2883
548.911 12.4280
548.928 14.1723
548.944 16.9372
548.960 21.3199
548.980 29.4240
549.000 34.7896
549.020 29.3806
549.040 21.3177
549.054 17.3523
549.069 14.7185
549.083 12.9687
549.097 11.7777
549.125 10.3387
549.154 9.55246
549.182 9.07869
549.210 8.77470
549.267 8.42032
549.324 8.22993
549.380 8.11562
549.494 7.98974
549.607 7.92400
549.721 7.88406
549.948 7.83690
550.401 7.78670
550.855 7.75343
551.762 7.69959
552.670 7.65090
556.299 7.46481
558.114 7.36649
559.021 7.31218
559.929 7.25099
560.836 7.17762
561.290 7.13361
561.744 7.08302
561.970 7.05545
562.197 7.02777
562.424 7.00406
562.651 6.99730
562.764 7.01160
562.878 7.05342
562.991 7.15241
563.105 7.38117
563.218 7.94810
563.275 8.54259
563.331 9.62304
563.388 11.7942
563.417 13.7560
563.445 16.8843
563.473 22.2552
563.502 32.2333
563.516 40.6126
563.530 52.9971
563.544 71.7185
563.558 99.7961
563.569 128.390
563.579 161.651
563.600 208.180
563.621 174.347
563.642 115.656
563.663 76.1256
563.684 53.4684
563.705 40.1512
563.726 31.8922
563.747 26.4237
563.768 22.6619
563.810 17.9305
563.852 15.1807
563.895 13.4339
563.979 11.4048
564.063 10.2998
564.147 9.62209
564.231 9.17106
564.316 8.85246
564.484 8.43641
564.652 8.17956
564.821 8.00606
564.989 7.88114
565.326 7.71271
565.663 7.60333
566.337 7.46592
567.010 7.37883
567.684 7.31528
569.031 7.22176
571.726 7.08865
574.421 6.98241
585.200 6.63026
595.979 6.29989
598.674 6.21025
601.369 6.10834
602.716 6.04647
603.390 6.00994
604.064 5.96728
604.738 5.91577
605.074 5.88635
605.411 5.85686
605.580 5.84486
605.748 5.83930
605.917 5.84974
606.085 5.90167
606.169 5.96320
606.253 6.07439
606.338 6.28131
606.422 6.69096
606.506 7.59261
606.548 8.46902
606.590 9.97104
606.632 12.7847
606.653 15.1752
606.674 18.7707
606.695 24.5067
606.716 34.1109
606.738 51.3795
606.748 64.8854
606.759 83.1822
606.769 106.774
606.779 134.451
606.800 172.804
606.821 144.444
606.842 95.6517
606.855 72.2873
606.869 56.0972
606.896 36.8415
606.924 26.7928
606.951 21.0338
606.978 17.4278
607.005 15.0392
607.060 12.1469
607.114 10.5222
607.169 9.51135
607.278 8.35645
607.387 7.73450
607.496 7.35508
607.605 7.10260
607.714 6.92386
607.932 6.68913
608.150 6.54259
608.586 6.36893
609.022 6.26760
609.458 6.19928
610.330 6.10833
611.202 6.04572
612.075 5.99634
613.819 5.91621
617.307 5.78426
620.796 5.66387
634.750 5.17707
648.704 4.59856
655.681 4.23089
657.425 4.11924
659.169 3.98858
660.041 3.91065
660.478 3.86744
660.914 3.82272
661.350 3.78525
661.568 3.78067
661.786 3.80855
661.895 3.85119
662.004 3.93466
662.113 4.09840
662.222 4.43597
662.331 5.20824
662.385 5.98265
662.440 7.34948
662.494 10.0175
662.522 12.3770
662.549 16.0752
662.576 22.3000
662.603 33.5769
662.617 42.8793
662.631 56.2626
662.637 65.1644
662.644 76.0032
662.651 89.1794
662.658 105.071
662.668 135.636
662.679 171.355
662.700 219.872
662.711 210.365
662.721 182.026
662.742 118.723
662.763 77.0121
662.784 53.0473
662.805 38.8136
662.826 29.9687
662.847 24.1090
662.867 20.0801
662.909 15.0211
662.951 12.0908
662.993 10.2367
663.076 8.09722
663.159 6.93966
663.243 6.23555
663.326 5.76922
663.409 5.44188
663.576 5.01648
663.743 4.75508
663.909 4.57866
664.076 4.45133
664.410 4.27807
664.743 4.16314
665.410 4.01213
666.077 3.90872
666.744 3.82675
668.077 3.69143
673.412 3.23317
678.747 2.74999
684.082 2.19065
689.417 1.53548
692.084 1.17754
694.752 0.823336
697.419 0.541935
698.086 0.503038
698.753 0.488115
699.420 0.507632
699.753 0.535007
700.087 0.577631
700.420 0.639087
700.754 0.723987
701.087 0.838576
701.420 0.991220
701.754 1.19382
702.087 1.46332
702.421 1.82539
702.754 2.32030
703.088 3.01531
703.421 4.02980
703.754 5.59860
704.088 8.24202
704.421 13.3396
704.588 17.9698
704.755 25.7133
704.921 40.3580
705.005 53.2813
705.088 74.0079
705.172 110.558
705.213 140.287
705.255 183.899
705.297 251.569
705.338 362.975
705.380 558.927
705.422 916.282
705.461 1453.07
705.500 1830.48
705.539 1474.73
705.579 911.726
705.607 629.016
705.635 445.327
705.664 325.561
705.692 245.438
705.749 150.582
705.806 100.102
705.863 70.4828
705.920 51.8803
705.977 39.4911
706.033 30.9071
706.147 20.1754
706.261 14.0795
706.374 10.3666
706.488 7.99934
706.545 7.14123
706.602 6.44411
706.715 5.41182
706.829 4.73219
706.943 4.30132
707.056 4.05235
707.170 3.94257
707.397 4.03475
707.625 4.44330
707.852 5.10977
708.307 7.16751
708.762 10.3276
709.216 15.0077
709.671 22.0061
710.126 32.7822
710.581 50.1480
711.035 79.9612
711.490 135.878
711.717 183.303
711.945 254.992
712.172 368.955
712.399 560.875
712.627 905.184
712.854 1544.72
713.077 2572.73
713.300 3359.79
713.523 2805.94
713.746 1820.19
713.992 1108.08
714.239 721.038
714.485 502.804
714.732 370.873
714.978 285.799
715.224 227.909
715.717 156.411
716.210 115.430
716.703 89.6010
717.688 59.7168
718.674 43.3694
719.659 33.1785
720.645 26.1833
721.631 20.9919
723.602 13.3555
724.587 10.1974
725.573 7.24500
726.558 4.67377
727.051 3.92644
727.298 3.92314
727.421 4.08444
727.544 4.39991
727.667 4.92007
727.790 5.71365
727.852 6.24176
727.914 6.87724
727.975 7.63869
728.037 8.54849
728.160 10.9277
728.283 14.3131
728.406 19.1615
728.530 26.1944
728.653 36.5967
728.776 52.4028
728.899 77.3020
729.022 118.444
729.146 190.853
729.207 248.218
729.269 329.296
729.330 446.992
729.392 622.506
729.454 889.853
729.515 1296.09
729.608 2216.70
729.700 2926.30
729.793 2467.87
729.885 1639.12
729.948 1224.96
730.011 935.607
730.073 734.520
730.136 592.312
730.262 411.651
730.387 306.813
730.513 240.636
730.638 196.154
730.889 141.486
731.140 110.034
731.392 90.0218
731.894 66.4751
732.396 53.3004
732.898 44.9703
733.400 39.2480
733.902 35.0797
734.907 29.4023
735.911 25.6966
737.919 21.0913
739.928 18.2850
741.937 16.3563
745.954 13.8075
749.971 12.1369
753.988 10.9092
762.023 9.10165
770.057 7.64309
774.074 6.92291
778.091 6.14065
782.109 5.21100
784.117 4.64328
786.126 3.96167
788.134 3.11677
789.139 2.62740
790.143 2.13611
790.645 1.93974
791.147 1.85780
791.398 1.90558
791.649 2.05986
791.901 2.38533
792.026 2.64411
792.152 2.99272
792.277 3.45952
792.403 4.08225
792.528 4.91579
792.654 6.03569
792.779 7.55608
792.905 9.64274
793.030 12.5563
793.156 16.7126
793.281 22.8120
793.407 32.0686
793.532 46.7826
793.658 71.6277
793.784 117.214
793.846 155.012
793.909 210.837
793.972 297.113
794.035 436.515
794.097 673.416
794.160 1083.13
794.230 1809.92
794.300 2368.47
794.370 1982.52
794.440 1291.87
794.493 918.119
794.546 671.470
794.599 508.434
794.652 397.695
794.758 263.499
794.863 189.353
794.969 144.184
795.075 114.654
795.287 79.4443
795.498 59.8502
795.710 47.7090
795.922 39.5817
796.133 33.8308
796.557 26.3233
796.980 21.7003
797.403 18.5934
797.827 16.3692
798.673 13.3954
799.520 11.4828
801.213 9.09614
802.906 7.56946
804.600 6.41438
807.986 4.53061
809.679 3.65500
811.373 2.78892
813.066 1.96693
814.759 1.37150
815.182 1.31766
815.606 1.33685
815.817 1.38328
816.029 1.46090
816.241 1.57622
816.452 1.73702
816.664 1.95319
816.876 2.23666
817.087 2.60290
817.299 3.07076
817.511 3.66512
817.722 4.41683
818.146 6.56959
818.569 10.0418
818.992 15.7715
819.416 25.6095
819.839 43.5482
820.051 58.1608
820.262 79.3202
820.474 111.115
820.685 161.037
820.897 244.043
821.109 391.863
821.320 677.116
821.426 916.361
821.532 1257.55
821.716 2123.94
821.900 2793.58
822.084 2348.70
822.268 1543.63
822.423 1066.53
822.578 763.997
822.733 570.985
822.888 443.351
823.197 292.461
823.507 210.676
823.817 161.396
824.126 129.289
824.746 91.0434
825.365 69.6875
825.985 56.3536
826.604 47.3534
827.223 40.9185
828.462 32.3855
829.701 26.9917
830.940 23.2450
832.179 20.4417
834.656 16.2937
835.895 14.5466
837.134 12.8059
838.373 10.8871
838.992 9.78826
839.611 8.57128
839.921 7.93925
840.231 7.34762
840.541 6.93592
840.850 7.10629
841.005 7.73856
841.160 9.16686
841.237 10.3941
841.276 11.1967
841.315 12.1608
841.354 13.3208
841.392 14.7200
841.431 16.4135
841.470 18.4719
841.508 20.9939
841.547 24.0867
841.586 27.9158
841.625 32.6960
841.663 38.7216
841.702 46.4018
841.741 56.3180
841.779 69.3128
841.818 86.6887
841.857 110.266
841.896 143.071
841.934 189.917
841.973 258.771
842.012 363.026
842.050 524.825
842.089 776.534
842.145 1328.42
842.200 1763.69
842.256 1497.72
842.311 999.085
842.357 702.486
842.404 511.955
842.450 388.991
842.496 306.828
842.589 208.599
842.681 154.670
842.774 121.760
842.866 100.128
843.052 74.0328
843.237 59.2434
843.422 49.9047
843.607 43.5383
843.792 38.9496
844.162 32.8128
844.533 28.9154
844.903 26.2211
845.273 24.2437
846.014 21.5154
846.754 19.6955
848.235 17.3384
849.716 15.7770
851.197 14.5485
851.938 13.9754
852.678 13.3825
853.048 13.0628
853.419 12.7247
853.604 12.5687
853.696 12.5161
853.789 12.5174
853.881 12.6687
853.928 12.8862
853.974 13.3251
854.020 14.2589
854.043 15.1150
854.067 16.4726
854.090 18.7603
854.113 22.8389
854.136 30.6981
854.159 46.6215
854.180 71.1680
854.200 90.6845
854.221 78.8275
854.241 56.3279
854.261 41.4209
854.280 32.4711
854.300 27.0090
854.320 23.5202
854.359 19.4800
854.398 17.3311
854.437 16.0328
854.476 15.1799
854.554 14.1316
854.633 13.5057
854.711 13.0793
854.867 12.4994
855.180 11.7272
855.493 11.0889
855.650 10.7863
855.807 10.5121
855.963 10.3250
856.120 10.4017
856.276 11.3226
856.354 12.6589
856.433 15.4739
856.511 21.8332
856.550 27.9721
856.570 32.4349
856.589 38.2632
856.599 41.8840
856.609 46.0902
856.618 51.0023
856.628 56.7715
856.638 63.5888
856.648 71.6975
856.667 92.9980
856.687 124.653
856.706 172.704
856.726 248.412
856.746 366.983
856.759 483.978
856.773 622.554
856.800 825.748
856.814 801.509
856.827 703.863
856.855 471.859
856.876 341.356
856.897 254.790
856.918 197.413
856.939 158.453
856.981 110.790
857.023 84.1221
857.065 67.6673
857.107 56.8037
857.192 43.6446
857.276 36.1625
857.360 31.4409
857.444 28.2256
857.528 25.9123
857.697 22.8283
857.865 20.8812
858.034 19.5428
858.202 18.5673
858.539 17.2343
858.876 16.3585
859.550 15.2535
860.224 14.5597
860.897 14.0642
862.245 13.3669
863.593 12.8674
864.940 12.4707
867.635 11.8427
873.026 10.8917
878.416 10.0887
883.807 9.26222
886.502 8.77630
889.197 8.17691
890.545 7.80455
891.892 7.35536
893.240 6.79278
894.588 6.05780
895.261 5.59852
895.935 5.06074
896.609 4.43859
897.283 3.76790
897.620 3.46878
897.957 3.28896
898.294 3.43226
898.462 3.76835
898.546 4.05109
898.630 4.44169
898.715 4.97478
898.799 5.69567
898.883 6.66973
898.967 7.98903
899.052 9.78944
899.136 12.2650
899.220 15.7202
899.304 20.6320
899.389 27.7931
899.473 38.5308
899.557 55.2903
899.641 82.8079
899.725 131.164
899.768 169.444
899.810 223.647
899.852 302.607
899.894 421.042
899.936 602.992
899.978 883.109
900.039 1498.38
900.100 1979.12
900.161 1671.54
900.222 1104.90
900.294 668.804
900.366 437.857
900.438 309.546
900.510 232.496
900.582 182.901
900.654 149.118
900.798 107.213
900.942 82.9856
901.086 67.5953
901.374 49.5977
901.662 39.6630
901.950 33.4843
902.238 29.3150
902.526 26.3322
903.102 22.3768
903.678 19.8900
904.255 18.1882
904.831 16.9526
905.983 15.2775
907.135 14.1914
908.287 13.4259
909.439 12.8535
911.743 12.0450
914.047 11.4905
918.656 10.7512
923.264 10.2533
927.873 9.87390
937.090 9.28601
946.306 8.79097
955.523 8.28787
960.132 7.99397
964.740 7.62799
967.044 7.39526
969.349 7.10574
970.501 6.93069
971.653 6.73172
972.229 6.62729
972.805 6.53879
973.093 6.52677
973.237 6.54752
973.381 6.61210
973.525 6.78192
973.597 6.95865
973.669 7.27431
973.741 7.89743
973.777 8.45508
973.813 9.34935
973.849 10.8996
973.885 13.8894
973.903 16.5021
973.921 20.5469
973.939 27.0533
973.957 37.6311
973.979 56.5200
974.000 69.1132
974.022 56.5127
974.043 37.6122
974.057 29.1654
974.070 23.2963
974.097 16.3771
974.125 12.7979
974.152 10.7705
974.179 9.51748
974.206 8.69846
974.260 7.72417
974.315 7.18754
974.369 6.85900
974.478 6.48500
974.586 6.27803
974.695 6.14295
974.912 5.96272
975.347 5.71525
975.781 5.49650
976.650 5.02215
977.520 4.44081
977.954 4.10189
978.389 3.74083
978.823 3.39991
979.258 3.22602
979.475 3.33431
979.692 3.76024
979.801 4.18973
979.910 4.85789
980.018 5.88892
980.073 6.59967
980.127 7.48689
980.181 8.60176
980.236 10.0059
980.290 11.7906
980.344 14.0800
980.399 17.0557
980.453 20.9606
980.507 26.1752
980.562 33.2724
980.616 43.1761
980.670 57.3311
980.725 78.2874
980.779 110.620
980.833 163.096
980.887 253.590
980.942 420.258
980.969 554.643
980.996 739.506
981.048 1251.45
981.100 1652.73
981.152 1396.13
981.204 921.331
981.241 675.804
981.278 508.125
981.314 393.761
981.351 314.068
981.424 214.845
981.498 158.353
981.571 123.213
981.645 99.8881
981.791 71.6065
981.938 55.5810
982.085 45.5206
982.232 38.7151
982.379 33.8614
982.673 27.4700
982.966 23.5039
983.260 20.8296
983.554 18.9168
984.141 16.3769
984.728 14.7766
985.316 13.6793
985.903 12.8808
987.078 11.7947
988.253 11.0874
989.427 10.5861
990.602 10.2090
992.952 9.66939
995.301 9.28890
997.651 8.99116
1000.00 8.73141
1001.12 8.60736
1001.67 8.54071
1002.23 8.46723
1002.79 8.38149
1003.07 8.33167
1003.34 8.27673
1003.62 8.22133
1003.76 8.20232
1003.90 8.20816
1004.04 8.29622
1004.11 8.42707
1004.18 8.70226
1004.25 9.34341
1004.29 9.97719
1004.32 11.0246
1004.35 13.0051
1004.39 17.0818
1004.41 20.9483
1004.42 26.7967
1004.44 36.4144
1004.46 52.4545
1004.47 67.5188
1004.48 83.8470
1004.50 108.821
1004.52 93.0366
1004.54 63.8783
1004.56 50.4861
1004.57 41.5134
1004.59 29.7943
1004.62 23.3374
1004.64 19.6032
1004.67 17.0884
1004.69 15.3832
1004.74 13.3085
1004.79 12.0843
1004.84 11.3214
1004.94 10.4233
1005.04 9.91934
1005.13 9.60671
1005.33 9.23751
1005.53 9.02802
1005.73 8.89183
1006.12 8.72119
1006.51 8.61338
1006.91 8.53532
1007.70 8.42093
1009.27 8.25730
1010.85 8.12221
1012.43 7.99172
1014.00 7.84820
1014.79 7.76120
1015.19 7.70990
1015.58 7.65044
1015.98 7.58060
1016.17 7.54343
1016.37 7.51148
1016.57 7.51024
1016.67 7.54945
1016.76 7.66452
1016.86 7.98762
1016.91 8.33804
1016.96 8.98359
1017.01 10.3198
1017.04 11.5294
1017.06 13.3628
1017.09 16.5624
1017.11 22.0748
1017.13 33.2995
1017.16 55.5465
1017.17 71.7457
1017.18 89.2433
1017.20 115.824
1017.22 98.7733
1017.24 67.4136
1017.26 49.4251
1017.28 37.8327
1017.29 30.3330
1017.31 25.5627
1017.34 19.4521
1017.38 16.1919
1017.41 14.1463
1017.44 12.8447
1017.51 11.2565
1017.58 10.3647
1017.64 9.80610
1017.78 9.16124
1017.91 8.80124
1018.04 8.57614
1018.31 8.30692
1018.58 8.14940
1018.85 8.04399
1019.38 7.90450
1019.92 7.80895
1020.45 7.73381
1021.52 7.61059
1023.66 7.39511
1025.79 7.16700
1027.93 6.88030
1029.00 6.69211
1030.07 6.44901
1030.60 6.29507
1031.14 6.10987
1031.67 5.88153
1032.20 5.59530
1032.47 5.42647
1032.74 5.24497
1033.01 5.06731
1033.27 4.95559
1033.41 4.98204
1033.54 5.14469
1033.67 5.60378
1033.81 6.73652
1033.94 9.66983
1033.98 11.0335
1034.01 12.7852
1034.04 15.1317
1034.07 18.3361
1034.09 20.4491
1034.11 22.9766
1034.13 26.0237
1034.14 29.4901
1034.16 33.9844
1034.18 39.5595
1034.19 46.5585
1034.21 54.8763
1034.23 66.2017
1034.24 81.0605
1034.26 100.915
1034.28 126.126
1034.29 163.004
1034.31 211.569
1034.33 284.665
1034.34 381.434
1034.37 643.253
1034.40 838.165
1034.42 809.881
1034.43 705.934
1034.46 471.069
1034.48 351.032
1034.50 270.732
1034.54 173.545
1034.57 121.568
1034.61 91.1344
1034.65 71.4753
1034.69 58.6488
1034.77 42.9096
1034.84 33.8151
1034.92 28.1606
1035.07 21.5501
1035.22 17.9287
1035.38 15.6850
1035.53 14.1744
1035.68 13.1010
1035.99 11.6672
1036.29 10.7662
1036.60 10.1447
1036.90 9.69170
1037.52 9.06811
1038.13 8.65332
1039.35 8.11499
1040.57 7.75457
1041.79 7.47150
1044.24 6.97989
1046.68 6.44599
1047.90 6.11000
1049.13 5.68070
1049.74 5.41129
1050.35 5.09076
1050.96 4.70439
1051.57 4.24411
1051.88 3.99477
1052.18 3.75966
1052.49 3.60402
1052.79 3.72498
1052.95 4.05351
1053.10 4.78180
1053.18 5.41169
1053.25 6.31185
1053.33 7.62265
1053.40 9.55986
1053.44 10.9066
1053.48 12.5346
1053.52 14.5657
1053.56 17.1241
1053.60 20.4800
1053.63 24.7140
1053.67 30.2630
1053.71 37.6661
1053.75 48.0639
1053.79 62.2791
1053.83 82.7440
1053.86 113.264
1053.90 160.714
1053.94 238.042
1053.98 370.037
1054.02 599.801
1054.06 1015.54
1054.10 1331.09
1054.14 1123.04
1054.19 746.678
1054.23 493.003
1054.27 341.872
1054.31 250.358
1054.35 193.257
1054.39 153.878
1054.43 126.325
1054.51 91.6078
1054.59 70.8036
1054.67 57.5678
1054.84 41.8344
1055.00 33.1156
1055.16 27.6950
1055.33 24.0479
1055.49 21.4488
1055.82 18.0239
1056.14 15.8889
1056.47 14.4403
1056.79 13.3965
1057.45 11.9960
1058.10 11.0995
1058.75 10.4747
1059.40 10.0122
1060.71 9.36709
1062.01 8.93066
1064.62 8.35538
1067.23 7.96795
1069.83 7.66692
1075.05 7.16932
1080.26 6.68443
1082.87 6.40622
1085.48 6.06973
1088.09 5.61878
1089.39 5.31412
1090.70 4.91662
1091.35 4.66604
1092.00 4.36746
1092.65 4.00893
1093.30 3.58613
1093.63 3.36137
1093.96 3.15498
1094.28 3.03461
1094.61 3.19681
1094.77 3.54647
1094.85 3.85467
1094.93 4.29259
1095.02 4.92777
1095.10 5.82931
1095.18 7.15384
1095.26 9.08307
1095.30 10.4005
1095.34 12.0324
1095.38 14.0712
1095.42 16.5739
1095.46 19.8393
1095.51 24.0642
1095.55 29.6176
1095.59 36.8442
1095.63 46.9420
1095.67 61.1172
1095.71 81.6410
1095.75 111.554
1095.79 159.397
1095.83 235.773
1095.87 370.376
1095.91 600.702
1095.96 1015.12
1096.00 1330.00
1096.05 1121.22
1096.09 743.672
1096.12 553.134
1096.15 420.054
1096.21 264.529
1096.27 182.639
1096.33 135.180
1096.39 105.364
1096.44 85.4016
1096.56 61.0577
1096.68 47.1236
1096.80 38.4445
1097.04 28.3828
1097.27 22.8538
1097.51 19.4456
1097.75 17.1426
1097.98 15.5046
1098.45 13.3291
1098.93 11.9595
1099.40 11.0196
1099.87 10.3338
1100.82 9.39516
1101.77 8.77555
1102.71 8.32842
1103.66 7.98437
1105.55 7.47292
1107.44 7.09063
1111.23 6.49651
1115.01 5.98371
1118.79 5.46908
1122.58 4.89922
1124.47 4.58339
1124.94 4.50609
1125.42 4.44307
1125.65 4.43276
1125.89 4.48110
1126.01 4.57939
1126.12 4.86097
1126.18 5.21071
1126.24 6.00379
1126.27 6.84233
1126.30 8.34493
1126.32 9.64723
1126.33 11.5976
1126.35 14.5983
1126.36 18.8415
1126.38 27.5322
1126.40 33.2902
1126.42 27.5272
1126.44 18.8292
1126.46 14.0991
1126.47 11.2620
1126.49 9.41077
1126.50 8.16723
1126.53 6.68341
1126.56 5.87892
1126.62 5.08073
1126.68 4.72311
1126.80 4.40418
1126.92 4.26276
1127.16 4.12045
1127.41 4.03413
1127.89 3.90133
1128.37 3.78079
1130.30 3.28156
1132.23 2.70557
1134.16 2.03721
1135.12 1.67827
1136.09 1.33277
1137.05 1.07497
1137.53 1.03617
1137.77 1.05960
1138.01 1.12511
1138.26 1.24834
1138.50 1.44930
1138.74 1.75816
1138.98 2.21815
1139.22 2.89333
1139.46 3.88126
1139.70 5.33511
1139.94 7.50447
1140.18 10.8146
1140.43 16.0306
1140.67 24.6273
1140.91 39.7075
1141.03 51.7105
1141.15 68.6016
1141.27 93.6136
1141.39 131.582
1141.51 193.278
1141.63 298.064
1141.75 491.602
1141.87 857.670
1141.99 1443.45
1142.10 1900.92
1142.22 1601.44
1142.33 1049.25
1142.42 740.270
1142.51 539.705
1142.59 407.771
1142.68 318.488
1142.86 210.292
1143.04 151.014
1143.21 114.775
1143.39 91.1969
1143.74 63.0070
1144.09 47.2039
1144.45 37.3438
1145.15 25.9324
1145.86 19.5641
1146.56 15.4688
1147.97 10.2406
1149.38 6.60358
1150.09 5.04206
1150.79 3.70090
1151.15 3.23426
1151.50 3.10294
1151.68 3.27201
1151.85 3.70359
1151.94 4.05939
1152.03 4.54023
1152.12 5.17878
1152.20 6.01787
1152.29 7.12854
1152.38 8.56308
1152.47 10.4369
1152.56 12.8950
1152.65 16.1418
1152.73 20.4722
1152.82 26.3215
1152.91 34.3493
1153.00 45.7386
1153.09 61.9260
1153.17 85.8567
1153.26 122.553
1153.35 181.372
1153.44 280.656
1153.53 457.391
1153.61 780.375
1153.71 1342.85
1153.80 1790.19
1153.89 1524.41
1153.99 1018.38
1154.04 784.297
1154.10 616.700
1154.21 406.500
1154.32 289.625
1154.44 219.252
1154.55 173.453
1154.66 142.448
1154.88 103.720
1155.11 81.0384
1155.33 66.5550
1155.78 49.3579
1156.23 39.6992
1156.68 33.5849
1157.13 29.3878
1157.58 26.3335
1158.48 22.1827
1159.37 19.4800
1161.17 16.1210
1162.97 14.0484
1164.76 12.5796
1168.35 10.4485
1171.94 8.65177
1173.74 7.69153
1175.54 6.57430
1176.43 5.91669
1177.33 5.16661
1178.23 4.30758
1179.13 3.35987
1179.58 2.90050
1180.03 2.54187
1180.47 2.48584
1180.70 2.71587
1180.81 2.94383
1180.92 3.27885
1181.04 3.76013
1181.15 4.42641
1181.26 5.34664
1181.37 6.61342
1181.49 8.37883
1181.60 10.8113
1181.71 14.2254
1181.82 19.0931
1181.93 26.2573
1182.05 36.9033
1182.16 53.4129
1182.27 80.2103
1182.38 126.341
1182.49 211.937
1182.55 282.685
1182.61 385.541
1182.66 537.564
1182.72 761.668
1182.81 1305.17
1182.90 1736.86
1182.99 1479.93
1183.08 988.629
1183.15 710.259
1183.22 527.798
1183.29 406.246
1183.36 323.027
1183.50 220.581
1183.64 163.534
1183.79 128.072
1183.93 104.727
1184.21 76.2874
1184.49 60.1095
1184.77 49.8781
1185.05 42.9099
1185.33 37.9134
1185.89 31.2373
1186.45 27.0329
1187.02 24.1575
1187.58 22.0753
1188.70 19.2538
1189.82 17.4317
1190.95 16.1491
1192.07 15.1921
1194.32 13.8352
1196.56 12.8785
1197.69 12.4703
1198.81 12.0612
1199.37 11.8313
1199.65 11.7005
1199.93 11.5537
1200.22 11.3871
1200.36 11.3021
1200.50 11.2359
1200.64 11.2550
1200.71 11.3659
1200.78 11.6625
1200.85 12.4295
1200.88 13.2262
1200.92 14.6275
1200.95 17.2701
1200.99 22.7749
1201.01 28.0141
1201.02 35.9334
1201.04 49.9098
1201.06 72.1545
1201.07 93.0288
1201.08 118.184
1201.10 153.997
1201.12 132.753
1201.14 93.0407
1201.17 63.4976
1201.19 47.2967
1201.21 37.2976
1201.23 31.3134
1201.26 27.1578
1201.28 24.3886
1201.32 20.8364
1201.37 18.6733
1201.41 17.3002
1201.50 15.6347
1201.59 14.6829
1201.68 14.0851
1201.86 13.3706
1202.04 12.9548
1202.21 12.6816
1202.57 12.3324
1202.93 12.1070
1203.28 11.9413
1204.00 11.6972
1205.42 11.3544
1206.85 11.0879
1208.28 10.8510
1209.71 10.6146
1210.42 10.4815
1210.78 10.4053
1211.13 10.3179
1211.49 10.2137
1211.67 10.1550
1211.85 10.0962
1212.02 10.0595
1212.11 10.0760
1212.20 10.1645
1212.29 10.4525
1212.34 10.7891
1212.38 11.4087
1212.43 12.6998
1212.45 13.8307
1212.47 15.5971
1212.49 18.6681
1212.51 23.8572
1212.54 33.5482
1212.56 52.4050
1212.57 67.1108
1212.58 83.1143
1212.60 108.163
1212.62 93.9815
1212.64 65.9911
1212.66 49.6393
1212.68 38.9914
1212.69 32.0469
1212.71 27.3708
1212.74 21.7390
1212.78 18.6235
1212.81 16.7168
1212.85 15.4587
1212.91 13.9543
1212.98 13.0837
1213.05 12.5329
1213.18 11.8885
1213.32 11.5222
1213.46 11.2893
1213.73 11.0052
1214.00 10.8339
1214.27 10.7163
1214.81 10.5562
1215.35 10.4441
1215.89 10.3556
1216.97 10.2138
1219.14 9.99124
1221.30 9.80319
1223.47 9.63101
1225.63 9.46738
1226.71 9.38836
1227.80 9.31568
1228.34 9.28849
1228.88 9.28814
1229.15 9.32430
1229.42 9.45834
1229.55 9.65179
1229.62 9.83940
1229.69 10.1585
1229.76 10.7838
1229.79 11.3397
1229.82 12.1964
1229.86 13.7136
1229.89 16.6399
1229.91 19.1999
1229.93 23.1677
1229.94 29.5571
1229.96 39.1882
1229.98 58.0134
1230.00 69.8965
1230.02 57.0572
1230.04 39.1909
1230.06 27.3408
1230.08 20.8365
1230.10 17.1400
1230.12 14.9869
1230.15 13.5201
1230.17 12.5703
1230.21 11.3704
1230.25 10.6937
1230.29 10.2758
1230.37 9.80777
1230.45 9.56407
1230.53 9.41979
1230.70 9.26095
1231.03 9.12130
1231.36 9.05080
1232.01 8.95808
1232.67 8.88043
1233.98 8.72109
1235.29 8.52923
1236.61 8.26792
1237.26 8.08863
1237.92 7.85246
1238.25 7.70177
1238.58 7.52143
1238.91 7.30287
1239.23 7.04111
1239.40 6.89777
1239.56 6.76157
1239.73 6.66765
1239.89 6.72176
1239.97 6.89186
1240.05 7.27375
1240.14 8.07641
1240.22 9.78360
1240.30 13.6785
1240.34 17.4813
1240.36 20.3341
1240.38 23.9198
1240.40 28.9859
1240.42 35.6134
1240.43 40.3066
1240.44 45.4265
1240.45 51.5641
1240.46 58.9780
1240.48 69.0136
1240.49 80.3351
1240.51 111.908
1240.52 136.496
1240.53 165.110
1240.55 246.887
1240.56 328.157
1240.57 418.110
1240.60 555.602
1240.61 538.209
1240.63 474.376
1240.65 317.568
1240.67 243.364
1240.69 192.719
1240.72 128.994
1240.75 92.6130
1240.78 71.4938
1240.82 57.4756
1240.85 48.2189
1240.91 36.5135
1240.98 29.7353
1241.04 25.4145
1241.17 20.3697
1241.30 17.5430
1241.43 15.7873
1241.56 14.5864
1241.69 13.7297
1241.95 12.5775
1242.21 11.8498
1242.47 11.3475
1242.73 10.9794
1243.25 10.4729
1243.77 10.1382
1244.28 9.89602
1244.80 9.71007
1245.84 9.43367
1246.88 9.22695
1248.95 8.89943
1251.02 8.58808
1252.06 8.40742
1253.10 8.18403
1253.62 8.04469
1254.14 7.87669
1254.65 7.66596
1255.17 7.39231
1255.43 7.22190
1255.69 7.02507
1255.95 6.80169
1256.21 6.57149
1256.34 6.47849
1256.47 6.44190
1256.60 6.54640
1256.73 7.00906
1256.86 8.49864
1256.92 10.2286
1256.99 13.4631
1257.02 16.2535
1257.05 20.2468
1257.07 23.1396
1257.08 26.5515
1257.10 30.8487
1257.12 36.3313
1257.13 43.9382
1257.15 53.4416
1257.17 66.1862
1257.18 83.6174
1257.20 107.953
1257.21 142.592
1257.23 192.551
1257.25 264.283
1257.26 348.787
1257.27 449.186
1257.30 589.923
1257.31 572.904
1257.33 502.185
1257.36 339.692
1257.38 246.944
1257.40 187.219
1257.42 146.605
1257.44 118.353
1257.48 83.1988
1257.52 63.1648
1257.56 50.4387
1257.60 42.1981
1257.68 32.1465
1257.76 26.3530
1257.84 22.7409
1257.92 20.2553
1258.00 18.4948
1258.16 16.1454
1258.32 14.6752
1258.48 13.6764
1258.64 12.9567
1258.97 11.9929
1259.29 11.3786
1259.61 10.9529
1259.93 10.6401
1260.58 10.2089
1261.22 9.92313
1261.86 9.71727
1262.51 9.56026
1263.79 9.33126
1265.08 9.16758
1267.66 8.93693
1270.23 8.77064
1272.81 8.63785
1275.38 8.53173
1276.03 8.51497
1276.67 8.51732
1276.99 8.54342
1277.32 8.63706
1277.48 8.77084
1277.56 8.90200
1277.64 9.12813
1277.72 9.57866
1277.76 9.98107
1277.80 10.6350
1277.84 11.7957
1277.86 12.7410
1277.88 14.1280
1277.90 16.2605
1277.92 19.7216
1277.94 25.6574
1277.96 36.0960
1277.98 53.0725
1278.00 63.6513
1278.02 52.2180
1278.04 36.1014
1278.06 25.2771
1278.08 19.2897
1278.10 15.8725
1278.12 13.8775
1278.15 12.5165
1278.17 11.5981
1278.21 10.5006
1278.25 9.86869
1278.29 9.48953
1278.37 9.06102
1278.46 8.84016
1278.54 8.71105
1278.70 8.57288
1279.04 8.45944
1279.37 8.40984
1280.03 8.35767
1280.69 8.32345
1283.34 8.21875
1288.64 8.03285
1293.94 7.84720
1299.24 7.64592
1304.54 7.40433
1307.18 7.25245
1309.83 7.06021
1312.48 6.79125
1313.81 6.60289
1315.13 6.34858
1315.80 6.18196
1316.46 5.97597
1317.12 5.71348
1317.78 5.36875
1318.11 5.15430
1318.44 4.90822
1318.78 4.63434
1319.11 4.36821
1319.27 4.27784
1319.44 4.27932
1319.60 4.50052
1319.77 5.26307
1319.85 6.09833
1319.93 7.54446
1319.98 8.65840
1320.02 10.1259
1320.06 12.1289
1320.10 14.9127
1320.14 18.9867
1320.16 21.6912
1320.18 24.8309
1320.20 28.8884
1320.22 33.9608
1320.27 48.1741
1320.29 58.7695
1320.31 72.8085
1320.33 91.7744
1320.35 116.490
1320.37 152.795
1320.39 202.099
1320.41 277.056
1320.43 379.946
1320.47 645.143
1320.50 857.056
1320.54 729.155
1320.57 484.582
1320.59 369.307
1320.61 289.772
1320.66 188.745
1320.70 133.562
1320.74 101.390
1320.78 80.2418
1320.83 66.2003
1320.91 48.5595
1321.00 38.3705
1321.08 31.8900
1321.25 24.3024
1321.42 20.1061
1321.59 17.4895
1321.76 15.7201
1321.93 14.4517
1322.27 12.7656
1322.61 11.7018
1322.95 10.9716
1323.29 10.4397
1323.97 9.71435
1324.65 9.24108
1325.33 8.90398
1326.01 8.64850
1327.37 8.27748
1328.73 8.00894
1331.45 7.60143
1334.17 7.23120
1335.53 7.02093
1336.89 6.76299
1337.58 6.60245
1338.26 6.40879
1338.94 6.16582
1339.62 5.84788
1339.96 5.64902
1340.30 5.41604
1340.64 5.14640
1340.98 4.85554
1341.15 4.72558
1341.32 4.64682
1341.49 4.70657
1341.66 5.13666
1341.83 6.64682
1341.91 8.46009
1341.95 9.94198
1342.00 11.9937
1342.04 15.0423
1342.06 17.0376
1342.08 19.4902
1342.10 22.6969
1342.12 26.5590
1342.14 31.4681
1342.17 37.7966
1342.19 46.5427
1342.21 57.7604
1342.23 73.0528
1342.25 94.3873
1342.27 126.663
1342.29 172.269
1342.31 240.518
1342.34 342.540
1342.37 582.828
1342.40 766.597
1342.42 741.850
1342.43 651.164
1342.47 431.654
1342.49 315.492
1342.51 236.862
1342.54 183.787
1342.56 147.090
1342.61 101.730
1342.66 76.0561
1342.71 60.1437
1342.75 49.5730
1342.85 36.7485
1342.95 29.4684
1343.04 24.8799
1343.14 21.7672
1343.23 19.5378
1343.43 16.5890
1343.62 14.7474
1343.81 13.4983
1344.00 12.5997
1344.39 11.3984
1344.77 10.6346
1345.15 10.1063
1345.54 9.71873
1346.31 9.18568
1347.07 8.83311
1347.84 8.57953
1348.61 8.38619
1350.15 8.10400
1351.68 7.90141
1354.75 7.61099
1357.82 7.39312
1360.89 7.20734
1367.04 6.86451
1373.18 6.49251
1376.25 6.26710
1379.32 5.98672
1382.39 5.60158
1383.93 5.33622
1385.46 4.98376
1386.23 4.75693
1387.00 4.48075
1387.77 4.13736
1388.53 3.70528
1388.92 3.45103
1389.30 3.17781
1389.69 2.91393
1390.07 2.75969
1390.26 2.81503
1390.45 3.08830
1390.55 3.37393
1390.65 3.82470
1390.74 4.52653
1390.84 5.62092
1390.93 7.35123
1390.98 8.58053
1391.03 10.1590
1391.08 12.2075
1391.13 14.9008
1391.17 18.4969
1391.22 23.3884
1391.27 30.1919
1391.32 39.9133
1391.37 54.2664
1391.41 76.3229
1391.46 111.910
1391.51 172.744
1391.56 283.328
1391.61 485.586
1391.65 828.564
1391.70 1095.80
1391.75 928.216
1391.80 617.075
1391.83 444.008
1391.87 328.605
1391.90 251.816
1391.94 200.566
1392.01 135.966
1392.08 100.307
1392.15 78.0520
1392.22 63.5557
1392.37 46.0105
1392.51 36.0222
1392.65 29.7564
1392.80 25.5209
1392.94 22.5136
1393.22 18.5162
1393.51 16.0348
1393.79 14.3533
1394.08 13.1442
1394.65 11.5254
1395.22 10.4949
1395.79 9.78021
1396.36 9.25412
1397.50 8.52178
1398.64 8.02779
1400.93 7.37264
1403.21 6.92094
1405.49 6.55602
1406.64 6.39051
1407.78 6.23692
1408.35 6.17170
1408.92 6.13832
1409.20 6.16448
1409.35 6.21008
1409.49 6.30675
1409.63 6.52733
1409.70 6.74348
1409.77 7.12044
1409.85 7.86860
1409.88 8.54091
1409.92 9.58952
1409.95 11.4694
1409.99 15.0229
1410.01 18.2461
1410.02 23.3258
1410.04 31.6851
1410.06 44.7453
1410.08 68.6593
1410.10 83.7097
1410.12 68.6608
1410.14 44.7424
1410.16 31.0899
1410.18 22.9591
1410.20 18.0057
1410.21 14.8524
1410.25 11.2908
1410.29 9.46170
1410.32 8.40856
1410.36 7.74922
1410.43 7.00137
1410.50 6.60356
1410.57 6.37053
1410.72 6.11262
1410.86 5.97361
1411.01 5.88589
1411.30 5.77314
1411.87 5.62928
1412.45 5.51452
1413.61 5.30225
1414.18 5.22455
1414.33 5.23094
1414.47 5.29330
1414.54 5.39056
1414.62 5.63531
1414.65 5.90684
1414.69 6.44506
1414.72 7.68784
1414.74 8.94802
1414.76 11.2095
1414.78 14.9053
1414.80 17.3509
1414.82 14.9020
1414.84 11.1988
1414.86 8.83959
1414.88 7.50472
1414.92 6.27739
1414.96 5.75724
1415.00 5.49276
1415.08 5.23923
1415.15 5.12295
1415.31 5.00655
1415.47 4.93923
1416.10 4.75587
1417.35 4.40657
1418.61 3.99401
1419.86 3.48248
1420.49 3.17733
1421.12 2.83487
1421.75 2.46154
1422.37 2.10091
1422.69 1.97163
1423.00 1.94934
1423.32 2.18045
1423.47 2.49048
1423.63 3.03970
1423.79 3.98993
1423.87 4.70641
1423.94 5.64433
1424.02 6.91529
1424.10 8.61416
1424.18 10.9807
1424.26 14.2574
1424.34 19.0297
1424.42 26.0178
1424.49 36.9437
1424.57 54.4562
1424.65 85.2404
1424.69 109.138
1424.73 142.688
1424.77 191.105
1424.81 262.969
1424.85 372.123
1424.89 538.308
1424.94 912.395
1425.00 1204.50
1425.06 1017.91
1425.12 671.810
1425.17 454.739
1425.22 320.542
1425.27 236.840
1425.32 183.293
1425.42 120.110
1425.52 86.2969
1425.62 65.9228
1425.72 52.8677
1425.93 37.3654
1426.13 28.6848
1426.33 23.2855
1426.73 16.9820
1427.14 13.4154
1427.54 11.0901
1428.35 8.04934
1429.16 5.87766
1429.57 4.94290
1429.97 4.17685
1430.38 3.98414
1430.48 4.17571
1430.58 4.56289
1430.68 5.24885
1430.78 6.40357
1430.88 8.34315
1430.93 9.75916
1430.98 11.5628
1431.03 13.9724
1431.08 17.0979
1431.13 21.3718
1431.18 27.0782
1431.24 35.1645
1431.29 46.4384
1431.34 63.2790
1431.39 88.3006
1431.44 128.656
1431.49 194.218
1431.54 310.587
1431.59 513.243
1431.64 882.944
1431.70 1182.37
1431.76 1012.12
1431.81 677.649
1431.86 479.547
1431.90 351.075
1431.95 267.571
1432.00 212.490
1432.09 144.593
1432.18 107.449
1432.27 84.4477
1432.36 69.4302
1432.54 51.2170
1432.73 40.7922
1432.91 34.2203
1433.09 29.7040
1433.27 26.4607
1433.64 22.0939
1434.00 19.3264
1434.37 17.4150
1434.73 16.0154
1435.47 14.0958
1436.20 12.8369
1437.66 11.2625
1439.12 10.2984
1440.58 9.63305
1443.50 8.74626
1446.42 8.15351
1449.34 7.70625
1455.19 7.01882
1461.03 6.44231
1466.87 5.87447
1472.72 5.23546
1475.64 4.86051
1476.37 4.76189
1477.10 4.67078
1477.46 4.63976
1477.83 4.65280
1478.01 4.71819
1478.19 4.93656
1478.29 5.23670
1478.33 5.51801
1478.38 5.97595
1478.42 6.83209
1478.45 7.55235
1478.47 8.58362
1478.49 10.2895
1478.51 13.2037
1478.54 18.5729
1478.56 28.6191
1478.58 43.3142
1478.60 52.7829
1478.62 43.3140
1478.64 28.6136
1478.65 22.2533
1478.67 17.6440
1478.69 12.3948
1478.72 9.64239
1478.74 8.06476
1478.77 7.08846
1478.79 6.44593
1478.84 5.68199
1478.89 5.26240
1478.94 5.00637
1479.04 4.71927
1479.24 4.47008
1479.44 4.35258
1479.84 4.21617
1480.24 4.11594
1481.04 3.93415
1481.84 3.74889
1483.45 3.33362
1485.05 2.82835
1485.85 2.53110
1486.65 2.20069
1487.45 1.84493
1488.25 1.50963
1488.65 1.39835
1489.05 1.40023
1489.25 1.48506
1489.45 1.66676
1489.65 2.00132
1489.85 2.58286
1489.96 3.01880
1490.06 3.58424
1490.16 4.32696
1490.26 5.30901
1490.36 6.61983
1490.46 8.39142
1490.56 10.8242
1490.66 14.2326
1490.76 19.1879
1490.86 26.4769
1490.96 37.7284
1491.06 56.0114
1491.16 87.7733
1491.21 112.767
1491.26 147.990
1491.31 199.064
1491.36 275.331
1491.41 392.031
1491.46 571.172
1491.53 962.169
1491.60 1275.09
1491.67 1078.39
1491.75 709.681
1491.82 440.521
1491.90 293.300
1491.98 207.902
1492.06 156.334
1492.14 122.316
1492.22 99.2785
1492.37 70.4686
1492.53 53.6402
1492.69 42.9461
1493.00 30.4999
1493.31 23.6324
1493.63 19.3857
1493.94 16.5226
1494.25 14.4733
1494.88 11.7445
1495.51 10.0277
1495.82 9.40859
1496.13 8.96122
1496.29 8.86059
1496.37 8.88504
1496.45 9.01713
1496.53 9.39309
1496.56 9.77307
1496.60 10.4228
1496.64 11.6127
1496.68 14.0423
1496.70 16.3436
1496.72 19.8844
1496.74 26.2592
1496.76 37.0438
1496.78 54.8944
1496.80 66.2645
1496.82 54.8576
1496.84 36.9580
1496.86 27.4451
1496.87 21.2597
1496.89 17.4065
1496.91 14.9110
1496.94 12.0381
1496.98 10.5269
1497.01 9.63526
1497.04 9.06136
1497.11 8.38558
1497.18 7.99066
1497.25 7.72949
1497.38 7.38843
1497.65 6.96296
1497.92 6.65279
1498.47 6.15119
1499.01 5.72577
1501.18 4.35373
1503.34 3.18744
1505.51 2.07070
1506.60 1.54069
1507.68 1.09115
1508.22 0.937369
1508.76 0.875424
1509.03 0.897004
1509.31 0.967975
1509.58 1.10356
1509.85 1.32419
1510.12 1.65765
1510.39 2.14215
1510.66 2.83118
1510.93 3.80084
1511.20 5.16164
1511.47 7.07789
1511.74 9.80043
1512.02 13.7246
1512.29 19.4972
1512.56 28.2239
1512.83 41.8990
1513.10 64.3595
1513.37 103.591
1513.64 177.824
1513.78 240.600
1513.91 332.722
1514.05 471.470
1514.18 680.479
1514.39 1170.84
1514.60 1568.34
1514.81 1340.34
1515.02 893.633
1515.17 658.463
1515.32 496.942
1515.47 386.588
1515.61 309.985
1515.91 213.579
1516.21 158.588
1516.51 124.112
1516.80 101.146
1517.40 73.0696
1517.99 56.9757
1518.59 46.7699
1519.18 39.8092
1519.78 34.8061
1520.97 28.1305
1522.16 23.9249
1523.34 21.0436
1524.53 18.9483
1526.91 16.0964
1529.29 14.2268
1531.67 12.8803
1534.05 11.8361
1538.81 10.2021
1541.19 9.46726
1543.56 8.69381
1545.94 7.76761
1547.13 7.18090
1548.32 6.44145
1548.92 5.98519
1549.51 5.44952
1550.11 4.81669
1550.70 4.08797
1551.00 3.70957
1551.29 3.37620
1551.59 3.20883
1551.89 3.54766
1552.04 4.18116
1552.11 4.72277
1552.19 5.47742
1552.26 6.55400
1552.34 8.05277
1552.41 10.1801
1552.48 13.2403
1552.56 17.8009
1552.63 24.5896
1552.71 35.1572
1552.78 52.3450
1552.86 82.4658
1552.89 105.614
1552.93 137.729
1552.97 183.291
1553.00 249.349
1553.04 346.671
1553.08 489.774
1553.14 851.275
1553.20 1141.18
1553.26 975.592
1553.32 655.478
1553.38 436.877
1553.44 306.440
1553.50 227.201
1553.56 176.529
1553.62 142.409
1553.68 118.377
1553.80 87.5322
1553.92 69.0966
1554.04 57.1017
1554.28 42.7580
1554.52 34.6692
1554.76 29.5613
1555.00 26.0761
1555.24 23.5606
1555.72 20.1906
1556.20 18.0458
1556.68 16.5631
1557.16 15.4759
1558.12 13.9827
1559.08 12.9967
1560.04 12.2885
1561.00 11.7488
1562.92 10.9639
1564.84 10.4017
1568.68 9.59710
1572.52 8.98089
1576.36 8.39701
1578.28 8.05739
1579.24 7.85167
1580.20 7.59896
1581.16 7.26057
1581.64 7.03593
1582.12 6.75239
1582.36 6.58182
1582.60 6.39016
1582.84 6.18359
1583.08 5.99536
1583.20 5.94273
1583.32 5.97027
1583.44 6.18156
1583.56 6.83633
1583.68 8.68681
1583.74 10.7201
1583.80 14.4680
1583.83 17.5305
1583.86 21.9656
1583.88 24.9369
1583.89 28.6052
1583.91 33.1825
1583.92 38.9631
1583.94 46.3608
1583.95 55.9681
1583.97 68.6477
1583.98 85.6732
1584.00 108.942
1584.01 141.270
1584.03 186.687
1584.04 250.331
1584.06 337.788
1584.08 483.944
1584.10 579.803
1584.12 529.361
1584.14 404.920
1584.16 320.970
1584.18 218.114
1584.21 157.437
1584.23 119.249
1584.26 94.1756
1584.31 64.6924
1584.36 48.7363
1584.41 39.1046
1584.46 32.8093
1584.56 25.2701
1584.66 20.9951
1584.76 18.3396
1584.86 16.5361
1584.96 15.2409
1585.16 13.5116
1585.36 12.4280
1585.56 11.6820
1585.76 11.1423
1586.16 10.4066
1586.56 9.92655
1586.96 9.58505
1587.37 9.32665
1588.17 8.95358
1588.97 8.68795
1590.57 8.31001
1592.18 8.02746
1593.78 7.78702
1596.99 7.34447
1600.19 6.86596
1601.80 6.57562
1603.40 6.21400
1604.20 5.98894
1605.00 5.71822
1605.81 5.38112
1606.61 4.94552
1607.01 4.67579
1607.41 4.36312
1607.81 4.00692
1608.21 3.63432
1608.41 3.47736
1608.61 3.40062
1608.81 3.52842
1609.01 4.18329
1609.11 4.96554
1609.21 6.35087
1609.26 7.41935
1609.31 8.87320
1609.36 10.8780
1609.41 13.6905
1609.46 17.7240
1609.51 23.6707
1609.56 32.7496
1609.61 47.2357
1609.66 71.6794
1609.69 90.3453
1609.71 115.913
1609.74 151.673
1609.76 202.690
1609.79 276.502
1609.81 382.959
1609.86 654.870
1609.90 875.687
1609.94 749.209
1609.99 500.067
1610.02 364.077
1610.05 274.664
1610.08 213.839
1610.11 171.511
1610.17 118.201
1610.24 88.4020
1610.30 69.5700
1610.36 57.2309
1610.49 42.0737
1610.61 33.4407
1610.74 27.9838
1610.86 24.2723
1610.99 21.6260
1611.24 18.0828
1611.48 15.8686
1611.73 14.3540
1611.98 13.2641
1612.48 11.7945
1612.98 10.8513
1613.48 10.1923
1613.98 9.70308
1614.98 9.01686
1615.98 8.54922
1617.97 7.92251
1619.97 7.48633
1621.97 7.12753
1622.96 6.95410
1623.96 6.76585
1624.46 6.65580
1624.96 6.52563
1625.21 6.45717
1625.33 6.43181
1625.46 6.43200
1625.58 6.51504
1625.65 6.64439
1625.71 6.91762
1625.77 7.55196
1625.80 8.16036
1625.83 9.18213
1625.86 11.0176
1625.90 14.6291
1625.91 17.9132
1625.93 22.6295
1625.94 30.5828
1625.96 43.2187
1625.97 54.7309
1625.98 69.5946
1626.00 90.5677
1626.02 78.2487
1626.04 54.0492
1626.06 39.5466
1626.08 30.6254
1626.09 24.7997
1626.11 20.8713
1626.15 16.0334
1626.18 13.4502
1626.22 11.8278
1626.25 10.7916
1626.32 9.53487
1626.39 8.81036
1626.45 8.35823
1626.59 7.82044
1626.73 7.51425
1626.87 7.31832
1627.14 7.07599
1627.69 6.81929
1628.24 6.66686
1629.34 6.45645
1630.43 6.29061
1634.82 5.71892
1639.21 5.13680
1643.60 4.46767
1647.99 3.63950
1650.19 3.13395
1652.38 2.54367
1654.58 1.85280
1655.67 1.47610
1656.77 1.11253
1657.87 0.885183
1658.42 0.957178
1658.69 1.10683
1658.97 1.39423
1659.24 1.91336
1659.38 2.30715
1659.52 2.83347
1659.65 3.54237
1659.79 4.50847
1659.93 5.84654
1660.06 7.73970
1660.20 10.5178
1660.34 14.6824
1660.48 21.2655
1660.61 32.3459
1660.75 52.6760
1660.82 69.7565
1660.89 94.8340
1660.96 134.579
1661.02 199.153
1661.09 313.640
1661.16 517.110
1661.30 1130.08
1661.37 952.504
1661.44 615.543
1661.51 378.548
1661.59 248.466
1661.66 172.962
1661.73 127.567
1661.81 97.7514
1661.88 77.6986
1662.03 52.7200
1662.18 38.4297
1662.32 29.4529
1662.62 19.1547
1662.91 13.5605
1663.20 10.1377
1663.79 6.19850
1664.38 4.01996
1664.96 2.66642
1665.55 1.82179
1665.84 1.56065
1666.14 1.41260
1666.43 1.39229
1666.58 1.43833
1666.72 1.52710
1667.02 1.86082
1667.17 2.12138
1667.31 2.45561
1667.61 3.41273
1667.90 4.87239
1668.19 7.07242
1668.49 10.3581
1668.78 15.3468
1669.07 23.0202
1669.37 35.2727
1669.66 55.5453
1669.95 91.3191
1670.25 158.908
1670.39 215.884
1670.54 299.858
1670.69 425.867
1670.83 613.120
1671.07 1067.70
1671.30 1436.59
1671.53 1233.69
1671.77 830.761
1671.98 571.312
1672.19 410.157
1672.40 308.548
1672.61 241.776
1673.03 163.113
1673.45 120.368
1673.87 94.3835
1674.29 77.3527
1675.13 56.7868
1675.97 45.0708
1676.81 37.6377
1677.65 32.5430
1678.49 28.8528
1680.17 23.8879
1681.85 20.7159
1683.53 18.5167
1685.21 16.9013
1688.58 14.6746
1691.94 13.1988
1695.30 12.1373
1696.14 11.9190
1696.98 11.7250
1697.40 11.6469
1697.82 11.6112
1698.03 11.6462
1698.24 11.8183
1698.34 12.0731
1698.40 12.3204
1698.45 12.7323
1698.50 13.5185
1698.53 14.1782
1698.55 15.1866
1698.58 16.9064
1698.61 19.8454
1698.63 25.5078
1698.65 30.2958
1698.66 37.5560
1698.68 53.0622
1698.70 63.8094
1698.72 53.0647
1698.74 37.5526
1698.76 28.2297
1698.78 22.6020
1698.80 19.2355
1698.82 17.1218
1698.86 14.7664
1698.89 13.5941
1698.93 12.9005
1698.97 12.4680
1699.04 11.9817
1699.19 11.5615
1699.35 11.3788
1699.65 11.2009
1699.95 11.0972
1700.55 10.9464
1701.15 10.8197
1702.36 10.5917
1703.57 10.3821
1708.39 9.65190
1718.05 8.47292
1722.87 7.93633
1727.70 7.37933
1730.11 7.06689
1732.52 6.68914
1733.73 6.44191
1734.33 6.28765
1734.94 6.09771
1735.54 5.84906
1735.84 5.69209
1736.14 5.50983
1736.29 5.41191
1736.45 5.31876
1736.60 5.25342
1736.75 5.28227
1736.82 5.38799
1736.90 5.62480
1736.97 6.13112
1737.05 7.19326
1737.12 9.64685
1737.16 12.0487
1737.20 15.9845
1737.22 19.0578
1737.24 23.2807
1737.26 29.2296
1737.27 37.3115
1737.28 43.3015
1737.29 49.9444
1737.30 59.1266
1737.31 69.4819
1737.32 84.0169
1737.33 100.601
1737.35 147.200
1737.36 194.462
1737.38 251.031
1737.40 331.140
1737.41 321.815
1737.43 281.856
1737.45 190.570
1737.47 146.514
1737.48 114.809
1737.52 75.8913
1737.55 54.7701
1737.58 42.5778
1737.61 34.4972
1737.64 29.0307
1737.71 22.3644
1737.77 18.4487
1737.83 15.9936
1737.96 13.0811
1738.09 11.4601
1738.21 10.4416
1738.34 9.74700
1738.47 9.24431
1738.72 8.56562
1738.98 8.12663
1739.23 7.81660
1739.48 7.58338
1739.99 7.24871
1740.50 7.01167
1741.52 6.67534
1743.55 6.21351
1745.58 5.84026
1749.64 5.12902
1753.70 4.34650
1757.77 3.40665
1759.80 2.85167
1761.83 2.22994
1763.86 1.55140
1765.89 0.901677
1766.91 0.688524
1767.42 0.660105
1767.93 0.729349
1768.18 0.820353
1768.43 0.966619
1768.69 1.19097
1768.94 1.53442
1769.20 2.08711
1769.45 3.12542
1769.58 4.13970
1769.64 4.96936
1769.70 6.22550
1769.77 8.43226
1769.80 10.2493
1769.83 12.8935
1769.86 17.3082
1769.89 24.8853
1769.91 31.2242
1769.93 40.4726
1769.94 54.3072
1769.96 73.4282
1769.98 112.637
1769.99 130.396
1770.00 136.790
1770.02 107.250
1770.03 85.0815
1770.04 66.0357
1770.06 48.0252
1770.07 36.4952
1770.09 27.9561
1770.10 22.4289
1770.11 18.1824
1770.13 15.3112
1770.15 11.3915
1770.21 7.63781
1770.26 6.11882
1770.31 5.44044
1770.37 5.17465
1770.47 5.21344
1770.69 6.22945
1770.90 7.90532
1771.33 13.2653
1771.76 23.0648
1771.98 30.9833
1772.19 42.3508
1772.41 59.2082
1772.62 85.2279
1772.84 127.415
1773.05 199.970
1773.27 332.985
1773.48 584.883
1773.69 999.416
1773.90 1337.97
1774.11 1144.70
1774.32 759.078
1774.47 550.305
1774.62 409.003
1774.78 313.843
1774.93 248.222
1775.24 167.382
1775.54 121.775
1775.85 93.5505
1776.15 74.7936
1776.76 51.9702
1777.38 38.8129
1777.99 30.3111
1779.21 19.7454
1780.44 12.8175
1781.05 9.88766
1781.66 7.15141
1782.27 4.83574
1782.58 4.24715
1782.73 4.32233
1782.88 4.85145
1782.96 5.38175
1783.03 6.15007
1783.11 7.25680
1783.19 8.78223
1783.26 10.9226
1783.34 13.8419
1783.42 17.9442
1783.49 23.6041
1783.57 31.7231
1783.65 43.2618
1783.72 60.4750
1783.80 86.1692
1783.88 126.848
1783.95 191.828
1784.03 300.120
1784.10 481.983
1784.20 859.506
1784.30 1172.29
1784.40 1018.75
1784.50 699.561
1784.57 517.623
1784.65 395.245
1784.72 311.852
1784.79 253.610
1784.94 180.177
1785.09 138.075
1785.24 111.277
1785.39 93.2550
1785.68 70.7232
1785.98 57.4801
1786.28 48.8574
1786.87 38.3899
1787.47 32.2611
1788.06 28.2269
1789.25 23.1882
1790.43 20.1007
1791.62 17.9703
1794.00 15.1226
1796.37 13.2096
1798.75 11.7513
1803.50 9.43077
1808.25 7.26348
1810.62 6.05351
1812.99 4.65005
1814.18 3.84861
1815.37 2.98025
1816.56 2.08261
1817.74 1.32636
1818.04 1.21388
1818.34 1.16414
1818.64 1.20613
1818.78 1.27444
1818.93 1.38253
1819.23 1.75736
1819.38 2.04912
1819.53 2.42875
1819.68 2.92271
1819.82 3.55126
1820.12 5.36827
1820.42 8.31444
1820.71 13.1333
1821.01 21.2255
1821.31 35.3411
1821.46 46.4253
1821.60 61.7226
1821.75 83.6253
1821.90 115.405
1822.05 163.599
1822.20 238.058
1822.35 356.978
1822.49 547.872
1822.70 960.841
1822.90 1298.51
1823.10 1119.70
1823.31 758.664
1823.43 589.787
1823.56 465.956
1823.80 310.670
1824.05 223.575
1824.30 171.113
1824.55 136.920
1824.79 113.520
1825.29 84.0565
1825.78 66.7328
1826.28 55.5361
1827.27 42.1559
1828.26 34.5594
1829.25 29.7078
1830.24 26.3517
1831.23 23.8937
1833.21 20.5138
1835.19 18.2745
1837.17 16.6460
1839.14 15.3737
1843.10 13.3675
1845.08 12.4609
1847.06 11.5058
1849.04 10.3611
1850.03 9.63414
1851.02 8.71533
1851.52 8.14515
1852.01 7.47100
1852.51 6.66439
1853.00 5.70816
1853.25 5.18845
1853.50 4.69025
1853.74 4.32742
1853.99 4.43932
1854.12 4.94597
1854.24 6.10608
1854.30 7.10138
1854.36 8.53037
1854.43 10.5864
1854.49 13.5123
1854.55 17.8780
1854.61 24.4424
1854.67 34.5979
1854.73 50.5701
1854.80 77.7751
1854.86 126.252
1854.89 164.647
1854.92 218.272
1854.95 293.796
1854.98 395.498
1855.04 695.396
1855.10 945.786
1855.16 821.420
1855.22 560.418
1855.28 384.038
1855.33 275.857
1855.39 208.662
1855.45 165.569
1855.56 114.470
1855.67 86.7372
1855.79 69.7634
1855.90 58.6899
1856.13 45.2458
1856.35 37.5097
1856.58 32.5867
1856.81 29.1909
1857.03 26.7173
1857.48 23.3608
1857.94 21.2026
1858.39 19.6915
1858.84 18.5759
1859.75 17.0227
1860.65 15.9843
1862.46 14.6491
1864.27 13.7948
1866.08 13.1778
1869.70 12.2978
1873.32 11.6552
1876.94 11.1313
1884.19 10.2446
1891.43 9.39842
1895.05 8.93042
1898.67 8.38007
1902.29 7.66004
1904.10 7.17882
1905.91 6.54967
1906.82 6.14833
1907.72 5.66237
1908.63 5.05932
1909.53 4.29704
1909.98 3.84417
1910.44 3.34997
1910.89 2.84892
1911.34 2.48150
1911.57 2.47568
1911.79 2.77042
1911.91 3.12370
1912.02 3.70453
1912.13 4.62922
1912.25 6.08633
1912.36 8.41924
1912.42 10.0757
1912.47 12.1542
1912.53 14.8796
1912.59 18.3639
1912.64 23.0372
1912.70 29.1753
1912.76 37.6772
1912.81 49.2761
1912.87 66.0798
1912.92 90.2392
1912.98 127.425
1913.04 184.576
1913.09 278.488
1913.15 428.489
1913.23 744.999
1913.30 1007.44
1913.38 870.091
1913.45 587.260
1913.50 442.458
1913.55 342.187
1913.65 221.310
1913.75 156.742
1913.85 118.813
1913.95 94.6813
1914.05 78.3319
1914.25 58.0799
1914.45 46.3304
1914.65 38.8043
1915.05 29.8899
1915.45 24.8757
1915.85 21.6977
1916.25 19.5153
1916.65 17.9276
1917.45 15.7716
1918.25 14.3751
1919.05 13.3895
1919.85 12.6505
1921.45 11.5983
1923.05 10.8636
1926.25 9.83643
1929.46 9.06920
1932.66 8.38758
1934.26 8.04411
1935.86 7.67357
1936.66 7.46332
1937.46 7.21412
1937.86 7.06163
1938.26 6.88274
1938.46 6.79860
1938.56 6.77837
1938.66 6.81012
1938.76 6.99577
1938.81 7.23954
1938.86 7.72701
1938.91 8.76806
1938.93 9.72996
1938.96 11.2785
1938.98 13.9115
1939.01 18.7081
1939.03 28.1744
1939.05 36.6483
1939.06 47.9469
1939.07 61.9235
1939.08 78.7055
1939.10 102.519
1939.12 88.4131
1939.14 61.7333
1939.16 44.6814
1939.18 33.9061
1939.20 27.0944
1939.22 22.8083
1939.26 17.4346
1939.29 14.5867
1939.33 12.8091
1939.37 11.6719
1939.44 10.2897
1939.52 9.48841
1939.59 8.97749
1939.74 8.36949
1940.04 7.77780
1940.34 7.47104
1940.94 7.10768
1941.53 6.85703
1942.73 6.44612
1943.92 6.05917
1946.31 5.22763
1948.70 4.22177
1949.90 3.62180
1951.09 2.94442
1952.29 2.19854
1953.48 1.46410
1954.08 1.19099
1954.38 1.11874
1954.68 1.12128
1954.98 1.23869
1955.28 1.53399
1955.43 1.77873
1955.57 2.10822
1955.72 2.54687
1955.87 3.12485
1956.02 3.88793
1956.17 4.87993
1956.32 6.18837
1956.47 7.89759
1956.62 10.1752
1956.77 13.1966
1956.92 17.2761
1957.07 22.8667
1957.22 30.7330
1957.37 41.9040
1957.52 58.3044
1957.66 83.2006
1957.81 122.866
1957.96 188.133
1958.11 301.087
1958.26 500.546
1958.43 873.952
1958.60 1181.63
1958.77 1018.79
1958.94 687.183
1959.06 506.451
1959.19 383.638
1959.31 299.801
1959.43 241.276
1959.68 168.103
1959.92 126.118
1960.17 99.7090
1960.42 82.0718
1960.91 60.3954
1961.40 47.8698
1961.89 39.8795
1962.88 30.3917
1963.86 25.0200
1964.85 21.5774
1965.83 19.1766
1966.82 17.3950
1968.79 14.8831
1970.76 13.1284
1974.70 10.5733
1978.64 8.33743
1980.61 7.10370
1982.58 5.65844
1983.56 4.81818
1984.55 3.88532
1985.53 2.87756
1986.52 1.91637
1987.01 1.58314
1987.26 1.51101
1987.50 1.54582
1987.75 1.74351
1988.00 2.18739
1988.12 2.54101
1988.24 3.01211
1988.36 3.63100
1988.49 4.43704
1988.61 5.49157
1988.73 6.84673
1988.98 10.8851
1989.23 17.8019
1989.47 30.0963
1989.60 39.7636
1989.72 53.2520
1989.84 72.4932
1989.96 100.659
1990.09 143.115
1990.21 209.116
1990.33 314.475
1990.46 483.359
1990.63 855.419
1990.80 1164.71
1990.97 1009.64
1991.14 688.037
1991.28 497.269
1991.42 371.860
1991.56 288.186
1991.70 231.490
1991.98 161.776
1992.25 122.565
1992.53 98.0745
1992.81 81.6993
1993.36 61.6170
1993.91 49.9739
1994.47 42.5070
1995.02 37.3379
1995.57 33.5771
1996.68 28.4787
1997.79 25.1951
1998.89 22.9021
2000.00 21.2043
2001.86 19.1411
2003.73 17.6425
2004.66 16.9986
2005.59 16.3533
2006.06 15.9898
2006.29 15.7810
2006.52 15.5405
2006.76 15.2531
2006.87 15.0887
2006.99 14.9226
2007.11 14.8046
2007.17 14.8246
2007.22 15.0026
2007.28 15.6114
2007.31 16.2840
2007.34 17.4914
2007.37 19.7623
2007.40 24.3480
2007.43 34.5236
2007.44 44.5047
2007.46 59.2805
2007.47 75.1314
2007.48 94.9924
2007.50 127.216
2007.52 114.588
2007.54 83.8855
2007.57 59.1149
2007.60 44.9097
2007.62 36.8133
2007.65 31.8448
2007.67 28.5827
2007.70 26.3189
2007.75 23.4819
2007.80 21.7472
2007.85 20.6115
2007.96 19.2393
2008.06 18.4299
2008.16 17.9034
2008.37 17.2437
2008.58 16.8341
2008.78 16.5461
2009.20 16.1477
2009.61 15.8642
2010.02 15.6397
2010.85 15.2827
2011.68 14.9967
2012.50 14.7651
2012.92 14.6800
2013.33 14.6569
2013.54 14.7210
2013.74 14.9784
2013.85 15.3485
2013.90 15.7010
2013.95 16.2830
2014.00 17.3843
2014.03 18.3230
2014.05 19.6926
2014.08 21.9879
2014.11 26.0095
2014.13 33.7045
2014.15 40.1576
2014.16 49.1015
2014.18 70.1934
2014.20 84.0130
2014.22 70.2013
2014.24 49.1038
2014.26 37.9106
2014.28 31.0659
2014.29 26.4071
2014.31 23.5123
2014.34 19.9924
2014.37 18.1633
2014.41 17.0444
2014.44 16.3342
2014.50 15.5262
2014.57 15.0863
2014.64 14.8249
2014.77 14.5303
2015.03 14.2645
2015.29 14.1292
2015.81 13.9586
2016.33 13.8288
2017.38 13.6062
2018.42 13.4049
2020.51 13.0338
2022.60 12.6813
2024.69 12.3182
2025.73 12.1169
2026.77 11.8844
2027.82 11.5880
2028.34 11.3938
2028.86 11.1430
2029.12 10.9845
2029.38 10.7931
2029.64 10.5565
2029.91 10.2576
2030.04 10.0791
2030.17 9.88432
2030.30 9.68253
2030.43 9.52453
2030.56 9.59089
2030.62 9.89497
2030.69 10.6892
2030.75 12.7386
2030.79 14.8327
2030.82 18.2985
2030.85 24.7557
2030.87 29.7905
2030.88 36.9118
2030.90 48.0091
2030.91 55.0558
2030.92 63.6859
2030.93 74.3000
2030.93 87.3833
2030.94 103.492
2030.95 123.191
2030.96 163.788
2030.98 213.248
2031.00 287.110
2031.01 282.646
2031.03 251.292
2031.05 175.733
2031.07 125.253
2031.10 93.4310
2031.12 73.2481
2031.14 60.3993
2031.19 44.3703
2031.23 35.7630
2031.28 30.3740
2031.32 26.8847
2031.41 22.6145
2031.51 20.1275
2031.60 18.5368
2031.69 17.4404
2031.78 16.6498
2031.96 15.5668
2032.14 14.8728
2032.32 14.3876
2032.50 14.0282
2032.87 13.5267
2033.23 13.1905
2033.95 12.7527
2034.68 12.4651
2035.40 12.2486
2036.85 11.9108
2038.30 11.6114
2039.03 11.4517
2039.75 11.2672
2040.48 11.0297
2040.84 10.8729
2041.20 10.6723
2041.57 10.3996
2041.75 10.2252
2041.93 10.0235
2042.11 9.82389
2042.20 9.77316
2042.29 9.85251
2042.38 10.3335
2042.43 10.9610
2042.47 12.2038
2042.52 14.8837
2042.56 20.9873
2042.59 27.2432
2042.61 37.5122
2042.62 46.1484
2042.63 56.9906
2042.64 71.7372
2042.65 92.7319
2042.66 120.580
2042.68 155.978
2042.70 211.847
2042.71 208.692
2042.72 186.178
2042.75 130.557
2042.77 99.3218
2042.78 78.3493
2042.80 63.8741
2042.82 53.6751
2042.85 40.5083
2042.89 33.1340
2042.92 28.3473
2042.95 25.2144
2043.02 21.2768
2043.09 18.9913
2043.16 17.5227
2043.30 15.7812
2043.44 14.7829
2043.57 14.1479
2043.85 13.3801
2044.12 12.9318
2044.40 12.6371
2044.67 12.4257
2044.95 12.2648
2045.50 12.0314
2046.05 11.8656
2047.15 11.6329
2048.25 11.4652
2049.35 11.3303
2051.55 11.1112
2053.76 10.9276
2055.96 10.7645
2058.16 10.6252
2058.71 10.6037
2059.26 10.6113
2059.53 10.6533
2059.81 10.7980
2059.95 11.0021
2060.08 11.5323
2060.15 12.1842
2060.19 12.7732
2060.22 13.6880
2060.26 15.3229
2060.29 18.3925
2060.31 21.0636
2060.33 25.1836
2060.34 31.7816
2060.36 42.4522
2060.38 62.1340
2060.40 74.4229
2060.42 61.1469
2060.44 42.4634
2060.46 32.2870
2060.47 26.1341
2060.49 21.8746
2060.50 19.2110
2060.53 15.9312
2060.56 14.2135
2060.60 13.1550
2060.63 12.4995
2060.69 11.7263
2060.81 11.0650
2060.93 10.7989
2061.18 10.5812
2061.42 10.4900
2061.91 10.4017
2062.40 10.3495
2064.36 10.2031
2068.27 9.94696
2076.10 9.42736
2083.93 8.84389
2085.89 8.68133
2087.84 8.51176
2089.80 8.34825
2090.29 8.32177
2090.78 8.33309
2091.03 8.38957
2091.27 8.58149
2091.39 8.85069
2091.45 9.10563
2091.51 9.54060
2091.58 10.3660
2091.61 11.0987
2091.64 12.2093
2091.67 14.1438
2091.70 17.6044
2091.71 20.7156
2091.73 25.0838
2091.74 31.7282
2091.76 42.6234
2091.78 62.8290
2091.80 77.1062
2091.82 62.8463
2091.84 42.6415
2091.86 31.2041
2091.88 24.0682
2091.89 19.6067
2091.91 16.8510
2091.94 13.4478
2091.98 11.7149
2092.01 10.6715
2092.04 10.0321
2092.11 9.28839
2092.24 8.66175
2092.38 8.40601
2092.65 8.19071
2092.91 8.09237
2093.45 7.98109
2093.98 7.90155
2096.13 7.62436
2100.41 7.01402
2104.69 6.24235
2108.98 5.21689
2111.12 4.56561
2113.26 3.79126
2115.40 2.87329
2117.54 1.83013
2118.61 1.31095
2119.69 0.889730
2120.22 0.772854
2120.76 0.778428
2120.89 0.807551
2121.02 0.850909
2121.29 0.988466
2121.56 1.21052
2121.83 1.54135
2122.10 2.01782
2122.36 2.68573
2122.63 3.60949
2122.90 4.87357
2123.17 6.61498
2123.43 9.01520
2123.70 12.3496
2123.97 17.0171
2124.24 23.7084
2124.51 33.4770
2124.77 48.1277
2125.04 70.7437
2125.31 107.384
2125.58 169.150
2125.84 279.230
2126.11 478.259
2126.41 844.280
2126.70 1149.45
2127.00 997.439
2127.29 679.225
2127.63 432.543
2127.96 295.538
2128.30 216.240
2128.63 167.356
2128.97 135.041
2129.30 112.657
2129.97 84.1893
2130.65 67.2899
2131.32 56.3180
2131.99 48.7910
2132.16 47.3384
2132.32 46.1582
2132.41 45.7980
2132.49 45.9018
2132.53 46.4243
2132.58 47.8225
2132.60 49.2538
2132.62 51.7110
2132.64 56.1229
2132.66 63.9882
2132.68 76.1954
2132.70 84.6106
2132.72 75.9139
2132.74 63.4233
2132.76 54.9765
2132.79 50.2308
2132.81 47.5076
2132.83 45.8188
2132.87 43.8865
2132.92 42.8032
2133.01 41.5328
2133.09 40.7045
2133.27 39.4387
2133.44 38.3920
2134.14 35.0101
2135.55 30.2413
2136.95 26.9952
2138.35 24.6481
2141.16 21.4953
2141.86 20.9182
2142.56 20.4124
2142.91 20.1964
2143.26 20.0418
2143.43 20.0327
2143.61 20.1927
2143.70 20.4775
2143.78 21.2265
2143.83 22.1071
2143.87 23.9590
2143.89 25.7206
2143.92 28.6903
2143.94 34.0458
2143.96 43.5760
2143.98 58.3418
2144.00 67.6852
2144.02 58.3345
2144.04 43.5487
2144.05 36.9506
2144.07 32.1796
2144.08 28.9735
2144.10 26.7719
2144.12 24.0861
2144.15 22.5985
2144.21 21.1101
2144.26 20.4152
2144.38 19.7871
2144.49 19.4996
2144.71 19.2000
2144.93 19.0146
2145.38 18.7371
2145.83 18.5031
2146.72 18.0892
2147.61 17.7215
2151.18 16.5476
2154.75 15.6909
2158.32 15.0351
2165.46 14.0897
2172.60 13.4312
2179.74 12.9330
2186.87 12.5195
2190.44 12.3191
2192.23 12.2116
2194.01 12.0904
2195.80 11.9389
2196.69 11.8401
2197.58 11.7113
2198.03 11.6280
2198.48 11.5250
2198.92 11.3921
2199.37 11.2112
2199.81 10.9476
2200.04 10.7656
2200.26 10.5349
2200.48 10.2518
2200.59 10.1072
2200.71 10.0145
2200.82 10.1433
2200.87 10.4627
2200.93 11.2105
2200.98 13.0279
2201.01 14.8135
2201.04 17.7951
2201.07 23.0319
2201.10 32.8550
2201.11 40.9847
2201.12 52.7660
2201.14 70.0694
2201.15 94.3191
2201.16 125.107
2201.18 161.183
2201.20 217.962
2201.21 215.550
2201.22 193.663
2201.25 135.606
2201.27 94.2449
2201.30 69.1494
2201.32 54.0445
2201.35 44.7501
2201.37 38.1977
2201.40 33.7475
2201.45 27.8537
2201.50 24.2374
2201.54 21.9173
2201.64 19.1032
2201.74 17.4759
2201.84 16.4461
2201.94 15.7287
2202.04 15.2115
2202.23 14.5074
2202.43 14.0544
2202.63 13.7389
2202.82 13.5063
2203.22 13.1857
2203.61 12.9739
2204.01 12.8222
2204.40 12.7072
2205.19 12.5421
2205.98 12.4265
2207.55 12.2683
2209.13 12.1584
2210.70 12.0730
2213.85 11.9403
2217.01 11.8348
2220.16 11.7452
2223.31 11.6690
2224.89 11.6480
2225.28 11.6554
2225.67 11.6917
2225.87 11.7476
2226.07 11.9027
2226.17 12.1039
2226.26 12.5941
2226.31 13.1563
2226.36 14.3502
2226.39 15.5412
2226.41 17.5244
2226.44 21.4369
2226.46 29.0796
2226.48 39.7830
2226.50 46.6074
2226.52 39.7943
2226.54 29.0932
2226.56 23.9754
2226.57 20.6244
2226.60 16.7382
2226.63 14.8487
2226.66 13.8458
2226.71 12.8309
2226.77 12.3686
2226.89 11.9713
2227.00 11.8120
2227.00 22.7495
2500.00 21.7962
3000.00 20.4025
3500.00 19.3211
4000.00 18.4508
5000.00 17.1231
6000.00 16.1458
7000.00 15.3883
8000.00 14.7793
9000.00 14.2760
10000.0 13.8512
12500.0 13.0248
15000.0 12.4173
17000.0 12.0324
20000.0 11.5685
25000.0 10.9914
30000.0 10.5657
35000.0 10.2343
40000.0 9.96615
50000.0 9.55224
60000.0 9.24109
70000.0 8.99354
80000.0 8.78849
89545.6 8.61766
89545.6 8.61766
90000.0 8.61814
90000.0 8.61684
100000 8.47008
110000 8.35260
120000 8.23511
130000 8.13677
150000 7.96850
170000 7.82963
198274 7.67160
200000 7.66195
250000 7.53144
270000 7.47924
290044 7.42692
290044 7.42692
300000 7.40093
320000 7.38174
350000 7.35295
370000 7.33376
400000 7.30497
420000 7.30179
450000 7.29703
470000 7.29385
500000 7.28909
520000 7.28591
570000 7.27797
588493 7.27503
588493 7.27503
600000 7.27320
613800 7.27101
613800 7.27101
620000 7.27003
650000 7.26526
670000 7.26209
700000 7.25732
800000 7.26915
900000 7.28492
971333 7.28610
971333 7.28610
1.00000E+06 7.28658
1.02000E+06 7.27875
1.04000E+06 7.27092
1.05629E+06 7.26455
1.06000E+06 7.26309
1.08000E+06 7.25526
1.10000E+06 7.24744
1.12000E+06 7.23961
1.13672E+06 7.23306
1.13672E+06 7.23307
1.14000E+06 7.23178
1.16000E+06 7.22395
1.16158E+06 7.22333
1.16158E+06 7.22334
1.17578E+06 7.21777
1.17578E+06 7.21777
1.18000E+06 7.21612
1.20000E+06 7.20829
1.22000E+06 7.19498
1.24000E+06 7.18166
1.25053E+06 7.17465
1.25053E+06 7.17466
1.25603E+06 7.17099
1.25603E+06 7.17099
1.26000E+06 7.16835
1.26619E+06 7.16423
1.26619E+06 7.16423
1.28000E+06 7.15503
1.28436E+06 7.15213
1.28436E+06 7.15214
1.30000E+06 7.14172
1.30619E+06 7.13760
1.30619E+06 7.13760
1.32000E+06 7.12841
1.32828E+06 7.12290
1.32828E+06 7.12290
1.34000E+06 7.11509
1.36000E+06 7.10178
1.36414E+06 7.09902
1.36414E+06 7.09902
1.37533E+06 7.09157
1.37533E+06 7.09157
1.38000E+06 7.08846
1.40000E+06 7.07515
1.41721E+06 7.06369
1.42000E+06 7.06184
1.42519E+06 7.05838
1.42519E+06 7.05838
1.44000E+06 7.04852
1.46000E+06 7.03521
1.47172E+06 7.02741
1.47803E+06 7.02321
1.47803E+06 7.02320
1.48000E+06 7.02189
1.48585E+06 7.01800
1.48585E+06 7.01800
1.50000E+06 7.00858
1.51656E+06 6.99756
1.51656E+06 6.99756
1.52000E+06 6.99527
1.52031E+06 6.99506
1.52031E+06 6.99506
1.54000E+06 6.98195
1.54879E+06 6.97610
1.54880E+06 6.97609
1.55019E+06 6.97516
1.55020E+06 6.97516
1.56000E+06 6.96864
1.58000E+06 6.95532
1.60000E+06 6.94201
1.67980E+06 6.88889
1.70000E+06 6.87544
1.70246E+06 6.87394
1.72778E+06 6.85853
1.76785E+06 6.83413
1.78406E+06 6.82426
1.80000E+06 6.81456
1.80629E+06 6.81073
1.82642E+06 6.79848
1.83044E+06 6.79603
1.84054E+06 6.78988
1.85608E+06 6.78042
1.86519E+06 6.77487
1.89612E+06 6.75604
1.89899E+06 6.75429
1.90000E+06 6.75368
1.93159E+06 6.73445
1.93961E+06 6.72957
1.94166E+06 6.72832
1.94847E+06 6.72417
1.95029E+06 6.72306
1.97298E+06 6.70925
1.99492E+06 6.69589
2.00000E+06 6.69280
2.00660E+06 6.68922
2.02534E+06 6.67907
2.03552E+06 6.67356
2.05072E+06 6.66532
2.05760E+06 6.66159
2.06862E+06 6.65562
2.20000E+06 6.58445
2.40000E+06 6.47609
2.50000E+06 6.42191
2.60000E+06 6.36774
2.80000E+06 6.25938
3.00000E+06 6.15103
3.50000E+06 5.88014
4.00000E+06 5.62603
4.50000E+06 5.35048
5.00000E+06 5.16671
5.50000E+06 5.01678
6.00000E+06 4.92595
6.50000E+06 4.84964
7.00000E+06 4.80659
7.50000E+06 4.80545
7.80000E+06 4.82184
8.00000E+06 4.83276
8.05779E+06 4.83592
8.50000E+06 4.86007
8.50970E+06 4.86079
8.59122E+06 4.86680
8.59122E+06 4.86680
9.00000E+06 4.89698
9.50000E+06 4.94934
1.00000E+07 4.98885
1.04900E+07 5.02758
1.05000E+07 5.02837
1.10000E+07 5.06788
1.15000E+07 5.10089
1.20000E+07 5.13282
1.25000E+07 5.15422
1.30000E+07 5.16198
1.39500E+07 5.17671
1.40000E+07 5.17749
1.50000E+07 5.19300
1.50678E+07 5.19236
1.50679E+07 5.19235
1.60000E+07 5.18353
1.62615E+07 5.18106
1.62615E+07 5.18106
1.70000E+07 5.17406
1.75000E+07 5.16933
1.80000E+07 5.15400
1.85000E+07 5.13866
1.90000E+07 5.11652
1.95000E+07 5.09437
2.00000E+07 5.07223