Gd-155(n,g) ENDF/B-VII.1
Energy(eV) XS(b)
1.00000E-05 2.46475E+06
1.26000E-05 2.19585E+06
1.58000E-05 1.96101E+06
2.00000E-05 1.74308E+06
2.51000E-05 1.55606E+06
3.16000E-05 1.38694E+06
3.98000E-05 1.23598E+06
5.00000E-05 1.10288E+06
5.01000E-05 1.10178E+06
5.05063E-05 1.09735E+06
5.09125E-05 1.09297E+06
5.17250E-05 1.08436E+06
5.33500E-05 1.06774E+06
5.66000E-05 1.03668E+06
6.31000E-05 981926
7.94000E-05 875555
0.000100000 780406
0.000126000 695498
0.000158000 621371
0.000200000 552619
0.000251000 493653
0.000316000 440372
0.000398000 392856
0.000500000 351015
0.000501000 350669
0.000505063 349276
0.000509125 347900
0.000517250 345197
0.000533500 339979
0.000566000 330227
0.000631000 313048
0.000794000 279723
0.00100000 249985
0.00126000 223527
0.00158000 200515
0.00200000 179272
0.00251000 161158
0.00316000 144907
0.00398000 130538
0.00500000 118016
0.00501000 117913
0.00505063 117499
0.00509125 117089
0.00517250 116286
0.00533500 114737
0.00566000 111849
0.00631000 106785
0.00794000 97047.3
0.0100000 88447.1
0.0125900 80841.1
0.0158500 73979.7
0.0199500 67549.0
0.0200000 67479.9
0.0201600 67259.8
0.0203200 67041.5
0.0206400 66609.7
0.0212800 65764.7
0.0225600 64139.8
0.0251200 61092.6
0.0253000 60886.3
0.0256750 60459.6
0.0260500 60036.5
0.0268000 59200.3
0.0292100 56588.5
0.0316200 54063.6
0.0398100 45898.7
0.0500000 36586.7
0.0501200 36484.1
0.0505256 36138.4
0.0509313 35794.9
0.0517425 35114.5
0.0533650 33780.6
0.0566100 31225.1
0.0631000 26586.6
0.0712650 21655.7
0.0794300 17661.9
0.0808520 17052.7
0.0856390 15170.6
0.0904260 13525.7
0.100000 10834.1
0.106473 9383.48
0.112945 8169.61
0.119418 7149.86
0.125890 6289.33
0.134040 5388.97
0.142190 4651.77
0.150340 4043.42
0.158490 3537.54
0.168750 3015.41
0.179010 2593.02
0.189270 2247.77
0.199530 1962.86
0.200000 1951.03
0.201600 1911.51
0.203199 1873.10
0.206399 1799.41
0.212798 1663.68
0.225595 1432.04
0.238393 1243.14
0.251190 1087.47
0.267450 926.711
0.283710 797.708
0.299970 692.895
0.316230 606.783
0.336700 518.810
0.357170 448.253
0.377640 390.943
0.398110 343.863
0.423583 296.265
0.449055 258.002
0.500000 201.242
0.501190 200.159
0.505245 196.538
0.509301 193.021
0.517411 186.284
0.533633 173.907
0.566075 152.885
0.630960 121.908
0.794330 80.2145
1.00000 60.2333
1.25893 56.7756
1.42191 64.1729
1.58489 84.1352
1.67687 108.065
1.76885 157.224
1.81483 205.321
1.86082 292.923
1.88382 366.807
1.90681 478.707
1.92981 655.303
1.94130 780.451
1.95280 937.778
1.96342 1113.88
1.97403 1314.08
1.99526 1685.23
2.00000 1734.56
2.00800 1768.06
2.02180 1670.81
2.03560 1439.79
2.06320 955.371
2.09123 650.589
2.11925 491.780
2.14728 412.445
2.17530 377.331
2.23135 383.249
2.28740 466.883
2.34345 653.849
2.37148 814.454
2.39950 1054.26
2.42753 1427.04
2.45555 2037.19
2.48358 3092.36
2.49759 3898.05
2.51160 4965.43
2.51189 4990.61
2.51277 5067.53
2.51364 5145.62
2.51540 5305.19
2.51890 5638.11
2.52592 6354.38
2.53995 7902.45
2.56800 9797.55
2.59620 7795.56
2.62440 4850.33
2.64121 3605.03
2.65802 2723.23
2.69164 1658.90
2.72525 1095.17
2.75887 770.458
2.79249 569.177
2.82611 436.794
2.89334 280.029
2.96058 194.857
3.02781 143.787
3.16228 88.8298
3.25946 68.2180
3.35664 56.5759
3.45382 54.2847
3.50241 60.6367
3.55100 80.9517
3.61600 123.220
3.68100 73.6389
3.71851 52.4978
3.75602 41.1206
3.83104 30.3119
3.98107 22.1794
4.23580 17.1240
4.49054 15.2915
4.74527 15.2244
5.00000 16.8927
5.01187 17.0229
5.05031 17.4841
5.08875 18.0100
5.16564 19.2847
5.31940 23.0181
5.47317 29.2797
5.62694 40.4643
5.78070 62.9146
5.85759 83.6230
5.93447 118.198
6.01135 182.268
6.04979 236.917
6.08823 320.995
6.12668 459.137
6.14590 563.421
6.16512 705.902
6.18434 905.757
6.20356 1193.45
6.22278 1615.79
6.24200 2234.03
6.27100 3562.23
6.30000 4440.73
6.30957 4319.89
6.33379 3308.55
6.35800 2213.78
6.37877 1556.21
6.39954 1122.26
6.42032 835.626
6.44109 641.481
6.48263 408.289
6.52418 281.500
6.56572 205.997
6.60726 157.813
6.69035 102.685
6.77344 74.1214
6.85653 58.0529
7.02270 43.9558
7.18888 44.1121
7.27196 49.8794
7.35505 62.1878
7.43814 87.4764
7.47968 109.848
7.52123 144.784
7.56277 202.740
7.60431 306.918
7.64586 513.597
7.66663 693.042
7.68740 956.101
7.70305 1220.01
7.71870 1521.32
7.75000 1895.71
7.78130 1514.58
7.81260 947.277
7.84527 573.000
7.87794 368.861
7.91061 253.540
7.94328 184.042
8.00607 111.500
8.06885 75.1581
8.13164 54.5272
8.19442 41.7251
8.31999 27.3270
8.44556 19.8322
8.57113 15.4425
8.69670 12.6683
8.94784 9.60176
9.19898 8.35903
9.45012 8.70487
9.57569 10.0498
9.70126 13.7914
9.76405 18.1472
9.82683 27.2475
9.85822 35.8685
9.88962 50.3752
9.92101 76.5425
9.95240 125.681
10.0000 238.408
10.0100 245.316
10.0390 196.516
10.0680 124.189
10.0899 87.2000
10.1117 63.4085
10.1336 48.0339
10.1554 37.7994
10.1992 25.7340
10.2429 19.3094
10.3303 13.2155
10.4178 10.6670
10.5926 9.09620
10.7675 9.54816
10.9424 11.7320
11.0298 13.8973
11.1173 17.4703
11.2047 23.8858
11.2921 37.2623
11.3359 50.2967
11.3796 73.4106
11.4233 119.314
11.4452 159.634
11.4670 219.545
11.4985 343.631
11.5300 427.113
11.5615 347.051
11.5930 227.297
11.6143 171.977
11.6356 135.868
11.6783 98.9807
11.7209 87.9474
11.7635 93.1292
11.8061 115.235
11.8488 165.459
11.8701 210.197
11.8914 278.393
11.9127 384.630
11.9340 549.805
11.9480 697.706
11.9620 865.944
11.9900 1074.04
12.0180 862.177
12.0460 543.694
12.0800 307.596
12.1139 189.568
12.1479 127.037
12.1818 90.9686
12.2158 68.5377
12.2497 53.7314
12.3176 36.0851
12.3855 26.4035
12.4534 20.5447
12.5893 14.1581
12.7060 11.3447
12.8227 9.71657
13.0562 8.29020
13.2897 8.31841
13.5231 9.70219
13.7566 13.4677
13.8733 17.2931
13.9901 24.0552
14.1068 37.4762
14.1652 49.7025
14.2235 69.8097
14.2819 106.180
14.3111 136.382
14.3403 181.580
14.3695 253.006
14.3986 373.402
14.4132 465.505
14.4278 591.372
14.4424 765.038
14.4570 1002.77
14.4835 1599.41
14.5100 1995.18
14.5365 1596.43
14.5630 999.057
14.5831 689.273
14.6032 489.603
14.6233 360.312
14.6434 274.176
14.6836 172.350
14.7238 117.816
14.7639 85.5993
14.8041 65.1190
14.8845 41.6363
14.9649 29.2557
15.0452 21.9667
15.2060 14.2086
15.3667 10.4211
15.5275 8.33024
15.8489 6.33375
16.3142 5.54314
16.7795 6.07506
17.0121 7.04655
17.2447 9.39701
17.3611 12.1082
17.4774 18.2261
17.5355 24.7853
17.5937 37.7868
17.6228 49.5791
17.6519 68.6155
17.6809 101.082
17.7100 157.814
17.7400 247.992
17.7700 307.785
17.8000 247.798
17.8300 157.728
17.8618 97.3710
17.8936 64.7292
17.9254 46.4598
17.9572 35.5615
18.0209 24.0897
18.0845 18.6953
18.2117 14.3372
18.3389 13.1285
18.5934 14.0001
18.8479 17.6037
19.1023 25.2652
19.2296 32.2708
19.3568 43.9515
19.4840 66.0574
19.5476 85.6896
19.6112 117.585
19.6749 174.954
19.7067 222.669
19.7385 294.427
19.7703 408.965
19.8021 605.436
19.8339 971.106
19.8657 1688.78
19.8929 2687.31
19.9200 3352.71
19.9363 3077.11
19.9526 2470.11
19.9743 1689.59
20.0000 1077.00
20.0304 677.770
20.0608 462.801
20.0912 338.594
20.1217 262.115
20.1521 212.621
20.1825 179.460
20.2433 141.109
20.3041 123.595
20.3650 118.170
20.4258 121.549
20.4866 133.137
20.5474 154.340
20.6083 188.977
20.6691 245.095
20.7299 339.708
20.7603 412.187
20.7907 512.480
20.8211 656.085
20.8516 870.520
20.8820 1207.86
20.9124 1772.22
20.9428 2782.27
20.9732 4659.46
21.0016 7443.10
21.0300 9292.88
21.0584 7429.43
21.0868 4643.28
21.1065 3301.11
21.1262 2402.39
21.1459 1801.01
21.1656 1389.30
21.2050 888.906
21.2444 613.288
21.2838 447.427
21.3232 340.531
21.4020 216.293
21.4808 149.852
21.5596 110.308
21.7172 67.6841
21.8748 46.5246
22.0324 34.6526
22.1900 27.5166
22.3476 23.1438
22.6628 19.6435
22.8204 20.2871
22.9780 23.3369
23.1356 31.2318
23.2144 39.0913
23.2932 52.5819
23.3720 77.9474
23.4114 99.6692
23.4508 133.069
23.4902 187.733
23.5296 284.587
23.5493 362.301
23.5690 473.153
23.5887 634.056
23.6084 866.679
23.6238 1107.42
23.6392 1382.52
23.6700 1725.75
23.6854 1623.82
23.7008 1380.34
23.7316 863.901
23.7533 612.239
23.7750 444.790
23.7966 333.363
23.8183 257.442
23.8617 165.549
23.9050 115.141
23.9484 84.8713
23.9917 65.3900
24.0784 42.7499
24.1651 30.6170
24.2518 23.3669
24.4252 15.4780
24.5986 11.4822
24.7721 9.17255
25.1189 6.75305
25.7159 5.23677
26.3129 5.21685
26.6114 5.83034
26.9099 7.54374
27.0592 9.61212
27.1338 11.4515
27.2084 14.4405
27.2830 19.8199
27.3577 31.0448
27.3950 41.8363
27.4323 60.4003
27.4696 95.1110
27.5069 163.702
27.5385 258.528
27.5700 321.703
27.6016 258.440
27.6331 163.738
27.6627 106.036
27.6922 72.6075
27.7217 52.8352
27.7513 40.5500
27.8104 27.0760
27.8694 20.4493
27.9876 14.7569
28.1058 12.8524
28.3421 12.9216
28.5785 15.8657
28.8148 22.5621
28.9330 28.6775
29.0511 38.6901
29.1693 57.0182
29.2284 72.7600
29.2875 97.5663
29.3466 140.543
29.3761 175.155
29.4056 225.823
29.4352 304.044
29.4647 432.665
29.4943 658.929
29.5238 1072.46
29.5519 1692.75
29.5800 2108.07
29.6081 1701.95
29.6362 1092.35
29.6617 732.543
29.6873 525.020
29.7128 405.895
29.7384 337.323
29.7639 299.548
29.7894 282.600
29.8150 281.733
29.8405 295.413
29.8660 324.620
29.8916 372.959
29.9171 447.715
29.9427 562.256
29.9682 741.417
29.9937 1032.01
30.0193 1523.41
30.0320 1890.08
30.0448 2366.98
30.0724 3763.61
30.1000 4691.50
30.1138 4414.19
30.1276 3753.51
30.1552 2351.95
30.1781 1571.46
30.2011 1089.37
30.2240 788.267
30.2469 592.884
30.2928 367.885
30.3387 250.081
30.3845 181.353
30.4304 137.947
30.5221 88.3608
30.6138 62.2363
30.7056 46.8775
30.8890 30.8225
31.0724 23.9880
31.2559 23.0172
31.3476 25.6415
31.4393 33.1687
31.4852 41.0500
31.5311 55.0798
31.5769 82.4121
31.5999 106.223
31.6228 142.659
31.6416 187.525
31.6604 252.131
31.6753 319.773
31.6902 397.099
31.7200 493.596
31.7498 396.371
31.7796 250.976
31.8000 181.713
31.8204 135.079
31.8611 82.0971
31.9019 55.7063
31.9427 41.0805
32.0242 26.5339
32.1058 19.9284
32.2688 14.6227
32.4319 13.3659
32.5950 14.5823
32.7581 19.8401
32.8396 26.3759
32.9211 40.7341
32.9619 55.2170
33.0027 81.6157
33.0231 103.522
33.0434 135.842
33.0638 184.863
33.0842 259.408
33.1121 407.293
33.1400 506.258
33.1679 409.801
33.1958 264.896
33.2278 164.023
33.2598 114.700
33.2918 91.7966
33.3238 83.9446
33.3557 87.6646
33.3877 104.753
33.4197 143.468
33.4517 222.096
33.4809 339.405
33.5100 417.338
33.5392 336.182
33.5683 215.507
33.5868 161.430
33.6053 123.818
33.6422 79.3860
33.6792 56.3409
33.7161 43.2603
33.7900 30.1340
33.8640 24.4224
34.0118 21.2137
34.1596 23.5420
34.3074 31.7081
34.3813 39.7152
34.4553 52.9285
34.5292 76.3695
34.6031 122.916
34.6400 164.876
34.6770 231.966
34.7140 344.840
34.7509 538.701
34.7905 856.699
34.8300 1068.74
34.8696 857.261
34.9091 540.487
34.9404 371.194
34.9717 264.829
35.0030 197.830
35.0344 154.541
35.0970 106.772
35.1596 86.6675
35.2222 84.0734
35.2849 101.689
35.3162 123.935
35.3475 163.942
35.3788 237.611
35.4101 375.084
35.4251 472.554
35.4401 584.012
35.4700 722.694
35.5000 580.677
35.5299 368.736
35.5539 253.850
35.5779 181.467
35.6019 135.446
35.6259 105.130
35.6739 69.5989
35.7218 50.6045
35.7698 39.3384
35.8178 32.1341
35.9138 23.8656
36.0097 19.6533
36.1057 17.4969
36.2976 16.8172
36.4895 20.7094
36.5855 25.5400
36.6815 34.4056
36.7774 52.0496
36.8254 67.8894
36.8734 93.3815
36.9214 137.859
36.9693 224.650
36.9933 301.514
37.0173 422.179
37.0413 619.973
37.0653 948.963
37.0927 1515.33
37.1200 1892.48
37.1474 1514.21
37.1747 947.444
37.2023 581.808
37.2299 378.211
37.2575 261.334
37.2851 190.110
37.3127 144.143
37.3403 112.987
37.3954 74.9325
37.4506 53.5877
37.5058 40.4809
37.6162 25.9439
37.7265 18.5337
37.8369 14.3049
38.0576 10.1407
38.2783 8.85312
38.4991 10.1704
38.6094 12.9384
38.6646 15.6218
38.7198 20.0851
38.7750 28.0738
38.8301 44.0516
38.8577 58.4948
38.8853 81.6043
38.9129 120.427
38.9405 186.933
38.9703 296.650
39.0000 369.657
39.0298 296.314
39.0595 186.437
39.0830 127.669
39.1065 90.4628
39.1299 66.7536
39.1534 51.1398
39.2004 32.8868
39.2473 23.2001
39.2943 17.5031
39.3412 13.8837
39.4351 9.72322
39.5290 7.51097
39.6229 6.19342
39.8107 4.76668
40.0628 3.90132
40.3148 3.51720
40.8189 3.36405
41.3229 3.72318
41.8270 4.69173
42.3311 6.91586
42.5831 9.11071
42.8352 12.9967
43.0872 20.8556
43.2132 28.2129
43.3392 40.7213
43.4653 64.5763
43.5283 85.5459
43.5913 118.830
43.6543 175.996
43.6858 221.079
43.7173 285.198
43.7488 379.905
43.7803 525.468
43.8118 757.644
43.8433 1131.45
43.8817 1808.82
43.9200 2260.19
43.9584 1807.71
43.9967 1129.92
44.0286 752.747
44.0604 520.002
44.0923 374.850
44.1242 280.831
44.1879 172.881
44.2516 116.675
44.3153 84.0967
44.3791 63.6745
44.5065 40.6385
44.6340 28.7791
44.7614 22.0277
45.0163 15.5505
45.2712 13.8662
45.5261 16.5193
45.6536 21.2561
45.7173 25.6920
45.7810 32.9505
45.8447 45.8350
45.9085 71.6727
45.9403 95.3155
45.9722 133.787
46.0040 200.160
46.0359 318.004
46.0519 404.091
46.0680 502.352
46.1000 625.295
46.1321 503.162
46.1641 319.913
46.1845 237.748
46.2049 181.069
46.2458 115.172
46.2866 82.2055
46.3274 64.6925
46.4091 50.8170
46.4907 51.7942
46.5724 66.2259
46.6132 81.5453
46.6540 107.006
46.6948 151.471
46.7152 186.519
46.7357 236.087
46.7561 308.552
46.7765 418.154
46.7969 589.164
46.8173 857.238
46.8305 1094.86
46.8437 1366.25
46.8700 1705.25
46.8832 1604.86
46.8964 1364.84
46.9227 855.148
46.9462 555.431
46.9697 376.904
46.9932 268.702
47.0167 200.143
47.0637 123.032
47.1107 83.6387
47.1577 61.0796
47.2047 47.0830
47.2988 31.6389
47.3928 24.4413
47.4868 22.2813
47.5338 23.5085
47.5808 27.8296
47.6278 39.5217
47.6513 51.6785
47.6748 71.9584
47.7024 107.987
47.7300 131.852
47.7576 107.072
47.7852 70.1596
47.8198 42.2291
47.8544 28.4833
47.8890 21.2085
47.9236 16.9614
47.9928 12.4292
48.0621 10.1325
48.2005 7.87232
48.3389 6.78356
48.6158 5.83026
48.8926 5.60194
49.4463 6.43259
49.7232 7.58420
50.0000 9.58724
50.1187 10.8713
50.4180 16.3048
50.5676 21.3068
50.7173 29.7225
50.8669 45.7623
50.9417 60.0400
51.0165 83.2332
51.0914 124.880
51.1288 159.447
51.1662 211.351
51.2036 293.979
51.2410 435.293
51.2784 697.310
51.3158 1209.24
51.3479 1924.03
51.3800 2402.84
51.4121 1929.95
51.4442 1216.76
51.4635 910.999
51.4829 695.326
51.5215 437.029
51.5602 302.694
51.5989 227.931
51.6375 184.570
51.6762 159.636
51.7148 146.869
51.7535 143.412
51.7922 148.460
51.8308 162.899
51.8695 189.659
51.8888 209.422
51.9082 235.010
51.9275 268.265
51.9468 311.793
51.9662 369.488
51.9855 447.129
52.0048 553.389
52.0241 701.185
52.0435 908.822
52.0628 1198.13
52.0964 1899.13
52.1300 2362.49
52.1468 2222.22
52.1636 1890.47
52.1972 1188.01
52.2215 837.971
52.2458 607.387
52.2701 455.263
52.2944 352.301
52.3429 228.521
52.3915 161.153
52.4401 121.033
52.4887 95.5540
52.5858 67.2288
52.6830 54.9344
52.7801 54.1974
52.8287 60.1229
52.8773 75.2175
52.9258 112.932
52.9501 151.615
52.9744 216.315
53.0022 328.517
53.0300 403.331
53.0578 328.169
53.0856 215.759
53.1045 162.637
53.1234 126.967
53.1612 86.9655
53.1990 68.0128
53.2368 58.7891
53.3123 54.3063
53.3879 61.7371
53.4635 83.9009
53.5013 105.077
53.5391 139.318
53.5768 198.190
53.6146 308.964
53.6335 403.019
53.6524 544.244
53.6713 762.646
53.6902 1101.54
53.7151 1755.03
53.7400 2189.82
53.7649 1753.45
53.7898 1099.19
53.8083 765.389
53.8268 548.192
53.8453 406.482
53.8638 311.393
53.9009 198.174
53.9379 137.025
53.9749 100.644
54.0119 77.3612
54.0859 50.4277
54.1600 36.0286
54.2340 27.4228
54.3821 18.0413
54.5302 13.2854
54.6782 10.5570
54.9744 7.86097
55.2705 7.13516
55.4186 7.45330
55.5666 8.51728
55.7147 11.1211
55.7887 13.6705
55.8628 18.0069
55.9368 26.0818
55.9738 32.9357
56.0108 43.3811
56.0479 60.2802
56.0849 89.7036
56.1219 145.537
56.1404 192.007
56.1589 257.809
56.1742 329.115
56.1895 410.555
56.2200 512.310
56.2506 410.268
56.2811 257.419
56.3043 178.129
56.3275 127.102
56.3507 94.1090
56.3740 72.1302
56.4204 46.1580
56.4668 32.2454
56.5132 24.0210
56.5597 18.7878
56.6525 12.7799
56.7453 9.60917
56.8382 7.74678
57.0239 5.79737
57.2096 4.91798
57.3953 4.54455
57.7667 4.69500
58.1380 6.11628
58.3237 7.72398
58.5094 10.6673
58.6951 16.6816
58.7880 22.2910
58.8808 31.7308
58.9737 49.3850
59.0201 64.5564
59.0665 88.0565
59.1129 127.012
59.1594 197.425
59.1826 255.105
59.2058 339.005
59.2290 463.737
59.2522 648.908
59.2692 830.014
59.2861 1036.91
59.3200 1295.21
59.3370 1218.95
59.3539 1036.24
59.3878 648.102
59.4144 441.553
59.4410 310.449
59.4676 226.735
59.4942 171.531
59.5473 106.945
59.6005 72.6984
59.6537 52.5965
59.7069 39.8720
59.8132 25.3422
59.9196 17.7127
60.0259 13.2360
60.2386 8.50035
60.4513 6.23020
60.6640 5.03523
61.0894 4.16273
61.5148 4.63146
61.7275 5.54664
61.9402 7.40158
62.1529 11.4306
62.2593 15.3430
62.3656 22.1753
62.4720 35.6561
62.5251 47.9091
62.5783 68.0304
62.6315 104.359
62.6581 134.478
62.6847 179.446
62.7112 250.316
62.7378 369.352
62.7511 460.120
62.7644 583.672
62.7777 753.502
62.7910 985.100
62.8155 1575.06
62.8400 1967.90
62.8523 1851.90
62.8645 1574.07
62.8890 984.042
62.9149 590.795
62.9407 377.465
62.9665 257.439
62.9924 185.334
63.0182 139.277
63.0441 108.301
63.0957 70.7683
63.1544 47.7915
63.2131 34.5465
63.2719 26.2498
63.3306 20.7318
63.4480 14.1346
63.5654 10.6071
63.6828 8.74339
63.8002 8.26529
63.8589 8.84133
63.9176 10.7023
63.9470 12.6794
63.9763 16.1321
64.0057 22.4579
64.0350 34.3440
64.0625 52.1072
64.0900 63.9033
64.1175 51.8633
64.1450 33.8699
64.1762 21.1881
64.2075 14.5758
64.2387 10.9511
64.2699 8.80392
64.3324 6.52973
64.3949 5.43774
64.5198 4.57493
64.6447 4.55997
64.7696 5.35202
64.8321 6.27474
64.8946 7.90736
64.9570 10.9844
65.0195 17.5266
65.0507 23.8073
65.0819 34.5048
65.1132 54.1115
65.1444 91.6953
65.1722 145.630
65.2000 181.573
65.2278 145.513
65.2556 91.5112
65.2875 53.2818
65.3195 33.5983
65.3514 22.9397
65.3833 16.7027
65.4152 12.7863
65.4472 10.1837
65.5110 7.06016
65.5749 5.33263
65.6387 4.27746
65.7664 3.10481
65.8941 2.49876
66.0218 2.14477
66.2772 1.77590
66.7880 1.56983
67.2988 1.71652
67.8095 2.30534
68.0649 2.94976
68.3203 4.13931
68.5757 6.63057
68.7034 9.02411
68.8311 13.1904
68.9588 21.4045
69.0227 28.8736
69.0865 41.1523
69.1504 63.3618
69.1823 81.8151
69.2142 109.427
69.2461 153.071
69.2781 226.653
69.2940 282.957
69.3100 359.919
69.3259 466.149
69.3419 611.661
69.3564 782.917
69.3710 978.539
69.4000 1223.04
69.4145 1150.82
69.4291 977.987
69.4581 611.034
69.4874 374.841
69.5166 243.200
69.5458 167.554
69.5751 121.452
69.6043 91.6797
69.6336 71.5053
69.6921 46.8609
69.7505 33.0366
69.8090 24.5497
69.9260 15.1298
70.0430 10.3068
70.1599 7.51628
70.2769 5.75890
70.3939 4.58139
70.6278 3.15097
70.8618 2.34855
71.3297 1.52895
71.7975 1.14359
72.2654 0.937770
73.2012 0.761340
74.1370 0.752944
75.0728 0.931167
75.5406 1.18823
75.7746 1.42697
76.0085 1.83056
76.2425 2.61143
76.3595 3.32442
76.4764 4.52469
76.5934 6.81857
76.6519 8.86254
76.7104 12.1754
76.7689 18.0790
76.7981 22.9242
76.8273 30.1039
76.8566 41.3128
76.8858 59.9074
76.9151 92.8453
76.9443 153.307
76.9582 195.780
76.9722 244.275
77.0000 304.908
77.0279 244.324
77.0557 153.475
77.0772 105.714
77.0988 75.2384
77.1203 55.6880
77.1418 42.7717
77.1849 27.6830
77.2279 19.7685
77.2710 15.2491
77.3140 12.5436
77.4001 10.0292
77.4862 9.92618
77.5723 12.5601
77.6154 15.9456
77.6584 22.6168
77.6799 28.3895
77.7015 37.1517
77.7230 50.8575
77.7445 72.3569
77.7723 113.144
77.8000 140.344
77.8278 113.181
77.8555 72.4570
77.8832 46.4103
77.9110 31.8901
77.9387 23.5896
77.9664 18.5981
78.0219 13.4152
78.0774 11.2002
78.1883 10.3854
78.2993 12.3754
78.4102 17.8811
78.4657 23.1662
78.5211 31.9055
78.5766 47.5457
78.6321 79.0791
78.6598 107.941
78.6875 154.767
78.7014 189.322
78.7153 235.043
78.7291 295.936
78.7430 376.173
78.7573 480.994
78.7715 600.748
78.8000 750.289
78.8143 706.174
78.8285 600.441
78.8570 375.779
78.8750 275.512
78.8930 205.843
78.9290 123.650
78.9650 81.1436
79.0010 57.0299
79.0370 42.2312
79.0729 32.5639
79.1449 21.1930
79.2169 15.0593
79.2889 11.4117
79.4328 7.57560
79.5733 5.95716
79.7139 5.66178
79.7841 6.20259
79.8544 7.84320
79.8895 9.61064
79.9246 12.8227
79.9598 19.1483
79.9949 32.3957
80.0225 49.8395
80.0500 61.4780
80.0776 49.8294
80.1051 32.3883
80.1282 22.6352
80.1513 16.6604
80.1744 12.9717
80.1975 10.6176
80.2436 8.00905
80.2898 6.79059
80.3822 6.13784
80.4745 6.85131
80.5669 9.14670
80.6130 11.3752
80.6592 15.0211
80.7054 21.3898
80.7516 33.6651
80.7746 44.3532
80.7977 60.8196
80.8208 87.1302
80.8439 129.530
80.8720 206.265
80.9000 257.393
80.9281 206.156
80.9561 129.346
80.9810 84.3593
81.0059 57.4669
81.0307 41.1341
81.0556 30.7616
81.1054 19.0755
81.1551 13.0903
81.2049 9.65107
81.2546 7.50377
81.3542 5.08144
81.4537 3.82415
81.5532 3.09471
81.7522 2.34503
81.9512 2.02273
82.1503 1.90574
82.5483 2.05358
82.9464 2.77927
83.1454 3.56203
83.3444 4.97480
83.5434 7.84739
83.6429 10.5353
83.7425 15.0992
83.8420 23.7930
83.8917 31.4346
83.9415 43.5702
83.9912 64.4588
84.0410 104.517
84.0659 139.426
84.0908 193.377
84.1156 280.037
84.1405 420.672
84.1703 671.979
84.2000 839.573
84.2298 672.146
84.2595 420.942
84.2809 296.352
84.3023 214.187
84.3236 159.971
84.3450 123.297
84.3878 79.3731
84.4305 55.6734
84.4733 41.7743
84.5160 33.1813
84.6016 24.4335
84.6871 22.3942
84.7726 27.1734
84.8153 34.4067
84.8581 49.1471
84.8795 62.0180
84.9009 81.5697
84.9222 112.016
84.9436 159.421
84.9577 202.219
84.9718 251.147
85.0000 312.134
85.0282 250.422
85.0564 158.044
85.0775 110.719
85.0985 79.9379
85.1196 59.8446
85.1406 46.3471
85.1827 30.2074
85.2248 21.4222
85.2669 16.1414
85.3090 12.7203
85.3932 8.68065
85.4774 6.45137
85.5615 5.07343
85.7299 3.49883
85.8983 2.64643
86.0667 2.12354
86.4034 1.53258
86.7402 1.22279
87.0769 1.04497
87.7505 0.885319
88.4240 0.883806
89.0975 1.07262
89.4342 1.34449
89.6026 1.60035
89.7710 2.03906
89.9394 2.89989
90.0236 3.68982
90.1078 5.01390
90.1919 7.49924
90.2340 9.65503
90.2761 13.0337
90.3182 18.7411
90.3603 29.3721
90.3814 38.3606
90.4024 51.8318
90.4235 72.6490
90.4445 104.909
90.4723 167.132
90.5000 208.570
90.5278 167.114
90.5555 104.909
90.5850 63.1843
90.6145 40.6476
90.6440 28.0215
90.6735 20.4642
90.7031 15.6540
90.7326 12.4310
90.7916 8.55210
90.8506 6.42218
90.9096 5.14877
91.0276 3.81570
91.1457 3.23734
91.2637 3.02078
91.4998 3.21385
91.7358 4.21780
91.8539 5.23532
91.9719 6.95457
92.0899 10.1506
92.1489 12.9031
92.2079 17.2271
92.2670 24.6634
92.3260 39.2509
92.3555 52.5054
92.3850 74.1505
92.4145 111.995
92.4293 141.353
92.4440 180.829
92.4580 228.818
92.4720 283.633
92.5000 353.284
92.5280 289.228
92.5560 192.861
92.5794 141.491
92.6029 113.593
92.6263 101.419
92.6498 100.883
92.6732 111.340
92.6966 135.395
92.7201 179.722
92.7435 255.599
92.7576 320.602
92.7718 395.370
92.8000 488.437
92.8283 391.388
92.8565 247.121
92.8751 180.491
92.8936 134.759
92.9308 81.5500
92.9679 54.2773
93.0050 38.8213
93.0422 29.2935
93.0793 23.0286
93.1536 15.5723
93.2279 11.4857
93.3021 9.02626
93.4507 6.44253
93.5992 5.45007
93.7477 5.69938
93.8220 6.64666
93.8963 9.07423
93.9334 11.6225
93.9705 16.2746
94.0077 25.6241
94.0262 33.8200
94.0448 45.9122
94.0724 71.6652
94.1000 88.8307
94.1276 71.6092
94.1552 45.8150
94.1785 31.3064
94.2017 22.4098
94.2250 16.8937
94.2482 13.3384
94.2947 9.28437
94.3412 7.19959
94.4342 5.30424
94.5272 4.58809
94.7132 4.39950
94.8992 5.13488
95.0852 7.07793
95.1782 8.96462
95.2712 12.1780
95.3642 18.2715
95.4107 23.5979
95.4572 32.0172
95.5037 46.4193
95.5502 73.8261
95.5735 97.5277
95.5967 133.896
95.6083 159.410
95.6200 191.782
95.6316 232.965
95.6432 284.763
95.6574 363.552
95.6716 453.560
95.7000 566.036
95.7142 533.003
95.7284 453.692
95.7568 285.160
95.7813 188.463
95.8059 129.960
95.8304 94.1272
95.8550 71.2848
95.9040 45.5940
95.9531 32.6982
96.0022 25.6616
96.0513 21.7365
96.1494 19.0743
96.2476 21.5832
96.2966 25.3570
96.3457 32.1057
96.3948 44.4158
96.4439 68.7417
96.4684 90.2227
96.4929 123.668
96.5175 177.769
96.5420 266.171
96.5710 422.747
96.6000 527.140
96.6290 422.685
96.6580 265.837
96.6827 176.820
96.7073 122.472
96.7320 88.8791
96.7567 67.2676
96.8060 42.6269
96.8553 29.8998
96.9046 22.5845
96.9540 18.0540
97.0526 13.1039
97.1513 10.8047
97.2499 9.82111
97.4472 10.2070
97.6445 13.7780
97.7432 17.6873
97.8418 24.5956
97.9405 37.9625
97.9898 49.7250
98.0391 68.3137
98.0884 99.9672
98.1378 159.477
98.1624 210.220
98.1871 286.861
98.2117 406.366
98.2364 593.700
98.2682 949.078
98.3000 1186.13
98.3318 948.973
98.3636 593.429
98.3892 400.571
98.4147 279.609
98.4403 203.145
98.4659 153.097
98.5170 95.0194
98.5682 64.4485
98.6193 46.5870
98.6704 35.3146
98.7727 22.4867
98.8750 15.7781
98.9773 11.8655
99.1818 7.81107
99.3864 6.06490
99.5909 5.61827
99.6932 5.93358
99.7955 6.90494
99.8977 9.35975
99.9489 11.9009
100.000 16.5114
100.036 22.3260
100.072 32.6662
100.108 52.8692
100.126 70.1573
100.144 95.2072
100.172 150.550
100.200 187.450
100.228 150.512
100.256 95.1691
100.290 54.4635
100.324 34.2773
100.358 23.6661
100.392 17.5975
100.460 11.4496
100.528 8.67910
100.664 6.68341
100.800 6.71509
100.936 8.40495
101.004 10.2842
101.072 13.5564
101.140 19.6922
101.174 24.9047
101.208 32.8473
101.242 45.6841
101.276 68.0191
101.310 110.336
101.327 145.509
101.344 195.266
101.358 248.903
101.372 310.027
101.400 386.170
101.428 310.049
101.456 195.374
101.474 142.303
101.493 105.920
101.530 63.8878
101.566 42.5676
101.603 30.7684
101.640 23.7122
101.677 19.3218
101.750 14.8623
101.824 13.9664
101.897 16.7690
101.934 20.7268
101.971 28.3937
102.007 44.1608
102.026 57.9931
102.044 78.2055
102.072 122.527
102.100 152.137
102.128 122.113
102.156 77.3906
102.190 44.4230
102.224 28.1319
102.259 19.5012
102.293 14.5315
102.361 9.36531
102.429 6.89030
102.566 4.68247
102.702 3.78329
102.975 3.24600
103.249 3.50644
103.522 4.62854
103.658 5.81809
103.795 7.93423
103.931 12.1493
104.000 15.9999
104.068 22.3458
104.136 33.9107
104.170 43.6040
104.205 58.1786
104.239 81.5193
104.273 121.359
104.307 195.016
104.324 255.045
104.341 337.912
104.371 537.206
104.400 669.122
104.430 537.235
104.459 337.932
104.481 236.515
104.502 170.273
104.524 126.734
104.546 97.3631
104.589 62.2390
104.632 43.2247
104.675 31.9175
104.718 24.7425
104.805 16.5724
104.891 12.3850
104.978 10.0913
105.151 8.30406
105.323 8.93536
105.410 10.3461
105.496 13.0979
105.583 18.6137
105.626 23.4908
105.669 31.1815
105.712 44.1869
105.756 68.3500
105.777 88.6833
105.799 119.025
105.820 165.593
105.842 237.274
105.857 302.790
105.871 377.680
105.900 471.287
105.929 377.627
105.958 237.309
105.992 136.800
106.026 85.7030
106.060 58.3594
106.094 42.5673
106.127 32.7450
106.161 26.3238
106.229 18.9009
106.297 15.1560
106.365 13.2971
106.500 12.8032
106.636 16.0993
106.703 19.9907
106.771 26.8405
106.839 39.7535
106.873 50.7144
106.907 67.3054
106.940 94.0281
106.974 140.079
106.991 176.146
107.008 226.006
107.025 296.134
107.042 394.115
107.057 503.717
107.071 628.948
107.100 785.395
107.129 628.727
107.158 393.731
107.177 287.011
107.195 213.727
107.233 127.742
107.270 83.6483
107.307 58.8145
107.344 43.5701
107.382 33.6286
107.456 21.9484
107.531 15.6178
107.605 11.8245
107.754 7.70599
107.903 5.65517
108.052 4.51827
108.351 3.49807
108.649 3.42140
108.798 3.75074
108.947 4.51738
109.096 6.22321
109.170 7.85011
109.245 10.6020
109.320 15.7496
109.357 20.1552
109.394 26.9186
109.431 38.0515
109.469 57.8270
109.506 96.7713
109.524 130.193
109.543 178.791
109.557 228.324
109.572 284.385
109.600 354.471
109.629 284.321
109.657 178.703
109.678 124.835
109.699 89.6717
109.720 66.6773
109.741 51.2864
109.783 32.8756
109.826 22.9242
109.868 17.0023
109.910 13.2341
109.994 8.90391
110.078 6.62223
110.163 5.29208
110.331 3.91903
110.500 3.32042
110.668 3.08341
111.005 3.22975
111.342 4.20697
111.511 5.26310
111.679 7.15861
111.848 10.9990
111.932 14.5982
112.016 20.7246
112.100 32.4968
112.142 42.9238
112.185 59.6409
112.227 88.8988
112.248 112.377
112.269 146.162
112.290 197.382
112.311 278.065
112.332 412.577
112.353 638.931
112.377 1027.02
112.400 1288.77
112.424 1027.64
112.447 639.449
112.468 417.133
112.488 283.911
112.509 202.769
112.529 151.129
112.570 92.8800
112.611 63.0799
112.652 46.0443
112.693 35.5029
112.775 23.8867
112.857 18.2340
112.939 15.3924
113.103 14.1244
113.267 17.5890
113.349 22.0811
113.431 30.4102
113.472 37.2271
113.513 47.1946
113.554 62.4725
113.575 73.3197
113.595 87.4363
113.616 106.241
113.636 131.997
113.657 168.464
113.677 222.210
113.698 305.330
113.718 441.315
113.739 677.098
113.749 858.693
113.759 1097.53
113.780 1751.50
113.800 2185.23
113.821 1749.28
113.841 1095.58
113.861 678.781
113.882 444.600
113.902 308.066
113.922 224.666
113.942 170.281
113.963 133.461
114.003 88.1773
114.044 62.6810
114.084 46.9830
114.165 29.5166
114.246 20.5583
114.327 15.3783
114.489 9.97351
114.651 7.42818
114.813 6.12579
115.137 5.31148
115.461 6.18835
115.623 7.53159
115.785 10.1150
115.947 15.4646
116.028 20.4399
116.109 28.7426
116.190 44.0271
116.231 56.9368
116.271 76.5736
116.312 108.288
116.352 163.479
116.393 268.173
116.413 355.620
116.433 479.053
116.467 767.857
116.500 961.574
116.534 768.161
116.567 479.168
116.598 305.591
116.629 204.249
116.660 143.843
116.691 106.010
116.752 63.9662
116.814 42.7200
116.876 30.6300
116.938 23.1371
117.061 14.7658
117.185 10.4681
117.308 8.00920
117.556 5.56983
117.803 4.76175
118.050 5.34144
118.173 6.72868
118.235 8.11002
118.297 10.4536
118.359 14.7827
118.421 23.8686
118.451 32.5232
118.482 47.1697
118.513 73.7920
118.544 124.064
118.558 158.258
118.572 197.377
118.600 246.308
118.628 197.277
118.656 123.914
118.674 90.4387
118.692 67.4427
118.729 40.7541
118.765 27.1232
118.801 19.4481
118.838 14.7583
118.874 11.7015
118.947 8.10700
119.019 6.16123
119.092 4.99319
119.237 3.72534
119.527 2.75093
119.818 2.44649
120.399 2.49209
120.980 3.09521
121.560 4.57780
121.851 6.03968
122.141 8.60298
122.432 13.7149
122.577 18.4361
122.722 26.3655
122.867 41.2429
122.940 54.1215
123.013 74.2620
123.085 108.154
123.158 170.955
123.194 223.748
123.230 302.489
123.267 423.281
123.303 609.027
123.352 969.737
123.400 1209.76
123.449 967.379
123.498 604.552
123.551 360.303
123.604 230.299
123.656 158.147
123.709 115.588
123.762 88.9378
123.815 71.6561
123.920 52.8501
124.026 47.1135
124.131 54.8109
124.184 68.4923
124.237 98.3875
124.263 126.165
124.289 170.874
124.316 245.864
124.342 372.721
124.357 472.032
124.371 585.326
124.400 726.283
124.429 583.973
124.458 370.156
124.481 256.883
124.503 184.638
124.525 138.072
124.548 107.102
124.593 70.4513
124.637 50.8108
124.682 39.1232
124.727 31.6665
124.817 23.0838
124.906 18.6336
124.996 16.2260
125.175 14.7539
125.355 16.8480
125.444 19.7947
125.534 25.0953
125.624 34.9954
125.713 55.4524
125.758 74.6326
125.803 106.648
125.848 165.057
125.870 213.234
125.893 283.643
125.914 382.475
125.935 525.722
125.968 837.461
126.000 1044.31
126.033 836.524
126.065 524.727
126.104 297.288
126.143 183.058
126.181 122.099
126.220 86.9332
126.259 64.9937
126.298 50.5474
126.375 33.3223
126.453 23.8869
126.530 18.1749
126.685 11.9074
126.840 8.73210
126.995 6.91831
127.305 5.10444
127.615 4.44030
127.925 4.57277
128.080 5.12818
128.235 6.63396
128.313 8.39919
128.390 12.2392
128.429 16.1053
128.468 23.0949
128.506 37.2995
128.526 49.9367
128.545 68.7235
128.573 107.015
128.600 132.344
128.628 107.114
128.655 68.9405
128.689 40.2202
128.723 26.1638
128.757 18.8399
128.791 14.7221
128.859 10.6583
128.927 8.95675
129.063 8.06630
129.200 8.70178
129.336 10.6843
129.472 15.4170
129.540 20.5146
129.608 30.8589
129.642 40.7082
129.676 57.5597
129.710 89.1666
129.727 115.317
129.744 152.244
129.758 192.026
129.772 237.377
129.800 294.129
129.828 238.404
129.856 154.354
129.883 101.875
129.910 72.3103
129.937 55.2903
129.964 45.1847
130.018 35.1273
130.072 31.5764
130.180 33.0640
130.289 42.4930
130.397 63.3272
130.451 81.8847
130.505 110.876
130.559 159.271
130.613 246.812
130.640 318.856
130.667 423.296
130.694 578.440
130.721 808.444
130.761 1290.05
130.800 1608.99
130.840 1287.31
130.879 805.945
130.911 540.922
130.944 376.197
130.976 272.272
131.008 204.732
131.073 126.521
131.137 85.5011
131.202 61.5960
131.266 46.5322
131.395 29.4102
131.524 20.4657
131.653 15.2512
131.911 9.85654
132.169 7.58752
132.427 7.32615
132.556 8.37990
132.685 11.7053
132.750 15.7118
132.814 24.2362
132.846 32.4452
132.879 46.4107
132.911 72.1874
132.943 121.748
132.957 154.998
132.972 192.806
133.000 240.303
133.029 192.718
133.057 121.756
133.079 85.3172
133.100 61.8524
133.122 46.6899
133.143 36.6490
133.186 24.8110
133.229 18.6306
133.315 13.1922
133.401 11.8571
133.486 13.2269
133.529 15.2558
133.572 18.8453
133.615 25.3125
133.658 37.7389
133.680 48.4234
133.701 64.4906
133.723 89.5943
133.744 128.569
133.772 203.313
133.800 253.051
133.828 203.112
133.856 128.197
133.881 84.4538
133.905 58.2088
133.930 42.2233
133.955 32.0846
134.004 20.6112
134.053 14.7448
134.103 11.4111
134.152 9.38750
134.251 7.36179
134.349 6.93464
134.448 8.22811
134.497 10.1927
134.546 14.3661
134.571 18.1971
134.596 24.2862
134.620 34.4482
134.645 51.4757
134.673 80.2390
134.700 99.2710
134.728 80.0859
134.755 51.1794
134.778 34.7302
134.802 24.6193
134.825 18.3350
134.848 14.2848
134.895 9.60669
134.941 7.16004
135.034 4.81233
135.127 3.75902
135.314 2.86533
135.500 2.53151
135.872 2.44257
136.245 2.84058
136.617 3.98147
136.803 5.15934
136.989 7.27265
137.176 11.5597
137.269 15.5561
137.362 22.2943
137.455 34.9439
137.501 45.8797
137.548 62.8655
137.595 91.2791
137.618 113.062
137.641 143.089
137.664 186.088
137.688 248.998
137.711 344.155
137.734 486.959
137.767 781.486
137.800 978.416
137.833 780.177
137.866 485.857
137.905 275.517
137.944 169.478
137.982 112.788
138.021 79.8950
138.060 59.3890
138.098 45.8380
138.176 29.7032
138.253 20.8783
138.331 15.5525
138.485 9.74597
138.640 6.83888
138.795 5.20215
139.105 3.61315
139.414 3.12430
139.724 3.60098
139.879 4.63657
139.956 5.66941
140.033 7.44717
140.111 10.8093
140.150 13.7094
140.188 18.2050
140.227 25.6519
140.266 39.0904
140.304 66.0199
140.324 89.7358
140.343 124.658
140.357 159.273
140.372 198.552
140.400 247.777
140.429 198.433
140.457 124.564
140.485 78.1230
140.513 51.8379
140.540 36.4629
140.568 27.0324
140.624 16.7202
140.679 11.6281
140.735 8.81026
140.790 7.14181
140.901 5.55072
141.012 5.34936
141.123 6.74146
141.179 8.74050
141.234 13.0500
141.262 17.1205
141.290 23.8206
141.317 35.5619
141.345 56.5161
141.373 88.8204
141.400 110.175
141.428 88.7147
141.455 56.3131
141.487 32.9564
141.519 20.9797
141.551 14.4833
141.583 10.6937
141.647 6.72075
141.711 4.81176
141.774 3.74801
141.838 3.09515
141.966 2.36277
142.221 1.75793
142.477 1.52973
142.988 1.42460
143.499 1.55081
144.009 1.93575
144.265 2.31462
144.520 2.96748
144.776 4.25316
144.904 5.44256
145.031 7.46704
145.159 11.3856
145.223 14.9165
145.287 20.6811
145.351 31.0808
145.382 39.6892
145.414 52.5570
145.446 72.9481
145.478 107.236
145.510 169.326
145.526 219.007
145.542 286.642
145.571 457.456
145.600 571.470
145.629 457.668
145.658 286.879
145.677 209.712
145.695 156.647
145.732 94.4093
145.769 62.3645
145.806 44.3482
145.843 33.3310
145.880 26.2079
145.954 17.9492
146.028 13.6456
146.102 11.2634
146.251 9.36691
146.399 9.91205
146.473 11.2428
146.547 13.8240
146.621 18.9106
146.658 23.3211
146.695 30.1371
146.732 41.3780
146.769 61.3553
146.806 100.556
146.825 134.277
146.843 183.382
146.857 233.877
146.872 291.305
146.900 363.573
146.929 291.430
146.957 183.587
146.976 134.540
146.994 100.886
147.031 61.8329
147.068 42.0115
147.105 30.9771
147.179 20.0601
147.253 15.3367
147.401 12.2844
147.549 12.9605
147.696 16.8930
147.770 20.9670
147.844 27.9003
147.918 40.7747
147.955 51.6790
147.992 68.2460
148.029 95.1482
148.048 115.183
148.066 142.051
148.085 179.331
148.103 231.984
148.122 307.535
148.140 414.775
148.170 662.090
148.200 827.982
148.215 779.339
148.230 662.577
148.260 415.459
148.280 301.149
148.300 223.737
148.339 134.641
148.379 89.7813
148.419 64.8743
148.458 49.8804
148.498 40.3570
148.577 29.7212
148.656 24.7132
148.736 22.5741
148.894 23.3441
149.053 30.4064
149.132 37.7417
149.211 50.0233
149.251 59.3781
149.290 72.2188
149.330 90.5025
149.370 117.693
149.409 160.521
149.449 232.242
149.469 286.983
149.488 361.743
149.508 464.933
149.528 606.424
149.564 963.922
149.600 1203.88
149.636 967.278
149.672 614.932
149.701 426.476
149.730 310.558
149.759 239.299
149.787 195.034
149.845 151.951
149.903 144.716
149.960 167.083
150.018 233.497
150.047 297.628
150.075 400.562
150.104 570.303
150.133 851.368
150.167 1342.49
150.200 1667.30
150.234 1337.45
150.267 842.668
150.296 554.626
150.326 380.492
150.355 273.706
150.384 205.332
150.443 127.528
150.501 87.2090
150.560 63.7128
150.618 48.8878
150.736 31.8714
150.853 22.8373
150.970 17.4999
151.204 11.9487
151.438 9.85163
151.673 10.6562
151.790 13.2601
151.848 15.9063
151.907 20.3971
151.965 28.6130
152.024 45.4133
152.053 60.9754
152.083 86.4636
152.112 130.657
152.141 209.058
152.156 266.851
152.171 332.480
152.200 414.641
152.230 331.904
152.259 208.406
152.285 135.718
152.312 92.6202
152.338 66.4219
152.364 49.8784
152.417 31.2160
152.470 21.6521
152.523 16.1445
152.575 12.6915
152.681 8.76766
152.786 6.69776
152.891 5.47654
153.102 4.20979
153.313 3.75616
153.524 4.05490
153.629 4.80894
153.734 6.81652
153.787 9.09154
153.840 13.6908
153.866 17.8989
153.892 24.6694
153.919 36.1685
153.945 56.1106
153.973 88.0180
154.000 109.102
154.028 87.9712
154.055 56.0315
154.072 41.8605
154.089 31.9143
154.123 20.0583
154.158 13.8612
154.192 10.3287
154.260 6.71225
154.328 5.02128
154.465 3.56846
154.602 3.01573
154.875 2.76308
155.148 3.08729
155.421 4.14368
155.558 5.24268
155.695 7.20306
155.831 11.1297
155.900 14.7294
155.968 20.6891
156.036 31.5665
156.070 40.7003
156.104 54.4530
156.139 76.5158
156.173 114.266
156.190 143.726
156.207 184.629
156.224 242.131
156.241 321.916
156.256 412.565
156.271 515.708
156.300 645.410
156.330 515.565
156.359 321.756
156.392 186.768
156.426 116.685
156.459 78.5235
156.492 56.1088
156.526 42.0160
156.559 32.6459
156.625 21.4337
156.692 15.2534
156.759 11.5092
156.892 7.41357
157.025 5.35084
157.158 4.18145
157.424 3.00572
157.691 2.51005
157.957 2.33047
158.489 2.56600
158.877 3.36357
159.071 4.17661
159.265 5.60245
159.459 8.43307
159.556 11.0413
159.652 15.4274
159.749 23.7049
159.798 30.9399
159.846 42.3440
159.895 61.8723
159.943 98.8724
159.967 130.929
159.992 179.801
160.016 257.286
160.040 381.257
160.070 610.147
160.100 763.637
160.130 610.459
160.160 381.662
160.182 268.927
160.203 194.661
160.225 145.672
160.246 112.526
160.289 72.7775
160.332 51.2738
160.375 38.5045
160.418 30.4348
160.504 21.4446
160.590 17.1306
160.676 15.1463
160.848 15.1685
161.019 20.1336
161.105 25.7115
161.191 35.5095
161.277 54.1836
161.320 70.2955
161.363 95.1519
161.406 136.240
161.428 167.336
161.449 209.657
161.471 269.332
161.492 355.337
161.514 481.741
161.535 665.970
161.568 1065.12
161.600 1330.73
161.616 1251.30
161.633 1063.42
161.665 664.437
161.691 451.162
161.716 316.819
161.742 230.933
161.768 174.612
161.819 108.704
161.870 73.7914
161.922 53.3069
161.973 40.3313
162.075 25.4907
162.178 17.6655
162.281 13.0443
162.486 8.08578
162.691 5.61577
162.896 4.20995
163.306 2.75610
163.717 2.07268
164.127 1.71994
164.948 1.48289
165.768 1.66598
166.179 1.96954
166.589 2.56103
166.999 3.81403
167.204 5.02054
167.409 7.12968
167.615 11.3465
167.717 15.2555
167.820 21.8303
167.922 34.2012
167.974 44.9171
168.025 61.6681
168.076 89.8100
168.102 111.568
168.128 141.770
168.153 185.365
168.179 249.849
168.204 348.134
168.230 498.210
168.265 796.344
168.300 994.539
168.335 795.193
168.370 497.302
168.399 330.641
168.429 228.404
168.458 164.566
168.487 123.430
168.546 76.1906
168.604 51.6701
168.662 37.4562
168.721 28.5659
168.838 18.5950
168.955 13.5229
169.072 10.7166
169.306 8.32528
169.539 8.47124
169.656 9.57591
169.773 11.9074
169.890 16.8094
169.949 21.3110
170.007 28.6554
170.066 41.7593
170.124 68.1353
170.153 92.4366
170.183 131.937
170.212 200.103
170.241 321.006
170.271 510.844
170.300 637.401
170.330 511.142
170.359 321.387
170.390 196.056
170.420 127.512
170.451 88.7745
170.482 65.4788
170.543 40.7125
170.605 28.9287
170.666 22.7131
170.727 19.3606
170.850 17.3512
170.973 20.1478
171.034 24.0394
171.096 31.0258
171.157 44.1307
171.218 71.4409
171.249 97.0408
171.280 139.508
171.310 214.421
171.326 272.406
171.341 350.121
171.356 446.118
171.371 554.517
171.400 689.584
171.415 648.591
171.430 550.629
171.460 344.041
171.491 210.150
171.522 136.677
171.552 94.9477
171.583 69.7718
171.645 42.6110
171.706 29.3535
171.768 21.9886
171.829 17.5516
171.952 12.8505
172.075 10.7828
172.198 10.0186
172.445 10.9068
172.691 15.3569
172.814 20.0920
172.937 28.4509
173.060 44.7864
173.121 59.3281
173.183 82.6328
173.214 99.9117
173.245 123.218
173.275 155.589
173.306 201.946
173.337 271.488
173.368 379.790
173.398 556.758
173.429 847.590
173.465 1351.32
173.500 1683.58
173.536 1347.46
173.571 844.389
173.602 553.157
173.633 377.444
173.664 269.304
173.694 200.359
173.756 122.016
173.818 81.7122
173.879 58.4487
173.941 43.9251
174.064 27.5159
174.188 18.9922
174.311 14.0309
174.558 8.86613
174.804 6.58899
175.051 6.02738
175.174 6.66906
175.297 9.02268
175.359 11.9549
175.421 18.2294
175.452 24.2723
175.482 34.4946
175.513 53.0794
175.544 88.2823
175.572 139.604
175.600 173.802
175.628 139.437
175.656 88.0279
175.674 64.8737
175.692 48.9283
175.727 30.1345
175.763 20.4429
175.799 14.9451
175.835 11.5638
175.870 9.34608
175.942 6.71742
176.013 5.27272
176.084 4.39371
176.227 3.42531
176.513 2.70229
176.798 2.63760
177.084 3.13676
177.226 3.76248
177.369 4.93132
177.512 7.32713
177.583 9.54645
177.655 13.2347
177.726 20.0127
177.762 25.7229
177.797 34.3871
177.833 48.3328
177.869 72.4814
177.904 117.946
177.922 155.403
177.940 208.159
177.970 333.116
178.000 416.660
178.030 332.948
178.060 208.000
178.096 117.837
178.131 72.4964
178.167 48.3779
178.202 34.4358
178.238 25.7683
178.274 20.0537
178.345 13.2697
178.416 9.57631
178.487 7.36162
178.630 4.98664
178.772 3.85340
178.914 3.28818
179.199 3.03586
179.484 3.73449
179.626 4.65159
179.769 6.37026
179.911 9.88915
179.982 13.1410
180.053 18.5380
180.125 28.3953
180.160 36.6529
180.196 49.1082
180.231 68.9870
180.267 102.981
180.303 165.765
180.320 216.699
180.338 286.912
180.369 457.533
180.400 570.471
180.431 456.828
180.462 286.302
180.484 201.701
180.506 145.687
180.529 108.592
180.551 83.5046
180.595 53.1270
180.639 36.5752
180.684 26.6472
180.728 20.2879
180.817 12.9130
180.906 8.98006
180.994 6.64122
181.172 4.11580
181.349 2.84842
181.526 2.12060
181.881 1.35319
182.236 0.971925
182.591 0.751393
183.300 0.512795
183.300 54.8995
190.000 53.8242
199.526 52.2953
200.000 52.2192
250.000 45.9005
251.189 45.7904
300.000 41.2700
316.228 40.1099
350.000 37.6955
398.107 34.9409
400.000 34.8325
500.000 30.4924
501.187 30.4548
600.000 27.3238
630.957 26.5857
720.000 24.4629
794.328 23.1137
850.000 22.1032
1000.00 20.0004
1250.00 17.4181
1258.93 17.3513
1500.00 15.5461
1584.89 15.0486
1700.00 14.3740
1995.26 13.0009
2000.00 12.9788
2500.00 11.2766
2511.89 11.2475
3000.00 10.0517
3162.28 9.74984
3500.00 9.12156
3981.07 8.41529
4000.00 8.38750
4500.00 7.79133
5000.00 7.29615
5011.87 7.28620
5500.00 6.87741
6000.00 6.51804
6309.57 6.32472
6500.00 6.20580
7000.00 5.93165
7500.00 5.68875
7943.28 5.49646
8000.00 5.47186
8500.00 5.27683
9000.00 5.10039
9500.00 4.93989
10000.0 4.79317
12500.0 4.21317
12589.3 4.19850
15000.0 3.80234
15848.9 3.69477
17000.0 3.54892
19952.6 3.25516
20000.0 3.25045
25000.0 2.88911
25118.9 2.88292
30000.0 2.62885
31622.8 2.56409
35000.0 2.42932
39810.7 2.27561
40000.0 2.26956
45000.0 2.13755
50000.0 2.02586
50118.7 2.02357
55000.0 1.92960
60000.0 1.84544
60400.0 1.83916
60400.0 1.83935
60400.7 1.83934
60400.7 1.83934
63095.7 1.78528
65000.0 1.74708
70000.0 1.65169
79432.8 1.49335
80000.0 1.48383
87113.5 1.42352
87113.5 1.42352
90000.0 1.39905
100000 1.28596
105000 1.25117
105996 1.24390
105996 1.24389
108280 1.22721
108281 1.22721
118768 1.15059
118768 1.15059
120000 1.14159
121838 1.12265
121838 1.12264
130000 1.03852
147021 0.942871
147021 0.942871
150000 0.926131
170000 0.855078
200000 0.725439
215746 0.696948
215746 0.696947
231628 0.668209
231628 0.668209
250000 0.634966
253349 0.628906
253349 0.628906
268386 0.601697
268386 0.601697
270000 0.598777
270369 0.598109
284641 0.572285
284641 0.572284
288869 0.564635
288869 0.564634
300000 0.544493
320000 0.523546
323472 0.519910
323473 0.519909
328213 0.514944
328213 0.514944
350000 0.492126
352722 0.489276
352722 0.489275
370000 0.471179
370024 0.471155
370024 0.471154
394874 0.445128
394874 0.445127
396092 0.443852
396092 0.443852
400000 0.439759
420000 0.421835
426167 0.416308
426167 0.416308
426459 0.416046
426459 0.416046
430022 0.412853
430022 0.412853
450000 0.394948
453493 0.391818
453494 0.391817
454309 0.391086
454309 0.391086
456553 0.389075
456553 0.389075
457439 0.388281
457439 0.388281
467122 0.379603
467122 0.379603
470000 0.377024
483125 0.365261
483125 0.365260
489144 0.359866
489144 0.359866
491902 0.357395
500000 0.350137
520000 0.342713
537608 0.336177
537608 0.336177
550000 0.331577
556973 0.328989
563012 0.326747
570000 0.324153
585246 0.318494
585246 0.318494
595995 0.314504
595995 0.314504
600000 0.313017
614817 0.307517
614817 0.307517
618863 0.306016
618863 0.306015
620000 0.305593
650000 0.294458
670000 0.287034
700000 0.275898
800000 0.238778
900000 0.220451
1.00000E+06 0.201367
1.10000E+06 0.182282
1.20000E+06 0.163198
1.30000E+06 0.149189
1.40000E+06 0.135179
1.50000E+06 0.121170
1.60000E+06 0.114519
1.70000E+06 0.107867
1.80000E+06 0.0993655
1.90000E+06 0.0908640
2.00000E+06 0.0823625
2.20000E+06 0.0726747
2.40000E+06 0.0629870
2.50000E+06 0.0581431
2.60000E+06 0.0546125
2.80000E+06 0.0475514
3.00000E+06 0.0404903
3.50000E+06 0.0279475
4.00000E+06 0.0193609
4.50000E+06 0.0136489
5.00000E+06 0.00977125
5.50000E+06 0.00673327
5.55091E+06 0.00642396
6.00000E+06 0.00369529
6.47690E+06 0.00286195
6.47690E+06 0.00286195
6.50000E+06 0.00282158
7.00000E+06 0.00217791
7.50000E+06 0.00171035
7.67062E+06 0.00165831
7.80000E+06 0.00161884
8.00000E+06 0.00155784
8.50000E+06 0.00136841
9.00000E+06 0.00132570
9.50000E+06 0.00129710
1.00000E+07 0.00126850
1.05000E+07 0.00123990
1.10000E+07 0.00121130
1.15000E+07 0.00117465
1.20000E+07 0.00107504
1.25000E+07 0.00101220
1.30000E+07 0.000986813
1.40000E+07 0.000859036
1.41546E+07 0.000837361
1.50000E+07 0.000718802
1.54288E+07 0.000642670
1.54288E+07 0.000642669
1.60000E+07 0.000541256
1.70000E+07 0.000385845
1.80000E+07 0.000278648
1.90000E+07 0.000209397
1.91000E+07 0.000202472
2.00000E+07 0.000160318