Gd-152(n,tot) ENDF/B-VII.1
Energy(eV) XS(b)
1.00000E-05 37572.3
1.25893E-05 33519.2
1.58489E-05 29907.0
1.99526E-05 26687.6
2.00000E-05 26656.3
2.01600E-05 26551.5
2.03199E-05 26448.0
2.06399E-05 26244.6
2.12797E-05 25851.6
2.25595E-05 25116.3
2.51189E-05 23818.2
3.16228E-05 21260.9
3.98107E-05 18981.7
5.00000E-05 16970.1
5.01187E-05 16950.3
5.05242E-05 16883.4
5.09298E-05 16817.2
5.17408E-05 16687.3
5.33630E-05 16436.3
5.66072E-05 15967.2
6.30957E-05 15139.9
7.94328E-05 13526.3
0.000100000 12088.2
0.000125893 10806.4
0.000158489 9664.11
0.000199526 8645.97
0.000200000 8636.07
0.000201600 8602.94
0.000203199 8570.20
0.000206399 8505.87
0.000212797 8381.58
0.000225595 8149.07
0.000251189 7738.53
0.000316228 6929.77
0.000398107 6208.94
0.000500000 5572.72
0.000501187 5566.48
0.000505242 5545.30
0.000509298 5524.38
0.000517408 5483.28
0.000533630 5403.91
0.000566072 5255.52
0.000630957 4993.86
0.000794328 4483.48
0.00100000 4028.57
0.00126000 3621.68
0.00158000 3266.26
0.00200000 2936.39
0.00251000 2653.22
0.00316000 2397.07
0.00398000 2168.32
0.00500000 1966.53
0.00501000 1964.86
0.00505063 1958.13
0.00509125 1951.49
0.00517250 1938.44
0.00533500 1913.23
0.00566000 1866.11
0.00631000 1783.01
0.00794000 1621.47
0.0100000 1476.80
0.0125900 1347.90
0.0158500 1232.87
0.0199500 1130.20
0.0200000 1129.15
0.0201600 1125.80
0.0203200 1122.49
0.0206400 1115.98
0.0212800 1103.41
0.0225600 1079.88
0.0251200 1038.29
0.0253000 1035.60
0.0256950 1029.80
0.0260900 1024.13
0.0268800 1013.17
0.0284600 992.611
0.0316200 956.162
0.0398100 882.529
0.0500000 817.119
0.0501200 816.467
0.0505256 814.280
0.0509313 812.119
0.0517425 807.872
0.0533650 799.661
0.0566100 784.282
0.0631000 757.060
0.0794300 703.514
0.100000 655.007
0.125890 610.888
0.158490 570.490
0.199530 533.221
0.200000 532.854
0.201600 531.615
0.203199 530.388
0.206399 527.972
0.212798 523.283
0.225595 514.431
0.251190 498.515
0.316230 465.829
0.398110 434.661
0.500000 404.851
0.501190 404.544
0.505245 403.503
0.509301 402.472
0.517411 400.436
0.533633 396.465
0.566075 388.898
0.630960 375.054
0.794330 345.831
1.00000 316.597
1.25893 287.190
1.58489 257.589
1.99526 227.932
2.00000 227.627
2.01600 226.603
2.03199 225.588
2.06399 223.582
2.12797 219.667
2.25595 212.196
2.51189 198.533
3.16228 169.851
3.98107 142.445
5.00000 117.134
5.01187 116.881
5.05242 116.026
5.09298 115.181
5.17408 113.519
5.33630 110.304
5.66072 104.280
6.30957 93.6375
7.94328 72.9761
8.97164 63.0989
10.0000 54.9947
10.5801 51.4084
10.8701 50.2217
11.1601 50.0668
11.4501 52.7116
11.5951 56.8086
11.7402 65.6870
11.8127 73.8223
11.8852 86.7833
11.9577 108.644
12.0302 148.681
12.1027 231.744
12.1389 310.135
12.1571 367.183
12.1661 402.245
12.1752 442.883
12.1843 490.365
12.1933 546.138
12.2024 612.340
12.2115 691.468
12.2205 787.219
12.2296 904.139
12.2386 1048.86
12.2477 1230.52
12.2568 1462.47
12.2658 1763.21
12.2749 2161.26
12.2840 2699.50
12.2930 3444.82
12.3021 4496.92
12.3111 6005.86
12.3202 8159.59
12.3351 13197.6
12.3500 16692.8
12.3575 15814.1
12.3649 13537.4
12.3798 8591.39
12.3929 5673.34
12.4060 3906.01
12.4191 2820.05
12.4322 2123.59
12.4584 1329.78
12.4845 917.418
12.5107 677.608
12.5369 526.164
12.5893 352.694
12.6402 262.411
12.6911 207.850
12.7930 147.476
12.8949 116.125
12.9967 97.4912
13.0986 85.3453
13.2004 76.8792
13.4042 65.9174
13.6079 59.1209
13.8116 54.4480
14.2191 48.2802
15.0340 41.1671
15.8489 36.6569
17.9008 29.1268
19.9526 23.8429
20.0000 23.7360
20.1600 23.3788
20.3199 23.0277
20.6399 22.3421
21.2797 21.0324
22.5594 18.6181
25.1189 14.3771
28.3708 9.71467
29.9968 7.73192
31.6228 6.51638
32.2686 6.62917
32.5915 6.95498
32.7529 7.21620
32.9143 7.56017
32.9951 7.76831
33.0758 8.00369
33.1162 8.13245
33.1565 8.26908
33.1969 8.41615
33.2372 8.57475
33.2776 8.73859
33.3180 8.90784
33.3583 9.08495
33.3987 9.27795
33.4390 9.48214
33.4794 9.69811
33.5601 10.1680
33.6409 10.6932
33.7216 11.2801
33.8830 12.6690
34.0445 14.4066
34.2059 16.5880
34.3673 19.3418
34.5288 22.8438
34.6902 27.3407
34.8517 33.1840
35.0131 40.8913
35.1746 51.2435
35.3360 65.4681
35.4975 85.5697
35.6589 115.012
35.8203 160.165
35.9818 233.805
36.1432 364.551
36.2240 471.045
36.3047 627.635
36.3854 870.457
36.4661 1274.41
36.5468 2014.78
36.5872 2636.66
36.6276 3576.28
36.6679 5078.05
36.7083 7648.48
36.7486 12397.6
36.7890 21607.4
36.8245 34809.8
36.8600 43856.4
36.8955 35359.1
36.9310 22242.5
36.9673 13627.3
37.0036 8841.41
37.0399 6099.13
37.0761 4428.97
37.1124 3350.65
37.1487 2619.01
37.2213 1723.25
37.2938 1218.62
37.3664 907.204
37.5115 558.739
37.6566 378.119
37.8018 272.434
37.9469 205.483
38.0920 161.074
38.3823 113.710
38.5274 108.312
38.5999 111.945
38.6725 121.992
38.7088 130.386
38.7269 135.677
38.7451 141.828
38.7541 145.263
38.7632 148.961
38.7723 152.939
38.7814 157.218
38.7904 161.821
38.7995 166.771
38.8086 172.096
38.8176 177.825
38.8358 190.626
38.8539 205.476
38.8721 222.741
38.8902 242.872
38.9265 294.117
38.9628 365.667
38.9990 468.126
39.0353 619.622
39.0716 853.364
39.1079 1234.58
39.1442 1903.92
39.1623 2437.95
39.1804 3201.77
39.1986 4332.12
39.2167 6066.77
39.2349 8815.26
39.2530 13197.5
39.2765 21758.8
39.3000 27879.2
39.3235 22863.7
39.3470 14729.1
39.3615 11081.9
39.3760 8487.78
39.4050 5335.61
39.4340 3645.99
39.4629 2658.26
39.4919 2035.65
39.5209 1619.09
39.5789 1112.88
39.6368 827.177
39.6948 649.010
39.8107 445.046
39.9011 354.590
39.9914 293.851
40.1720 218.478
40.3527 174.091
40.5333 145.028
40.8946 109.351
41.2559 88.2214
41.6172 74.2262
41.9784 64.7866
42.1591 62.2205
42.2494 62.1900
42.3397 64.1459
42.4300 71.0030
42.4752 78.8547
42.5204 93.6008
42.5655 123.956
42.5881 151.807
42.6107 197.115
42.6333 276.467
42.6558 429.974
42.6671 563.499
42.6728 654.649
42.6784 768.311
42.6841 911.681
42.6897 1092.86
42.6954 1322.75
42.7010 1610.84
42.7083 2075.03
42.7155 2615.18
42.7300 3342.42
42.7373 3189.89
42.7446 2754.10
42.7591 1784.85
42.7733 1159.34
42.7874 796.870
42.8015 581.765
42.8157 447.046
42.8440 296.414
42.8722 219.166
42.9005 174.295
42.9288 145.833
42.9854 112.773
43.0420 94.7099
43.0985 83.5356
43.2117 70.5632
43.3248 63.2188
43.4379 58.3969
43.6642 52.1998
44.1168 45.1219
44.5693 40.6651
45.4744 34.7292
46.3796 30.6824
48.1898 25.2494
50.0000 21.6379
50.1187 21.4404
50.5243 20.7938
50.9298 20.1873
51.7409 19.0772
53.3630 17.1805
56.6072 14.2252
59.8515 11.8875
63.0957 9.81416
65.8931 8.03216
67.2917 7.08467
68.6904 6.08132
70.0890 5.09601
70.7884 4.74913
71.4877 4.82131
71.8374 5.26255
72.0122 5.68531
72.1870 6.31898
72.2744 6.74258
72.3182 6.98753
72.3619 7.25763
72.4056 7.55554
72.4493 7.88424
72.4930 8.24709
72.5367 8.64782
72.5804 9.09093
72.6241 9.58125
72.6678 10.1244
72.7115 10.7267
72.7989 12.1400
72.8864 13.8946
72.9738 16.0907
73.0612 18.8650
73.1486 22.4091
73.2360 26.9964
73.3234 33.0299
73.4109 41.1151
73.4983 52.2031
73.5857 67.8369
73.6731 90.6672
73.7605 125.509
73.8479 181.867
73.9353 280.475
73.9791 359.462
74.0228 473.594
74.0665 646.215
74.1102 922.943
74.1539 1402.22
74.1976 2322.18
74.2195 3120.30
74.2413 4343.82
74.2632 6285.59
74.2850 9392.22
74.3125 15257.6
74.3400 19359.6
74.3675 15720.9
74.3950 9975.28
74.4147 7092.45
74.4344 5170.39
74.4540 3889.51
74.4737 3014.82
74.5131 1952.70
74.5524 1366.44
74.5918 1011.98
74.6312 782.131
74.7099 512.293
74.7886 365.668
74.8673 276.944
74.9460 218.976
75.0247 178.896
75.1822 128.260
75.3396 98.4295
75.4970 79.2148
75.6545 66.0148
75.9693 49.3607
76.2842 39.4835
76.5991 33.0403
76.9139 28.5417
77.5436 22.7084
78.1734 19.0936
79.4328 14.7902
80.9548 11.7744
82.4768 9.70589
83.2378 8.85379
83.9987 8.15321
84.3792 7.99097
84.5695 8.07129
84.7597 8.44014
84.9500 9.57339
85.0451 10.8703
85.1402 13.3775
85.2353 18.8496
85.2829 24.2180
85.3305 33.6286
85.3780 52.0881
85.4018 68.6153
85.4137 80.2191
85.4196 87.2094
85.4256 95.1671
85.4315 104.305
85.4375 114.821
85.4434 127.040
85.4494 141.283
85.4553 158.060
85.4613 177.908
85.4731 230.252
85.4850 307.852
85.4969 427.557
85.5088 619.015
85.5207 928.169
85.5354 1501.49
85.5500 1901.09
85.5573 1801.80
85.5647 1543.09
85.5793 979.992
85.5925 642.206
85.6056 439.778
85.6188 316.565
85.6319 238.098
85.6583 149.263
85.6846 103.397
85.7109 76.8201
85.7372 60.0733
85.7899 40.9230
85.8425 30.7555
85.8951 24.6796
86.0004 18.0158
86.1057 14.5712
86.2110 12.5203
86.4215 10.2291
86.6321 8.98191
86.8426 8.18574
87.2637 7.19511
88.1059 6.19857
88.9482 6.08856
89.3693 6.58583
89.7904 7.84961
89.8957 8.36001
90.0009 8.98080
90.0536 9.33978
90.1062 9.73569
90.1589 10.1725
90.2115 10.6546
90.2641 11.1872
90.3168 11.7760
90.3694 12.4277
90.4220 13.1495
90.5273 14.8400
90.6326 16.9334
90.7379 19.5459
90.8431 22.8354
90.9484 27.0228
91.0537 32.4214
91.1590 39.4905
91.2642 48.9162
91.3695 61.7668
91.4748 79.7613
91.5801 105.817
91.6854 145.162
91.7906 207.903
91.8959 315.520
91.9485 400.066
92.0012 520.018
92.0538 697.154
92.1065 972.061
92.1591 1426.66
92.2117 2240.57
92.2381 2898.46
92.2644 3841.72
92.2907 5218.11
92.3170 7219.23
92.3585 11764.4
92.4000 14966.3
92.4415 12185.1
92.4830 7755.98
92.5124 5547.90
92.5417 4066.69
92.5711 3073.59
92.6005 2392.39
92.6592 1560.58
92.7179 1098.79
92.7766 818.255
92.8354 635.654
92.9528 420.332
93.0703 302.711
93.1877 231.206
93.3052 184.299
93.4226 151.738
93.6575 110.397
93.8924 85.8818
94.1274 69.9958
94.3623 59.0226
94.8321 45.0780
95.3019 36.7327
95.7717 31.2462
96.2415 27.3901
97.1811 22.3535
98.1208 19.2132
99.0604 17.0597
100.000 15.4803
101.618 13.5384
103.237 12.1642
106.473 10.2734
109.710 8.95360
112.946 7.91224
119.419 6.19291
122.656 5.38630
125.893 4.54727
129.397 3.53810
131.150 2.97721
132.902 2.39963
133.778 2.13914
134.654 1.95932
135.530 1.99621
135.968 2.19438
136.078 2.27542
136.187 2.37283
136.297 2.48906
136.406 2.62710
136.516 2.79009
136.626 2.98214
136.735 3.20798
136.845 3.47328
136.954 3.78515
137.064 4.15122
137.283 5.08880
137.502 6.39699
137.721 8.24435
137.940 10.9028
138.159 14.8252
138.378 20.8115
138.597 30.3537
138.816 46.5248
138.925 58.9907
139.035 76.3305
139.145 101.297
139.254 138.719
139.364 197.979
139.473 298.858
139.583 488.778
139.637 652.139
139.692 903.406
139.747 1315.69
139.802 2042.87
139.856 3449.15
139.884 4636.96
139.911 6332.38
139.956 10272.7
140.000 13052.8
140.045 10615.6
140.090 6726.50
140.126 4596.34
140.162 3249.66
140.198 2387.84
140.234 1820.46
140.306 1153.51
140.378 797.513
140.449 586.266
140.521 451.135
140.665 294.479
140.809 210.158
140.953 159.431
141.096 126.358
141.240 103.528
141.528 74.6766
141.815 57.6495
142.103 46.6517
142.390 39.0721
142.965 29.4612
143.540 23.7199
144.115 19.9485
144.690 17.2982
145.840 13.8307
146.990 11.6583
148.140 10.1554
149.290 9.03884
151.590 7.44351
153.890 6.29403
156.189 5.35370
157.339 4.92058
157.914 4.71343
158.489 4.53444
158.860 4.48433
159.045 4.52495
159.230 4.68707
159.416 5.17757
159.508 5.73970
159.601 6.83073
159.693 9.22305
159.740 11.5781
159.786 15.7153
159.832 23.8440
159.855 31.1454
159.879 42.8223
159.890 51.4966
159.902 63.1748
159.908 70.5707
159.913 79.3328
159.919 89.7986
159.925 102.170
159.931 117.452
159.936 136.214
159.942 159.477
159.948 188.599
159.954 225.369
159.960 272.071
159.965 331.430
159.971 404.735
159.978 522.072
159.986 655.620
160.000 829.795
160.007 786.664
160.015 674.709
160.029 429.314
160.042 278.803
160.056 189.893
160.069 136.392
160.083 102.597
160.109 64.6198
160.136 45.1342
160.163 33.8797
160.190 26.7996
160.243 18.7199
160.297 14.4185
160.351 11.8455
160.404 10.1730
160.458 9.01917
160.565 7.55180
160.672 6.67600
160.886 5.69299
161.100 5.15393
161.315 4.80644
161.743 4.36199
162.600 3.82901
163.457 3.44330
165.171 2.78100
166.886 2.14186
168.600 1.51274
169.457 1.25358
170.314 1.16482
170.528 1.20472
170.742 1.28955
170.850 1.35421
170.957 1.43827
171.064 1.54281
171.171 1.67490
171.278 1.83939
171.385 2.04290
171.492 2.29429
171.599 2.60462
171.707 2.98852
171.814 3.46373
172.028 4.79415
172.242 6.90986
172.457 10.4094
172.671 16.5466
172.778 21.3976
172.885 28.2734
172.992 38.3821
173.099 53.9040
173.206 79.2228
173.314 124.039
173.367 160.372
173.421 213.439
173.474 294.840
173.528 427.601
173.581 664.357
173.608 857.108
173.635 1137.89
173.662 1568.44
173.689 2260.37
173.715 3429.09
173.742 5436.87
173.771 8830.83
173.800 11251.2
173.829 9173.72
173.858 5818.95
173.881 3985.01
173.904 2816.85
173.927 2069.30
173.950 1575.00
173.996 994.504
174.042 684.401
174.088 500.904
174.134 383.687
174.226 248.049
174.318 175.365
174.410 131.770
174.502 103.469
174.594 84.0056
174.778 59.5029
174.962 45.1304
175.146 35.8974
175.330 29.5668
175.698 21.5786
176.066 16.8339
176.802 11.5401
177.537 8.66581
178.273 6.83451
179.745 4.53641
181.217 3.08574
181.953 2.61801
182.689 2.49684
183.057 2.72114
183.241 2.96827
183.333 3.14049
183.424 3.35320
183.516 3.61491
183.608 3.93546
183.700 4.32744
183.792 4.80680
183.884 5.39392
183.976 6.11517
184.068 7.00501
184.160 8.10783
184.252 9.48748
184.344 11.2270
184.436 13.4437
184.528 16.3048
184.620 20.0542
184.712 25.0589
184.804 31.8886
184.896 41.4531
184.988 55.3361
185.080 76.3464
185.172 109.956
185.264 167.804
185.310 213.501
185.356 278.637
185.402 375.419
185.448 526.931
185.494 780.479
185.540 1242.65
185.563 1622.98
185.586 2177.40
185.609 3002.78
185.632 4223.31
185.666 6848.78
185.700 8709.63
185.735 7090.03
185.769 4491.14
185.796 3096.70
185.823 2203.21
185.850 1627.85
185.877 1246.48
185.930 793.786
185.984 550.616
186.038 405.614
186.092 312.723
186.199 204.511
186.307 146.135
186.414 110.918
186.522 87.9369
186.629 72.0537
186.844 51.9324
187.059 40.0342
187.274 32.3256
187.489 27.0002
187.919 20.2140
188.349 16.1279
188.778 13.4179
189.208 11.4917
190.068 8.92390
190.928 7.26501
192.648 5.16127
194.367 3.78317
196.087 2.74432
197.807 1.97407
198.666 1.77212
199.096 1.77209
199.526 1.89462
199.645 1.95990
199.763 2.04302
199.882 2.14722
200.000 2.27608
200.095 2.40033
200.189 2.54447
200.283 2.71412
200.378 2.91214
200.472 3.14362
200.567 3.41366
200.756 4.09872
200.944 5.04242
201.133 6.35849
201.322 8.22793
201.511 10.9491
201.700 15.0487
201.889 21.5035
202.078 32.3006
202.267 51.9487
202.361 68.2616
202.455 92.5511
202.550 130.808
202.644 195.418
202.739 316.276
202.786 419.396
202.833 577.484
202.880 834.827
202.928 1286.20
202.975 2149.28
202.998 2872.42
203.022 3903.68
203.061 6338.92
203.100 8075.25
203.139 6583.32
203.178 4174.76
203.213 2721.66
203.248 1851.66
203.283 1322.98
203.318 986.833
203.389 606.977
203.459 411.264
203.529 298.047
203.599 226.810
203.740 145.542
203.880 102.475
204.020 76.8201
204.161 60.2297
204.301 48.8393
204.582 34.5134
204.863 26.0950
205.143 20.6588
205.424 16.9053
205.986 12.1146
206.547 9.28253
206.828 8.42928
206.968 8.23520
207.109 8.37902
207.249 9.35250
207.319 10.6054
207.389 13.0925
207.459 18.5305
207.495 23.7870
207.530 32.7914
207.547 39.8564
207.556 44.3953
207.565 49.7663
207.574 56.3327
207.582 64.3642
207.591 74.3076
207.600 86.6269
207.609 102.479
207.617 123.015
207.626 150.115
207.635 186.123
207.644 236.104
207.652 305.213
207.661 404.259
207.670 542.191
207.678 700.886
207.685 882.239
207.700 1122.00
207.708 1066.33
207.715 916.784
207.730 586.206
207.745 369.903
207.760 247.669
207.775 175.758
207.790 131.562
207.806 102.447
207.821 82.5961
207.851 57.8980
207.881 43.6668
207.911 34.7575
207.971 24.5305
208.031 19.0500
208.091 15.7266
208.211 11.9813
208.331 9.95117
208.452 8.67725
208.692 7.13340
209.173 5.52357
209.654 4.58513
210.616 3.38533
211.577 2.58308
212.539 2.00105
213.501 1.59037
214.462 1.35491
214.943 1.31622
215.184 1.32099
215.424 1.34423
215.665 1.38880
215.905 1.45567
216.146 1.54985
216.386 1.67463
216.626 1.83481
216.867 2.03600
217.107 2.28518
217.348 2.59084
217.829 3.41610
218.309 4.62983
218.790 6.42026
219.271 9.09961
219.752 13.2169
220.233 19.7971
220.714 30.9305
221.195 51.3939
221.435 68.4841
221.676 94.0769
221.916 134.583
222.156 203.610
222.397 334.175
222.517 447.011
222.637 622.188
222.757 912.447
222.878 1435.01
222.938 1860.40
222.998 2474.90
223.058 3380.53
223.118 4713.66
223.209 7638.23
223.300 9739.02
223.392 7946.97
223.483 5027.04
223.545 3632.55
223.606 2682.20
223.667 2034.92
223.729 1586.65
223.852 1033.11
223.975 723.262
224.097 534.080
224.220 410.820
224.466 265.393
224.712 186.122
224.957 138.125
225.449 85.0700
225.940 57.6422
226.432 41.4341
226.923 30.9234
227.415 23.6262
228.397 14.2502
228.889 11.1479
229.380 8.89113
229.872 7.83646
230.118 8.24588
230.240 8.93281
230.302 9.46521
230.363 10.1671
230.394 10.5969
230.425 11.0865
230.455 11.6455
230.486 12.2840
230.517 13.0137
230.548 13.8487
230.578 14.8058
230.609 15.9053
230.670 18.6398
230.732 22.3138
230.793 27.3478
230.855 34.4096
230.916 44.6398
230.978 60.0000
231.039 84.3050
231.100 125.500
231.131 157.597
231.162 202.509
231.193 267.895
231.223 367.508
231.254 528.032
231.285 805.086
231.315 1321.52
231.331 1745.19
231.346 2333.44
231.373 3804.92
231.400 4857.33
231.427 3968.66
231.454 2528.01
231.479 1639.88
231.504 1114.70
231.529 797.193
231.553 595.923
231.603 368.874
231.653 251.869
231.702 183.939
231.752 141.169
231.851 92.0819
231.950 65.8345
232.050 50.0595
232.248 32.5841
232.446 23.4347
232.645 17.9468
233.042 11.8665
233.439 8.80789
233.637 7.90922
233.836 7.32961
234.034 7.04090
234.133 7.00434
234.233 7.04167
234.332 7.15632
234.431 7.35276
234.530 7.63730
234.630 8.01781
234.729 8.50463
234.828 9.10872
234.927 9.84582
235.027 10.7320
235.225 13.0437
235.423 16.2705
235.622 20.7535
235.820 27.0030
236.019 35.8149
236.217 48.4654
236.416 67.1286
236.614 95.6453
236.813 141.337
237.011 219.356
237.210 365.144
237.309 488.379
237.408 674.435
237.507 970.001
237.607 1466.90
237.706 2356.41
237.805 4003.23
237.903 6624.75
238.000 8530.59
238.098 7022.24
238.195 4526.80
238.297 2824.50
238.398 1871.36
238.500 1320.20
238.601 981.096
238.703 759.789
238.804 607.951
239.007 419.037
239.210 310.132
239.413 241.428
239.819 162.134
240.225 119.218
240.631 93.0045
241.037 75.5848
241.443 63.2823
242.256 47.1692
243.068 37.1076
243.880 30.1790
244.692 25.0386
246.316 17.6025
247.940 11.9215
248.752 9.35155
249.564 7.01691
249.971 6.14600
250.377 5.89888
250.580 6.29194
250.681 6.71858
250.732 7.01103
250.783 7.36643
250.833 7.79638
250.884 8.31129
250.935 8.92766
250.986 9.66041
251.036 10.5334
251.087 11.5686
251.138 12.8011
251.189 14.2644
251.259 16.7610
251.329 19.9588
251.399 24.0849
251.469 29.4596
251.539 36.5452
251.609 46.0261
251.679 58.9452
251.749 76.9180
251.819 102.697
251.890 140.928
251.960 200.170
252.030 297.327
252.100 469.065
252.135 607.077
252.170 804.780
252.205 1099.68
252.240 1553.54
252.275 2277.08
252.310 3439.10
252.355 5711.12
252.400 7373.19
252.445 6089.30
252.490 3944.24
252.519 2928.42
252.549 2220.25
252.607 1377.86
252.666 935.839
252.725 680.778
252.783 521.099
252.842 414.959
252.959 286.460
253.076 214.073
253.194 169.000
253.428 117.382
253.663 89.5381
253.897 72.4951
254.132 61.1305
254.366 53.0720
254.835 42.4595
255.304 35.8109
256.242 27.9110
257.180 23.3087
258.118 20.2296
259.993 16.2231
261.869 13.5871
263.745 11.6103
267.497 8.58798
271.248 6.06918
273.124 4.85142
275.000 3.62141
276.876 2.42241
277.814 1.92924
278.283 1.76740
278.751 1.72164
278.986 1.76897
279.220 1.88619
279.338 1.97898
279.455 2.10002
279.572 2.25466
279.689 2.44939
279.807 2.69245
279.924 2.99334
280.041 3.36501
280.158 3.82255
280.393 5.08259
280.627 7.01575
280.862 10.0521
281.096 14.9972
281.331 23.5009
281.448 30.1083
281.565 39.3375
281.682 52.6687
281.800 72.6992
281.917 104.500
282.034 158.623
282.151 260.550
282.210 347.930
282.269 482.298
282.327 701.665
282.386 1087.48
282.444 1827.16
282.474 2448.11
282.503 3335.17
282.552 5443.32
282.600 6974.27
282.649 5717.93
282.697 3642.98
282.738 2443.56
282.779 1700.23
282.820 1235.54
282.861 933.642
282.943 585.022
283.025 401.695
283.107 293.928
283.189 225.389
283.353 146.295
283.517 103.848
283.681 78.3113
284.009 50.0898
284.336 35.3939
284.664 26.6098
285.320 16.7867
285.976 11.4693
286.632 8.13683
287.287 5.88504
287.943 4.38079
288.271 3.88779
288.599 3.58890
288.763 3.52400
288.927 3.52493
289.091 3.60126
289.255 3.76522
289.337 3.88485
289.419 4.03253
289.501 4.21087
289.582 4.42252
289.664 4.67128
289.746 4.96065
289.910 5.67820
290.074 6.61711
290.238 7.82942
290.402 9.38525
290.566 11.3768
290.894 17.2083
291.222 26.9811
291.550 44.0421
291.714 57.3391
291.878 75.8566
292.042 102.382
292.205 141.659
292.369 202.494
292.533 302.075
292.697 477.932
292.779 618.842
292.861 820.769
292.943 1120.99
293.025 1582.91
293.107 2318.91
293.189 3496.77
293.295 5797.68
293.400 7478.48
293.506 6170.91
293.612 3989.01
293.686 2900.72
293.760 2160.49
293.834 1656.86
293.907 1307.59
294.055 874.487
294.203 629.675
294.351 478.677
294.498 379.028
294.794 259.453
295.089 192.610
295.384 151.130
295.975 103.753
296.566 78.1932
297.156 62.5049
297.747 51.9814
298.338 44.4427
299.519 34.2525
300.701 27.3055
301.291 24.3097
301.587 22.8175
301.882 21.2912
302.178 19.7703
302.325 19.1229
302.473 18.8205
302.621 19.6971
302.694 21.4178
302.768 25.4056
302.842 35.1239
302.879 45.0488
302.898 52.5219
302.907 57.1541
302.916 62.5631
302.925 68.9912
302.934 76.5148
302.944 85.4714
302.953 96.2166
302.962 109.374
302.971 125.289
302.981 144.933
302.990 169.458
302.999 200.846
303.008 240.706
303.017 292.578
303.027 361.142
303.036 454.353
303.045 580.043
303.054 752.385
303.064 987.046
303.082 1653.21
303.100 2158.62
303.109 2077.49
303.118 1809.15
303.137 1192.99
303.149 886.463
303.161 673.927
303.174 527.323
303.186 424.931
303.211 295.059
303.236 220.749
303.260 174.132
303.285 143.166
303.334 105.489
303.384 84.0570
303.433 70.5758
303.532 54.9330
303.631 46.2989
303.730 40.8978
303.928 34.5284
304.126 30.8661
304.324 28.4463
304.720 25.3378
305.115 23.3133
305.511 21.8064
306.303 19.5413
307.094 17.7394
307.886 16.0788
308.281 15.2307
308.479 14.8050
308.677 14.4184
308.875 14.2287
308.974 14.3855
309.073 15.0361
309.172 17.0451
309.221 19.3486
309.271 23.7409
309.320 33.0182
309.345 41.6727
309.370 55.9445
309.382 66.7351
309.394 81.4315
309.401 90.8131
309.407 101.985
309.413 115.396
309.419 131.341
309.425 151.103
309.431 175.465
309.438 205.782
309.444 243.177
309.450 291.218
309.456 352.401
309.462 430.381
309.468 527.144
309.476 685.105
309.484 870.650
309.500 1129.28
309.508 1083.87
309.516 941.241
309.532 617.313
309.545 429.698
309.558 310.580
309.571 234.489
309.584 184.129
309.610 124.680
309.636 92.6473
309.663 73.3303
309.689 60.8393
309.741 46.0065
309.793 37.7721
309.846 32.6757
309.950 26.8195
310.055 23.6072
310.160 21.5954
310.369 19.1986
310.578 17.7857
310.787 16.8202
311.206 15.5042
312.043 13.8027
312.880 12.4990
313.717 11.2885
314.554 10.0365
315.391 8.64394
315.809 7.87805
316.228 7.09598
316.479 6.66907
316.731 6.37270
316.982 6.42874
317.234 7.44224
317.360 8.79253
317.391 9.28773
317.423 9.86585
317.454 10.5455
317.486 11.3404
317.517 12.2778
317.548 13.3787
317.580 14.6837
317.611 16.2263
317.643 18.0691
317.674 20.2671
317.706 22.9111
317.737 26.1119
317.800 34.8320
317.863 48.3079
317.926 70.1633
317.957 86.3028
317.989 107.915
318.020 137.665
318.051 179.534
318.083 240.927
318.114 334.217
318.146 484.424
318.177 739.911
318.209 1205.20
318.240 2085.42
318.270 3466.83
318.300 4490.51
318.330 3722.04
318.360 2416.02
318.390 1547.83
318.420 1046.92
318.450 750.807
318.480 566.185
318.509 443.775
318.539 359.039
318.599 252.744
318.659 190.764
318.719 151.426
318.838 105.659
318.958 80.7330
319.077 65.4512
319.197 55.2870
319.316 48.1131
319.555 38.7636
319.794 33.0029
320.033 29.1243
320.272 26.3424
320.750 22.6173
321.228 20.2241
322.184 17.2743
323.140 15.4595
324.096 14.1718
326.008 12.3234
327.920 10.8667
328.876 10.1618
329.832 9.40860
330.788 8.53544
331.266 8.02284
331.744 7.44935
331.983 7.15069
332.222 6.87293
332.461 6.68885
332.700 6.81352
332.820 7.17266
332.939 7.97646
333.059 9.68286
333.118 11.1731
333.178 13.4004
333.208 14.9247
333.238 16.8288
333.253 17.9625
333.268 19.2305
333.283 20.6620
333.298 22.2831
333.313 24.1384
333.327 26.2415
333.357 31.4407
333.387 38.3988
333.417 47.8841
333.447 61.2584
333.477 80.6962
333.507 110.136
333.537 156.911
333.566 236.913
333.581 299.281
333.596 385.730
333.611 510.611
333.626 693.647
333.641 969.482
333.656 1385.31
333.678 2294.50
333.700 2968.01
333.722 2458.15
333.744 1592.46
333.766 1012.52
333.788 682.049
333.810 487.731
333.833 366.755
333.855 287.127
333.877 232.149
333.921 163.308
333.965 123.393
334.009 98.0984
334.098 68.8117
334.186 52.9213
334.275 43.2307
334.363 36.8075
334.451 32.2883
334.628 26.4204
334.805 22.8266
334.982 20.4187
335.159 18.6995
335.512 16.4115
335.866 14.9545
336.220 13.9372
336.573 13.1798
337.281 12.1074
337.988 11.3623
339.403 10.3383
340.817 9.61395
342.232 9.03644
345.061 8.09984
350.720 6.57535
356.378 5.15831
362.037 3.64710
364.866 2.81337
367.695 1.93216
370.524 1.12526
371.232 0.989343
371.939 0.919973
372.293 0.923205
372.646 0.961967
373.000 1.04719
373.177 1.11160
373.354 1.19351
373.530 1.29567
373.707 1.42114
373.884 1.57382
374.061 1.75800
374.415 2.24368
374.768 2.93523
375.122 3.91800
375.476 5.32108
375.829 7.35029
376.183 10.3422
376.537 14.8839
376.890 22.0537
377.244 34.0202
377.597 55.6010
377.774 73.2941
377.951 99.3078
378.128 139.478
378.305 205.574
378.482 324.155
378.570 421.155
378.658 563.684
378.747 782.660
378.835 1136.74
378.924 1739.63
379.012 2791.45
379.106 4550.65
379.200 5845.25
379.295 4804.63
379.389 3055.93
379.489 1858.15
379.589 1201.59
379.689 828.878
379.788 603.521
379.888 458.318
379.988 359.981
380.188 239.381
380.387 171.053
380.587 128.551
380.986 80.3126
381.386 54.6297
381.785 39.0611
382.185 28.7038
382.584 21.3340
383.383 11.7572
383.782 9.03367
383.982 8.37016
384.081 8.29373
384.181 8.44332
384.231 8.62196
384.281 8.88197
384.331 9.23535
384.381 9.69607
384.431 10.2821
384.481 11.0110
384.531 11.9080
384.581 13.0020
384.631 14.3315
384.681 15.9346
384.780 20.1959
384.880 26.3962
384.980 35.5093
385.080 49.1773
385.180 70.2284
385.279 104.000
385.379 161.227
385.479 265.924
385.529 351.993
385.579 478.106
385.629 669.916
385.679 973.840
385.729 1474.05
385.779 2306.78
385.839 3884.97
385.900 5061.61
385.961 4216.39
386.022 2763.69
386.069 1960.66
386.116 1434.83
386.163 1088.85
386.210 854.373
386.305 570.564
386.399 413.243
386.494 317.036
386.588 253.858
386.777 177.981
386.966 135.295
387.155 108.557
387.532 77.5249
387.910 60.3859
388.288 49.6272
389.043 36.9229
389.798 29.6442
390.554 24.8825
392.064 18.9026
393.575 15.1505
395.086 12.4332
396.597 10.2432
398.107 8.30916
399.955 6.03629
400.879 4.87711
401.802 3.72453
402.726 2.82058
403.188 2.78570
403.304 2.88435
403.419 3.05174
403.535 3.30833
403.650 3.68129
403.766 4.20885
403.881 4.94289
403.939 5.40969
403.997 5.95703
404.112 7.35588
404.227 9.29810
404.343 12.0196
404.458 15.8911
404.574 21.5092
404.689 29.9082
404.805 42.9297
404.920 64.1398
405.036 101.045
405.094 130.274
405.151 171.724
405.209 232.776
405.267 326.824
405.324 480.321
405.382 747.519
405.440 1250.05
405.469 1664.00
405.498 2243.07
405.549 3722.92
405.600 4819.69
405.651 3991.77
405.703 2584.12
405.741 1832.19
405.780 1335.96
405.818 1008.37
405.857 786.100
405.934 517.359
406.011 369.205
406.088 279.117
406.166 220.319
406.320 150.520
406.474 111.866
406.629 88.0325
406.783 72.1454
406.937 60.9515
407.246 46.4143
407.555 37.5214
407.863 31.5794
408.172 27.3477
408.790 21.7287
409.407 18.1470
410.642 13.7405
411.877 10.9913
413.111 8.97840
415.581 5.89606
416.816 4.57292
418.050 3.35082
419.285 2.31392
419.903 1.95364
420.211 1.84779
420.520 1.81556
420.674 1.83516
420.829 1.88415
420.983 1.96780
421.137 2.09228
421.292 2.26530
421.446 2.49582
421.600 2.79527
421.755 3.17695
421.909 3.65819
422.063 4.25930
422.372 5.93386
422.681 8.50522
422.990 12.4780
423.298 18.7283
423.607 28.8673
423.916 46.0839
424.224 77.3223
424.379 102.790
424.533 139.794
424.687 195.792
424.842 284.722
424.996 435.366
425.150 711.566
425.228 939.096
425.305 1269.42
425.382 1759.27
425.459 2482.37
425.580 4144.52
425.700 5382.23
425.821 4469.75
425.941 2907.67
426.057 1894.75
426.173 1297.39
426.288 938.020
426.404 710.607
426.520 558.825
426.636 453.051
426.867 319.061
427.099 240.416
427.330 190.151
427.793 131.373
428.256 99.1438
428.719 79.2861
429.182 66.0177
429.645 56.6124
430.571 44.2774
431.497 36.6043
432.424 31.3744
433.350 27.5610
435.202 22.2444
437.054 18.3818
437.980 16.5633
438.443 15.5855
438.906 14.4976
439.369 13.2349
439.601 12.5353
439.832 11.8570
439.948 11.5993
440.064 11.5129
440.179 11.8359
440.295 13.1829
440.411 17.4089
440.469 22.2938
440.498 26.1722
440.512 28.6706
440.527 31.6296
440.541 35.2060
440.556 39.5330
440.570 44.8113
440.584 51.2601
440.599 59.3329
440.613 69.4955
440.628 82.4625
440.642 99.1321
440.657 121.245
440.671 150.993
440.686 191.945
440.700 249.324
440.715 333.203
440.729 457.662
440.744 649.419
440.758 941.183
440.779 1581.49
440.800 2072.58
440.821 1740.47
440.842 1146.69
440.858 830.800
440.873 618.661
440.889 476.439
440.904 378.670
440.935 258.639
440.966 191.396
440.997 149.822
441.028 122.358
441.090 89.2961
441.152 70.6327
441.214 58.9564
441.276 51.0689
441.338 45.4381
441.461 38.0084
441.585 33.3814
441.709 30.2382
441.833 27.9721
442.081 24.9168
442.328 22.9415
442.824 20.4947
443.319 18.9883
443.815 17.9284
444.805 16.4594
445.796 15.4235
446.787 14.6108
448.769 13.3439
452.732 11.4859
456.695 10.0072
460.658 8.63089
464.622 7.12826
466.603 6.21123
467.594 5.66913
468.585 5.04093
469.576 4.29757
470.071 3.88323
470.566 3.47556
470.814 3.31135
471.062 3.23223
471.310 3.35853
471.557 4.00624
471.681 4.77332
471.743 5.36179
471.805 6.15512
471.867 7.23651
471.898 7.92107
471.929 8.72531
471.960 9.68076
471.991 10.8146
472.022 12.1770
472.053 13.8150
472.115 18.2633
472.177 25.0977
472.238 36.1645
472.269 44.3769
472.300 55.3724
472.331 70.5765
472.362 92.2057
472.393 124.171
472.424 173.499
472.455 254.778
472.486 397.914
472.502 512.269
472.517 673.993
472.533 906.059
472.548 1235.19
472.574 2036.71
472.600 2630.11
472.626 2173.73
472.652 1400.13
472.678 886.918
472.704 593.262
472.730 421.017
472.756 314.405
472.782 244.103
472.808 195.704
472.860 135.422
472.912 100.562
472.964 78.6080
473.068 53.3120
473.171 39.6675
473.275 31.3740
473.379 25.8933
473.483 22.0452
473.691 17.0375
473.899 13.9440
474.314 10.2965
474.729 8.14171
475.145 6.63619
475.976 4.47599
476.391 3.63785
476.807 2.97935
477.222 2.67353
477.326 2.70037
477.430 2.79287
477.534 2.97091
477.638 3.26080
477.742 3.69977
477.846 4.33868
477.898 4.75509
477.949 5.24993
478.053 6.53658
478.157 8.35544
478.261 10.9368
478.365 14.6519
478.469 20.0876
478.573 28.2644
478.676 40.9907
478.780 61.7484
478.884 97.7912
478.936 126.226
478.988 166.340
479.040 224.980
479.092 314.324
479.144 457.833
479.196 701.648
479.248 1143.98
479.300 1976.30
479.350 3302.13
479.400 4294.69
479.450 3572.64
479.501 2326.70
479.541 1626.01
479.581 1174.39
479.621 880.808
479.661 684.770
479.741 450.373
479.821 322.383
479.901 245.081
479.981 194.735
480.141 134.982
480.301 101.820
480.462 81.3000
480.622 67.5687
480.782 57.8561
481.102 45.1793
481.422 37.3802
481.743 32.1493
482.063 28.4174
482.704 23.4687
483.344 20.3409
483.985 18.1807
484.625 16.5920
485.907 14.3886
487.188 12.9036
489.750 10.9418
492.313 9.59830
494.875 8.50762
497.438 7.46453
498.719 6.88108
499.359 6.54480
500.000 6.15617
500.297 5.95332
500.594 5.73935
500.890 5.53976
501.039 5.47511
501.187 5.48459
501.285 5.58006
501.382 5.82373
501.479 6.36949
501.576 7.59113
501.674 10.5567
501.722 13.6400
501.747 15.9866
501.771 19.2058
501.783 21.2815
501.795 23.7660
501.808 26.7663
501.820 30.3921
501.832 34.8958
501.844 40.4665
501.856 47.5702
501.868 56.6224
501.881 68.5642
501.893 84.3821
501.905 106.194
501.917 136.575
501.929 180.889
501.941 246.411
501.953 347.424
501.966 500.927
501.983 828.363
502.000 1070.25
502.009 1024.60
502.017 886.742
502.035 575.792
502.049 393.124
502.064 278.833
502.078 206.749
502.093 159.529
502.122 104.410
502.151 74.9839
502.181 57.4855
502.210 46.2192
502.268 33.0003
502.327 25.7593
502.385 21.3151
502.443 18.3621
502.502 16.2848
502.618 13.5800
502.735 11.9200
502.852 10.8027
502.969 10.0008
503.202 8.91836
503.436 8.20952
503.903 7.29162
504.370 6.66648
504.837 6.17616
505.070 5.99529
505.187 5.95393
505.304 6.00348
505.421 6.30146
505.479 6.69061
505.537 7.47390
505.596 9.20452
505.625 10.8802
505.654 13.7376
505.683 19.0547
505.698 23.5339
505.713 30.2713
505.727 40.9080
505.742 58.6845
505.749 72.1108
505.756 90.2187
505.764 114.808
505.771 147.421
505.778 190.222
505.785 240.271
505.800 308.792
505.807 295.629
505.815 256.094
505.829 167.111
505.841 118.360
505.852 86.9689
505.863 66.4844
505.875 52.7106
505.897 36.1582
505.920 27.1557
505.943 21.6999
505.965 18.1692
506.010 13.9769
506.056 11.6584
506.101 10.2235
506.192 8.57850
506.282 7.67257
506.373 7.09852
506.554 6.39570
506.735 5.95677
506.916 5.63470
507.278 5.14370
508.003 4.36417
508.728 3.64332
509.090 3.30157
509.452 3.01274
509.815 2.88166
510.177 3.21093
510.267 3.44999
510.358 3.79812
510.449 4.29592
510.539 5.00141
510.630 6.00361
510.675 6.65497
510.720 7.43549
510.766 8.37411
510.811 9.50779
510.901 12.5617
510.992 17.1963
511.083 24.4864
511.173 36.5399
511.219 45.5976
511.264 57.8541
511.309 74.9484
511.354 99.5029
511.400 136.160
511.445 193.581
511.490 289.147
511.536 460.752
511.558 599.711
511.581 797.541
511.603 1084.80
511.626 1500.63
511.663 2493.12
511.700 3238.06
511.737 2690.80
511.774 1744.70
511.799 1281.61
511.824 961.898
511.849 742.280
511.874 588.993
511.924 396.589
511.974 287.178
512.024 219.225
512.074 174.335
512.174 120.264
512.274 90.0101
512.373 71.2312
512.473 58.6828
512.573 49.8241
512.773 38.3280
512.973 31.3182
513.173 26.6613
513.372 23.3703
513.772 19.0630
514.172 16.3868
514.571 14.5671
514.971 13.2476
515.770 11.4510
516.569 10.2674
518.168 8.75083
519.766 7.76134
521.364 7.01529
524.561 5.84863
527.758 4.83875
530.955 3.80054
532.553 3.20877
533.352 2.87886
534.151 2.52318
534.951 2.16779
535.350 2.03520
535.750 2.03407
535.950 2.15966
536.149 2.47482
536.249 2.75772
536.349 3.17732
536.449 3.80358
536.499 4.22844
536.549 4.75327
536.599 5.40880
536.649 6.23128
536.699 7.27795
536.749 8.62070
536.799 10.3753
536.849 12.6984
536.899 15.8509
536.949 20.2195
536.999 26.4877
537.048 35.7956
537.098 50.3717
537.148 74.6157
537.198 118.799
537.223 155.396
537.248 209.442
537.273 293.705
537.298 431.140
537.323 669.831
537.348 1092.28
537.374 1794.02
537.400 2312.28
537.426 1907.34
537.452 1223.69
537.468 911.811
537.485 692.734
537.517 428.520
537.550 288.857
537.582 208.122
537.615 157.713
537.647 124.238
537.712 83.9534
537.777 61.4954
537.842 47.6413
537.972 32.0113
538.102 23.7462
538.232 18.7802
538.362 15.5249
538.492 13.2533
538.752 10.3200
539.012 8.52610
539.532 6.44661
540.052 5.25875
540.572 4.46601
541.611 3.41036
542.651 2.67199
543.691 2.08291
544.211 1.83387
544.731 1.65060
544.991 1.64139
545.121 1.70174
545.251 1.87084
545.381 2.31282
545.446 2.78278
545.511 3.64769
545.576 5.43436
545.608 7.10664
545.625 8.31932
545.641 9.90978
545.657 12.0753
545.673 15.0758
545.682 17.0600
545.690 19.4412
545.698 22.3642
545.706 25.9984
545.714 30.6448
545.722 36.5328
545.730 44.2054
545.738 54.3875
545.746 68.1527
545.755 87.0774
545.763 113.364
545.771 149.624
545.785 241.859
545.800 305.580
545.807 289.409
545.815 247.890
545.829 157.147
545.844 100.040
545.858 67.2206
545.872 47.6480
545.886 35.5228
545.914 22.0025
545.942 15.1471
545.970 11.2184
545.998 8.76038
546.054 5.96575
546.110 4.48721
546.167 3.60329
546.279 2.62836
546.391 2.11703
546.504 1.80634
546.729 1.44804
547.178 1.11822
547.628 0.985859
547.853 0.966915
548.077 0.978796
548.302 1.02474
548.527 1.11037
548.752 1.24387
548.977 1.43646
549.201 1.70337
549.426 2.06520
549.651 2.55006
549.876 3.19684
550.101 4.06018
550.325 5.21847
550.550 6.78682
550.775 8.93903
551.000 11.9463
551.225 16.2488
551.449 22.5949
551.674 32.3349
551.899 48.0892
552.124 75.4529
552.236 97.1185
552.349 128.010
552.461 173.836
552.573 245.264
552.686 363.789
552.798 576.648
552.854 749.047
552.911 996.592
552.967 1358.53
553.023 1886.85
553.112 3100.07
553.200 4011.65
553.289 3321.97
553.378 2129.54
553.458 1403.50
553.537 964.530
553.617 695.731
553.696 523.865
553.855 327.846
554.015 225.733
554.174 166.058
554.333 128.143
554.651 84.2912
554.969 60.6336
555.287 46.2832
555.606 36.8256
555.924 30.1978
556.560 21.5951
557.197 16.2348
557.515 14.2126
557.833 12.5260
557.992 11.9169
558.072 11.7874
558.151 11.9641
558.231 12.9358
558.271 14.1548
558.310 16.5145
558.350 21.4543
558.370 25.9801
558.390 33.2664
558.410 45.7503
558.420 55.5003
558.430 68.9382
558.440 88.3308
558.445 101.166
558.450 116.463
558.455 135.537
558.460 158.430
558.465 187.003
558.470 220.985
558.477 287.349
558.485 364.613
558.500 473.664
558.508 456.022
558.515 397.676
558.531 263.593
558.547 169.206
558.563 116.407
558.579 85.7265
558.595 66.7520
558.611 54.2348
558.627 45.6571
558.659 34.8805
558.691 28.5617
558.723 24.5224
558.787 19.7316
558.851 17.0294
558.915 15.2980
559.043 13.1805
559.171 11.8868
559.300 10.9755
559.556 9.69421
560.068 8.02169
560.581 6.83192
562.631 3.75881
564.682 1.91348
565.707 1.34385
566.220 1.17050
566.476 1.11872
566.732 1.09410
566.989 1.10035
567.245 1.14213
567.501 1.22419
567.758 1.35362
568.014 1.53806
568.270 1.78703
568.527 2.11211
568.783 2.52749
569.295 3.70316
569.808 5.51113
570.321 8.26352
570.833 12.4730
571.346 19.0198
571.858 29.5012
572.371 47.0241
572.884 78.2003
573.140 103.161
573.396 138.882
573.653 191.840
573.909 273.846
574.165 407.865
574.421 641.720
574.678 1080.52
574.806 1439.94
574.934 1942.25
575.167 3256.84
575.400 4249.51
575.634 3545.15
575.867 2314.15
576.120 1437.42
576.373 952.417
576.626 674.471
576.878 504.389
577.131 393.561
577.384 317.553
577.890 222.764
578.396 167.862
578.901 132.987
579.913 92.3490
580.924 70.0506
581.935 56.2470
582.947 46.9641
583.958 40.3330
585.981 31.5208
588.004 25.9181
590.026 21.9987
592.049 19.0498
596.095 14.6961
600.140 11.1999
602.163 9.42169
603.174 8.43827
604.186 7.33069
605.197 6.02716
605.703 5.28341
606.208 4.50821
606.461 4.15391
606.714 3.90037
606.967 3.91569
607.093 4.14307
607.220 4.65209
607.283 5.07152
607.346 5.64923
607.409 6.44161
607.473 7.52863
607.536 9.02742
607.567 9.98307
607.599 11.1141
607.662 14.0615
607.725 18.3084
607.789 24.5905
607.852 34.2086
607.915 49.6173
607.978 75.8434
608.010 96.1210
608.041 124.336
608.073 164.818
608.105 225.069
608.136 318.714
608.168 471.653
608.199 734.110
608.231 1194.74
608.266 1997.32
608.300 2607.32
608.335 2177.53
608.369 1420.40
608.390 1075.03
608.412 828.721
608.454 527.217
608.496 364.028
608.539 268.292
608.581 207.494
608.624 166.700
608.709 116.744
608.794 88.3281
608.878 70.4801
609.048 49.8853
609.218 38.6573
609.388 31.7283
609.557 27.0652
609.727 23.7293
610.067 19.2712
610.406 16.4096
611.085 12.8488
611.764 10.5836
612.443 8.88590
613.801 6.18774
614.480 4.98844
615.159 3.86288
615.838 2.90169
616.178 2.57182
616.517 2.45740
616.687 2.53398
616.857 2.74611
617.027 3.14758
617.112 3.44262
617.197 3.81664
617.281 4.28651
617.366 4.87165
617.451 5.59671
617.536 6.49148
617.706 8.96290
617.876 12.7494
618.045 18.6548
618.215 28.1153
618.385 43.9354
618.555 71.9825
618.639 94.3535
618.724 126.215
618.809 173.126
618.894 244.948
618.979 360.752
619.064 558.576
619.149 918.321
619.234 1594.64
619.317 2691.40
619.400 3525.58
619.483 2952.45
619.567 1939.28
619.622 1444.11
619.678 1097.96
619.789 687.136
619.900 471.710
620.011 347.143
620.122 268.980
620.233 216.682
620.455 152.917
620.677 116.639
620.899 93.7847
621.343 67.2377
621.787 52.6269
622.231 43.5095
622.675 37.3115
623.118 32.8260
624.006 26.7158
624.894 22.6139
625.338 20.9388
625.782 19.3618
626.004 18.5779
626.115 18.1948
626.226 17.8523
626.337 17.6723
626.393 17.7720
626.448 18.2215
626.504 19.5698
626.532 21.0516
626.559 23.7308
626.587 28.9724
626.615 40.3296
626.629 51.2503
626.643 69.3354
626.656 101.323
626.663 125.797
626.670 158.462
626.678 204.797
626.685 259.367
626.700 340.255
626.715 292.226
626.730 199.800
626.746 130.985
626.763 93.1513
626.779 71.4397
626.796 58.0996
626.813 49.3227
626.829 43.3064
626.862 35.7265
626.895 31.2533
626.928 28.3704
626.994 24.9130
627.060 22.9252
627.126 21.6320
627.258 20.0119
627.390 18.9921
627.523 18.2506
627.787 17.1571
628.315 15.5590
628.844 14.1797
629.372 12.7640
629.636 11.9893
629.901 11.1503
630.165 10.2740
630.297 9.87492
630.429 9.60357
630.561 9.69599
630.693 10.8403
630.759 12.3984
630.825 15.4456
630.858 17.9820
630.875 19.6365
630.891 21.6336
630.908 24.0587
630.924 27.0238
630.941 30.6779
630.957 35.2221
630.970 39.3856
630.982 44.3168
630.994 50.2430
631.007 57.4221
631.031 77.1243
631.056 107.771
631.081 158.430
631.093 196.172
631.105 246.959
631.118 317.207
631.130 414.396
631.142 551.185
631.155 742.614
631.177 1258.07
631.200 1657.82
631.223 1399.74
631.246 928.672
631.260 708.851
631.274 551.888
631.302 358.755
631.330 253.637
631.358 191.333
631.387 151.563
631.415 124.622
631.471 91.3592
631.528 72.1735
631.584 60.0115
631.697 45.7694
631.810 37.8683
631.923 32.9245
632.035 29.5602
632.148 27.1297
632.374 23.8529
632.600 21.7387
633.051 19.1298
633.502 17.5348
633.953 16.4201
634.856 14.8871
635.759 13.8117
636.661 12.9671
638.467 11.6346
642.077 9.58146
645.688 7.77700
649.298 5.89053
651.103 4.82552
652.909 3.62714
654.714 2.30229
655.616 1.67646
656.068 1.43480
656.519 1.30939
656.745 1.32211
656.970 1.41314
657.083 1.49780
657.196 1.61529
657.309 1.77225
657.422 1.97672
657.535 2.23887
657.647 2.57058
657.760 2.98750
657.873 3.50909
658.099 4.97340
658.324 7.26154
658.550 10.8969
658.776 16.8376
659.001 26.9996
659.227 45.5517
659.340 60.7591
659.453 82.9369
659.565 116.622
659.678 170.439
659.791 262.288
659.904 432.386
659.960 573.809
660.017 781.332
660.073 1092.30
660.130 1558.31
660.215 2606.06
660.300 3404.43
660.385 2844.22
660.471 1853.27
660.560 1161.83
660.650 773.515
660.739 548.862
660.829 410.640
660.918 320.178
661.008 258.058
661.187 180.466
661.366 135.512
661.545 107.011
661.904 73.8872
662.262 55.7890
662.620 44.6382
662.978 37.1683
663.337 31.8537
664.053 24.8256
664.770 20.3858
666.202 15.0069
667.635 11.7203
669.068 9.35172
671.934 5.76583
673.367 4.23183
674.800 2.81960
676.233 1.64188
676.950 1.25549
677.308 1.15707
677.487 1.14103
677.666 1.15205
677.845 1.19472
678.025 1.27441
678.204 1.39757
678.383 1.57191
678.562 1.80683
678.741 2.11321
678.920 2.50468
679.099 2.99772
679.458 4.37439
679.816 6.46870
680.174 9.63621
680.532 14.4546
680.890 21.9061
681.249 33.7367
681.607 53.2848
681.965 87.4134
682.323 151.892
682.503 206.374
682.682 288.022
682.861 415.581
683.040 624.496
683.219 982.867
683.398 1609.26
683.599 2732.17
683.800 3588.18
684.002 3011.24
684.203 1986.56
684.346 1459.91
684.488 1099.29
684.630 852.813
684.773 680.859
685.058 466.072
685.343 343.353
685.627 266.802
685.912 215.749
686.482 153.606
687.052 118.219
687.622 95.8809
688.761 69.8277
689.900 55.4099
691.040 46.3795
692.179 40.2309
693.319 35.7875
695.598 29.7984
697.877 25.9358
700.155 23.2177
702.434 21.1810
706.992 18.2667
711.550 16.1664
713.829 15.2509
716.108 14.3184
717.247 13.7836
717.817 13.4703
718.387 13.0981
718.956 12.6205
719.241 12.3150
719.526 11.9417
719.669 11.7238
719.811 11.4865
719.953 11.2439
720.096 11.0531
720.167 11.0319
720.238 11.1399
720.310 11.5301
720.381 12.5800
720.452 15.3654
720.488 18.3412
720.523 23.7367
720.559 34.3670
720.577 43.6786
720.585 50.0597
720.594 58.0819
720.603 68.2984
720.612 81.4954
720.621 98.8068
720.630 121.889
720.639 153.172
720.648 196.191
720.657 255.860
720.666 338.116
720.674 444.443
720.683 569.482
720.700 751.103
720.709 727.458
720.717 637.683
720.735 426.341
720.751 285.692
720.768 201.756
720.784 150.799
720.801 118.271
720.818 96.4247
720.834 81.0841
720.867 61.4852
720.901 49.8491
720.934 42.3271
721.000 33.4082
721.067 28.4320
721.133 25.3181
721.199 23.2095
721.266 21.6992
721.398 19.6870
721.531 18.4156
721.664 17.5403
721.797 16.9000
722.062 16.0182
722.328 15.4315
722.859 14.6725
723.390 14.1745
723.921 13.7997
724.983 13.2242
727.108 12.3250
729.232 11.4731
731.356 10.4814
732.419 9.85592
733.481 9.06377
734.012 8.57014
734.543 7.98164
735.074 7.26645
735.605 6.39161
735.871 5.89465
736.136 5.38351
736.402 4.93768
736.667 4.81366
736.800 5.09540
736.933 5.91447
736.999 6.68277
737.066 7.84231
737.099 8.62627
737.132 9.58981
737.165 10.7773
737.199 12.2415
737.232 14.0672
737.265 16.3519
737.298 19.2330
737.331 22.9000
737.365 27.6185
737.398 33.7692
737.431 41.9106
737.464 52.8459
737.497 67.9452
737.530 89.2840
737.564 120.392
737.597 167.468
737.630 241.972
737.663 366.158
737.696 584.378
737.730 976.186
737.765 1655.16
737.800 2180.10
737.835 1836.93
737.871 1214.20
737.897 872.714
737.924 646.245
737.951 495.009
737.978 392.034
738.031 266.013
738.085 195.542
738.138 152.224
738.192 123.617
738.299 89.1178
738.406 69.6495
738.513 57.4289
738.620 49.1633
738.727 43.2565
738.941 35.4611
739.155 30.6022
739.369 27.3098
739.583 24.9416
740.011 21.7726
740.439 19.7510
740.867 18.3457
741.294 17.3076
742.150 15.8605
743.006 14.8798
744.718 13.5725
746.430 12.6518
748.142 11.8371
748.998 11.3844
749.426 11.1176
749.854 10.7993
750.282 10.3948
750.496 10.1461
750.710 9.86571
750.817 9.72320
750.924 9.59958
751.031 9.54252
751.138 9.68583
751.192 9.94075
751.245 10.4597
751.299 11.4949
751.352 13.6277
751.406 18.3972
751.432 23.0248
751.459 30.8055
751.473 36.7761
751.486 44.9911
751.493 50.2739
751.499 56.5966
751.506 64.2241
751.513 73.3512
751.519 84.7081
751.526 98.7809
751.533 116.388
751.539 138.254
751.546 166.477
751.553 202.640
751.559 249.032
751.566 307.083
751.575 402.122
751.583 515.023
751.600 678.439
751.609 656.767
751.617 575.034
751.634 382.830
751.646 283.517
751.658 215.408
751.670 168.919
751.682 136.729
751.706 96.2269
751.730 73.2244
751.754 58.8475
751.778 49.3170
751.826 37.7306
751.873 31.1373
751.921 26.9865
751.969 24.1745
752.017 22.1666
752.113 19.5081
752.209 17.8507
752.304 16.7249
752.400 15.9145
752.592 14.8254
752.783 14.1259
752.975 13.6356
753.166 13.2696
753.549 12.7516
753.932 12.3928
754.698 11.9030
755.464 11.5597
756.230 11.2881
757.762 10.8509
760.826 10.1464
763.890 9.49963
766.953 8.80666
768.485 8.40402
770.017 7.92395
771.549 7.29891
772.315 6.88910
773.081 6.36882
773.464 6.04897
773.847 5.67647
774.230 5.24340
774.613 4.76112
774.805 4.52685
774.996 4.34593
775.188 4.32775
775.379 4.77355
775.475 5.41237
775.523 5.92911
775.571 6.64307
775.619 7.63735
775.666 9.03143
775.714 11.0126
775.738 12.3079
775.762 13.8746
775.786 15.7907
775.810 18.1326
775.834 21.0444
775.858 24.6710
775.882 29.2786
775.906 35.1616
775.930 42.8174
775.954 52.9600
775.978 66.7481
776.002 85.8001
776.025 113.001
776.049 153.197
776.073 215.369
776.097 315.149
776.121 483.042
776.145 770.591
776.173 1294.89
776.200 1699.77
776.228 1427.99
776.255 937.331
776.281 620.506
776.307 430.762
776.333 315.282
776.359 241.516
776.410 157.279
776.462 113.048
776.514 86.9163
776.566 70.1129
776.669 50.3396
776.773 39.4207
776.877 32.6526
776.980 28.1091
777.084 24.8784
777.291 20.6181
777.498 17.9555
777.705 16.1332
777.912 14.8012
778.327 12.9421
778.534 12.2417
778.741 11.6298
778.948 11.0935
779.052 10.8742
779.155 10.7448
779.259 10.8803
779.311 11.2202
779.363 12.0260
779.414 13.9691
779.440 15.9195
779.466 19.2881
779.492 25.5565
779.518 38.5243
779.531 50.4991
779.544 69.6034
779.550 83.5986
779.557 101.561
779.563 125.410
779.570 155.857
779.577 202.221
779.585 257.256
779.600 336.935
779.608 326.068
779.615 285.992
779.631 192.188
779.645 130.912
779.659 94.1087
779.674 71.6497
779.688 57.3437
779.717 40.8442
779.745 32.1137
779.774 26.9162
779.803 23.5481
779.860 19.5389
779.918 17.2824
779.975 15.8592
780.090 14.1725
780.205 13.2020
780.320 12.5638
780.549 11.7512
780.779 11.2315
781.009 10.8538
781.468 10.3106
782.386 9.59715
783.305 9.09389
785.142 8.33724
786.979 7.71789
790.654 6.56493
792.491 5.95015
794.328 5.26071
795.239 4.87448
796.150 4.44339
796.605 4.20623
797.060 3.96297
797.288 3.86582
797.402 3.84881
797.515 3.89479
797.629 4.11586
797.686 4.39563
797.743 4.95366
797.800 6.17433
797.829 7.35168
797.857 9.34172
797.885 13.0336
797.914 20.7170
797.928 27.9862
797.935 33.1748
797.942 39.9360
797.949 48.8716
797.957 60.8223
797.964 76.9008
797.971 98.3670
797.978 127.295
797.985 160.663
798.000 206.331
798.007 197.387
798.015 170.972
798.029 111.667
798.044 72.8510
798.058 50.2977
798.072 36.9016
798.087 28.5047
798.101 22.9523
798.115 19.1063
798.144 14.2753
798.172 11.4650
798.201 9.67899
798.258 7.60125
798.315 6.46414
798.373 5.76002
798.487 4.94158
798.601 4.47629
798.716 4.16777
798.944 3.75986
799.402 3.24375
799.859 2.85053
800.774 2.16519
801.689 1.60378
802.147 1.45438
802.376 1.45355
802.605 1.53429
802.833 1.73732
802.948 1.90339
803.062 2.12637
803.176 2.42096
803.291 2.80552
803.405 3.30433
803.520 3.94891
803.634 4.78354
803.748 5.86654
803.863 7.27948
803.977 9.13574
804.091 11.6048
804.206 14.9316
804.320 19.4915
804.435 25.8703
804.549 35.0504
804.663 48.7027
804.778 69.8901
804.892 104.598
805.006 165.852
805.064 214.829
805.121 284.927
805.178 388.644
805.235 547.631
805.292 799.103
805.350 1199.02
805.425 2006.50
805.500 2628.67
805.575 2202.51
805.651 1436.19
805.717 964.072
805.784 674.518
805.851 494.503
805.918 378.113
806.052 243.512
806.185 172.245
806.319 129.944
806.453 102.711
806.720 70.6823
806.987 53.0134
807.255 42.0756
807.522 34.7284
807.789 29.4859
808.324 22.5183
808.859 18.0628
809.393 14.8959
809.928 12.4468
810.997 8.60171
811.532 6.91647
812.066 5.32694
812.601 4.05515
812.868 3.87696
813.002 4.09085
813.069 4.32830
813.136 4.68814
813.203 5.20968
813.269 5.94408
813.336 6.96732
813.403 8.38102
813.470 10.3417
813.537 13.0694
813.604 16.9119
813.670 22.4148
813.737 30.4889
813.804 42.6551
813.871 61.7335
813.938 93.2075
814.005 148.837
814.038 193.071
814.071 255.952
814.105 348.002
814.138 486.892
814.172 701.809
814.205 1035.30
814.253 1756.01
814.300 2316.16
814.348 1953.03
814.395 1289.51
814.435 891.739
814.476 640.472
814.516 479.889
814.556 373.926
814.637 248.454
814.718 180.399
814.798 139.237
814.879 112.352
815.040 80.2185
815.202 62.1573
815.363 50.8186
815.686 37.5727
816.008 30.1497
816.331 25.3960
816.976 19.5217
817.622 15.7590
817.944 14.2016
818.267 12.7172
818.590 11.2406
818.751 10.5281
818.912 9.94478
819.074 9.89744
819.154 10.5085
819.235 12.2948
819.316 17.1281
819.336 19.3526
819.356 22.2746
819.376 26.2052
819.396 31.5292
819.406 34.9307
819.416 38.9644
819.427 43.7790
819.437 49.5672
819.447 56.5817
819.457 65.1570
819.467 75.7422
819.477 88.8019
819.487 105.431
819.497 126.683
819.507 154.214
819.517 189.969
819.527 237.986
819.537 302.652
819.548 390.231
819.558 506.639
819.579 861.364
819.600 1140.90
819.611 1105.62
819.621 969.102
819.643 646.851
819.663 434.061
819.683 306.466
819.703 227.962
819.723 177.784
819.763 119.859
819.804 89.1134
819.844 70.7590
819.884 58.8376
819.965 44.6271
820.045 36.6164
820.126 31.5628
820.287 25.5953
820.448 22.1997
820.609 19.9982
820.932 17.2618
821.254 15.5693
821.576 14.3726
822.220 12.6976
823.509 10.5190
824.798 8.90023
826.087 7.43644
827.376 5.90994
828.021 5.05794
828.343 4.60829
828.665 4.17487
828.987 3.89514
829.149 3.97217
829.310 4.49212
829.390 5.12231
829.471 6.25705
829.511 7.14055
829.551 8.35211
829.592 10.0398
829.632 12.4329
829.652 14.0168
829.672 15.9357
829.692 18.3051
829.712 21.2320
829.733 24.9273
829.753 29.6093
829.773 35.6616
829.793 43.6278
829.813 54.3993
829.833 69.1832
829.853 90.2925
829.874 121.191
829.894 168.783
829.914 244.755
829.934 372.038
829.954 589.188
829.977 980.622
830.000 1279.08
830.023 1068.15
830.046 695.207
830.062 512.270
830.077 386.328
830.092 298.981
830.108 238.059
830.139 161.438
830.170 117.767
830.200 90.5292
830.231 72.5121
830.293 50.7204
830.355 38.4540
830.416 30.8170
830.540 22.0394
830.663 17.2560
830.787 14.2911
831.034 10.8213
831.280 8.82882
831.527 7.50006
832.021 5.74179
833.008 3.59637
833.996 2.29877
834.243 2.12903
834.490 2.05964
834.737 2.12907
834.860 2.23293
834.983 2.39531
835.107 2.62853
835.230 2.94731
835.354 3.37072
835.477 3.92263
835.601 4.63401
835.724 5.54265
835.847 6.69944
835.971 8.17032
836.218 12.4357
836.464 19.4742
836.711 31.5004
836.958 53.1588
837.082 70.5714
837.205 95.4316
837.328 132.078
837.452 188.199
837.575 278.293
837.699 430.726
837.822 703.710
837.946 1206.80
838.073 2060.10
838.200 2721.58
838.327 2297.11
838.455 1523.15
838.542 1133.74
838.628 862.939
838.715 675.376
838.802 542.952
838.976 375.626
839.150 278.851
839.324 218.017
839.497 177.206
839.845 127.226
840.193 98.5978
840.540 80.4561
841.236 59.2151
841.931 47.4169
842.626 40.0110
843.321 34.9614
844.017 31.3099
845.407 26.3879
846.798 23.2182
848.188 20.9954
849.579 19.3393
852.360 17.0058
855.141 15.4022
860.703 13.2268
866.265 11.6641
871.827 10.2758
874.608 9.52560
875.998 9.09737
877.389 8.59859
878.779 7.96971
879.474 7.56825
880.170 7.06726
880.865 6.40684
881.212 5.99052
881.560 5.51138
881.734 5.26137
881.908 5.03558
882.082 4.90847
882.255 5.09354
882.342 5.47808
882.429 6.28949
882.516 7.94591
882.560 9.35675
882.603 11.4236
882.625 12.8206
882.646 14.5370
882.668 16.6724
882.690 19.3552
882.712 22.7813
882.733 27.1736
882.755 32.9142
882.777 40.5510
882.799 50.9808
882.820 65.4467
882.842 86.1873
882.864 116.974
882.885 164.850
882.907 242.090
882.929 372.905
882.951 598.645
882.975 1010.00
883.000 1329.14
883.025 1120.08
883.050 738.838
883.068 537.216
883.085 401.502
883.103 309.412
883.121 246.153
883.157 167.854
883.193 123.682
883.229 96.4030
883.265 78.3459
883.337 56.5440
883.409 44.2445
883.480 36.5339
883.552 31.3271
883.624 27.6165
883.767 22.7209
883.911 19.6746
884.055 17.6108
884.198 16.1253
884.485 14.1263
884.772 12.8361
885.347 11.2306
885.921 10.2190
886.495 9.47109
887.644 8.28801
888.792 7.16510
889.367 6.53259
889.941 5.80008
890.228 5.38483
890.515 4.93934
890.802 4.48949
891.090 4.14077
891.233 4.10480
891.377 4.30807
891.520 5.03465
891.592 5.78242
891.664 6.98751
891.700 7.84734
891.736 8.94736
891.772 10.3636
891.807 12.2023
891.843 14.6148
891.879 17.8217
891.915 22.1533
891.951 28.0997
891.987 36.5057
892.023 48.7121
892.059 67.0890
892.095 96.0324
892.130 144.274
892.166 230.531
892.184 299.892
892.202 397.664
892.220 537.999
892.238 738.612
892.269 1247.51
892.300 1644.70
892.331 1387.33
892.362 914.466
892.397 565.364
892.431 375.119
892.466 267.096
892.501 201.320
892.535 158.601
892.570 129.333
892.639 92.8530
892.708 71.6991
892.777 58.2331
892.916 42.4854
893.054 33.8032
893.193 28.4066
893.331 24.7663
893.469 22.1608
893.746 18.6972
894.023 16.5062
894.300 14.9919
894.577 13.8770
895.130 12.3256
895.684 11.2716
896.791 9.85272
897.899 8.85025
899.006 8.02197
901.220 6.51293
902.328 5.73289
903.435 4.89087
904.542 3.96774
905.649 2.99040
906.203 2.53506
906.757 2.19922
907.034 2.13229
907.310 2.19113
907.449 2.29081
907.587 2.45538
907.726 2.70372
907.864 3.06092
908.003 3.56122
908.141 4.25006
908.279 5.19170
908.418 6.47647
908.556 8.23458
908.695 10.6583
908.833 14.0396
908.971 18.8371
909.110 25.8005
909.248 36.2174
909.387 52.4385
909.525 79.1081
909.663 126.407
909.733 164.600
909.802 220.054
909.871 304.195
909.940 438.859
910.009 667.411
910.079 1069.02
910.139 1602.44
910.200 1957.25
910.230 1820.22
910.261 1485.19
910.322 778.450
910.341 622.256
910.361 508.843
910.380 434.899
910.400 398.370
910.410 393.909
910.420 398.872
910.430 413.432
910.439 437.981
910.459 519.147
910.479 647.054
910.509 944.897
910.539 1342.28
910.600 1969.76
910.630 1963.11
910.661 1784.51
910.722 1313.13
910.792 905.316
910.862 655.412
910.933 498.835
911.003 395.409
911.144 271.533
911.285 202.390
911.426 159.399
911.567 130.618
911.848 95.1800
912.130 74.6528
912.411 61.5010
912.975 45.8995
913.538 37.1092
914.101 31.5329
914.665 27.6998
915.228 24.9079
916.354 21.1054
917.481 18.6156
918.607 16.8286
919.734 15.4513
921.987 13.3387
923.113 12.4234
924.240 11.4974
925.367 10.4475
925.930 9.81307
926.493 9.04261
926.775 8.58169
927.056 8.05389
927.338 7.45001
927.620 6.78942
927.760 6.47481
927.901 6.23965
928.042 6.23391
928.183 6.86227
928.253 7.73172
928.324 9.37716
928.359 10.6868
928.394 12.5027
928.429 15.0507
928.464 18.6862
928.482 21.0801
928.500 23.9892
928.517 27.5511
928.535 31.9499
928.552 37.4353
928.570 44.3518
928.588 53.1833
928.605 64.6230
928.623 79.6858
928.640 99.8931
928.658 127.583
928.676 166.436
928.693 222.377
928.711 305.025
928.728 429.621
928.746 617.419
928.773 1051.57
928.800 1395.21
928.827 1184.82
928.854 788.474
928.874 578.899
928.893 436.011
928.913 338.972
928.932 271.552
928.971 187.791
929.010 140.135
929.049 110.492
929.088 90.7463
929.166 66.7418
929.244 53.0484
929.322 44.4041
929.400 38.5171
929.478 34.2958
929.634 28.6854
929.790 25.1660
929.946 22.7653
930.101 21.0272
930.413 18.6793
930.725 17.1619
931.037 16.0924
931.349 15.2908
931.972 14.1497
932.596 13.3540
933.843 12.2565
935.091 11.4722
936.338 10.8313
938.833 9.71036
941.327 8.55754
942.575 7.87800
943.822 7.05046
944.446 6.54868
945.069 5.96195
945.693 5.26378
946.316 4.43302
946.628 3.97542
946.940 3.52286
947.252 3.16612
947.564 3.18179
947.720 3.56376
947.798 3.94166
947.876 4.51203
947.954 5.35904
948.032 6.60596
948.110 8.45257
948.149 9.69295
948.187 11.2121
948.265 15.4296
948.343 22.0495
948.421 32.9012
948.499 51.6693
948.538 66.3392
948.577 86.8588
948.616 116.409
948.655 160.323
948.694 228.644
948.733 339.703
948.772 528.518
948.811 854.453
948.856 1450.72
948.900 1918.57
948.945 1622.29
948.989 1072.80
949.016 820.374
949.044 637.991
949.098 413.031
949.153 289.896
949.207 216.900
949.262 170.169
949.316 138.554
949.425 99.5005
949.534 76.9926
949.643 62.7208
949.862 46.0332
950.080 36.8125
950.298 31.0653
950.516 27.1738
950.734 24.3777
951.170 20.6399
951.607 18.2556
952.043 16.5918
952.479 15.3525
953.352 13.5783
954.224 12.2649
954.660 11.6599
954.878 11.3477
955.097 11.0183
955.315 10.6721
955.424 10.5083
955.533 10.3944
955.642 10.4722
955.696 10.7276
955.751 11.3721
955.806 13.0005
955.833 14.6802
955.860 17.6225
955.887 23.2209
955.915 34.9990
955.928 46.0988
955.942 64.1003
955.949 77.3499
955.955 94.8083
955.962 117.894
955.969 148.192
955.977 193.165
955.985 246.084
956.000 324.352
956.008 315.093
956.016 277.121
956.031 187.448
956.043 136.485
956.055 103.156
956.068 80.9919
956.080 66.0681
956.104 47.8654
956.128 37.7638
956.153 31.5313
956.177 27.4142
956.225 22.4432
956.274 19.6129
956.322 17.8243
956.420 15.7151
956.517 14.5235
956.614 13.7569
956.808 12.8154
957.002 12.2403
957.196 11.8367
957.585 11.2744
958.361 10.5423
959.138 10.0049
960.691 9.12326
962.245 8.30659
963.798 7.43456
964.575 6.93925
965.351 6.37291
966.128 5.69490
966.516 5.29556
966.905 4.84727
967.293 4.36861
967.487 4.15934
967.681 4.06769
967.876 4.39310
967.973 5.01341
968.070 6.44867
968.118 7.80032
968.143 8.75173
968.167 9.96143
968.191 11.5307
968.215 13.5879
968.240 16.3308
968.264 20.0448
968.288 25.2410
968.313 32.7046
968.337 43.8250
968.361 61.0763
968.385 89.6390
968.397 111.011
968.410 139.930
968.422 180.259
968.434 236.657
968.446 317.133
968.458 431.494
968.479 720.017
968.500 941.857
968.521 789.160
968.542 515.674
968.558 364.581
968.575 266.207
968.591 201.306
968.607 157.770
968.640 105.173
968.672 76.2310
968.705 58.6615
968.737 47.1758
968.802 33.4946
968.867 25.8502
968.932 21.0889
969.062 15.5952
969.192 12.5578
969.322 10.6340
969.582 8.28826
969.841 6.83759
970.101 5.78278
970.621 4.22376
970.881 3.64048
971.141 3.25423
971.401 3.27827
971.531 3.60045
971.661 4.30684
971.726 4.88069
971.791 5.66507
971.856 6.73105
971.920 8.17665
971.985 10.1515
972.050 12.8684
972.115 16.6542
972.180 22.0115
972.245 29.7904
972.310 41.4046
972.375 59.4074
972.440 88.6356
972.505 139.312
972.538 178.964
972.570 234.267
972.603 313.891
972.635 431.202
972.668 607.522
972.700 871.418
972.750 1482.60
972.800 1963.00
972.850 1661.44
972.900 1100.16
972.941 771.469
972.982 559.792
973.023 422.971
973.064 331.688
973.147 222.319
973.229 162.419
973.311 125.971
973.393 102.094
973.557 73.4232
973.722 57.2856
973.886 47.1510
974.050 40.2817
974.214 35.3600
974.543 28.8231
974.871 24.7115
975.200 21.8948
975.529 19.8455
976.186 17.0503
976.843 15.2138
978.157 12.8788
979.471 11.3700
980.786 10.2316
983.414 8.38564
986.043 6.57994
987.357 5.54382
988.671 4.33708
989.328 3.65641
989.985 2.93700
990.642 2.24085
991.300 1.79006
991.464 1.78382
991.628 1.85921
991.792 2.05133
991.957 2.41177
992.121 3.01797
992.203 3.44850
992.285 3.98914
992.368 4.66719
992.450 5.51418
992.614 7.90144
992.778 11.6849
992.942 17.8226
993.107 28.1640
993.271 46.5707
993.353 61.2636
993.435 82.1220
993.517 112.744
993.600 159.312
993.682 233.598
993.764 358.225
993.846 579.210
993.928 981.964
994.014 1673.49
994.100 2216.81
994.186 1876.43
994.272 1243.18
994.362 797.834
994.451 542.877
994.541 392.969
994.630 299.394
994.720 237.521
994.809 194.553
994.988 140.240
995.167 108.297
995.346 87.7590
995.704 63.5012
996.062 49.9936
996.420 41.5389
996.778 35.8058
997.136 31.6853
997.852 26.1830
998.568 22.6816
999.284 20.2492
1000.00 18.4484
1001.49 15.8270
1002.99 14.0159
1004.48 12.5934
1005.97 11.3344
1007.46 10.0564
1008.21 9.33850
1008.96 8.50180
1009.70 7.45340
1010.08 6.80846
1010.45 6.06536
1010.64 5.66753
1010.82 5.28877
1011.01 5.01167
1011.20 5.09129
1011.29 5.47812
1011.38 6.36924
1011.43 7.15291
1011.48 8.26626
1011.52 9.92668
1011.57 12.3269
1011.59 14.0182
1011.62 16.0240
1011.64 18.6353
1011.66 21.7845
1011.69 25.9661
1011.71 31.1257
1011.73 37.8275
1011.76 46.6728
1011.78 59.1729
1011.80 75.7575
1011.83 99.1689
1011.85 133.222
1011.87 187.248
1011.90 268.949
1011.92 401.153
1011.94 617.097
1011.97 1057.83
1012.00 1391.93
1012.03 1174.19
1012.06 784.101
1012.09 537.941
1012.11 384.355
1012.14 287.689
1012.16 226.344
1012.21 151.103
1012.27 111.241
1012.32 86.7278
1012.37 71.0412
1012.47 52.0670
1012.57 41.4087
1012.68 34.7128
1012.78 30.1664
1012.88 26.9254
1013.09 22.5526
1013.29 19.7741
1013.50 17.8456
1013.71 16.4239
1014.12 14.4109
1014.53 13.0087
1015.35 10.9800
1016.17 9.26823
1016.59 8.37500
1017.00 7.39394
1017.20 6.86106
1017.41 6.31407
1017.61 5.80610
1017.82 5.51726
1017.92 5.61217
1018.03 6.08878
1018.13 7.35933
1018.18 8.54353
1018.23 10.3665
1018.26 11.6545
1018.28 13.2770
1018.31 15.3347
1018.33 17.8526
1018.36 21.2195
1018.39 25.6217
1018.41 31.4620
1018.44 38.9952
1018.46 49.7231
1018.49 64.8620
1018.51 86.8619
1018.54 118.414
1018.57 169.401
1018.59 248.882
1018.62 388.950
1018.64 620.236
1018.67 1060.56
1018.70 1393.07
1018.73 1180.99
1018.76 782.926
1018.78 587.185
1018.80 449.998
1018.84 286.602
1018.88 200.460
1018.92 151.352
1018.96 119.411
1019.00 97.9564
1019.08 71.8915
1019.16 56.7124
1019.24 47.1877
1019.40 35.9699
1019.55 29.6685
1019.71 25.7198
1019.87 22.9967
1020.03 21.0284
1020.35 18.3389
1020.66 16.5761
1021.30 14.3443
1021.93 12.9131
1022.57 11.8445
1023.83 10.1515
1025.10 8.56526
1025.74 7.68955
1026.37 6.70219
1026.69 6.16355
1027.00 5.61475
1027.32 5.12247
1027.64 4.90265
1027.80 5.08390
1027.95 5.71442
1028.03 6.33772
1028.11 7.28001
1028.19 8.70830
1028.23 9.69406
1028.27 10.8829
1028.31 12.3978
1028.35 14.2957
1028.39 16.6899
1028.43 19.6506
1028.47 23.5415
1028.51 28.4587
1028.55 35.0895
1028.59 43.7273
1028.63 55.8017
1028.67 72.7110
1028.71 97.0634
1028.75 132.211
1028.79 187.661
1028.83 274.253
1028.87 422.307
1028.91 665.771
1028.95 1138.80
1029.00 1502.77
1029.05 1275.28
1029.10 846.879
1029.13 646.796
1029.16 507.072
1029.21 332.956
1029.27 236.783
1029.33 179.153
1029.39 141.543
1029.45 116.408
1029.56 85.1214
1029.68 66.8209
1029.80 55.2389
1030.03 41.5336
1030.26 33.8931
1030.49 29.0880
1030.73 25.8085
1030.96 23.4339
1031.43 20.2258
1031.89 18.1488
1032.36 16.6798
1032.82 15.5743
1033.76 13.9746
1034.69 12.8226
1036.55 11.0946
1038.41 9.57226
1039.35 8.74624
1040.28 7.79061
1040.74 7.23512
1041.21 6.61157
1041.68 5.91584
1042.14 5.18839
1042.37 4.86662
1042.61 4.66776
1042.84 4.79081
1043.07 5.75865
1043.13 6.27819
1043.19 6.96926
1043.25 7.89951
1043.31 9.15365
1043.36 10.8876
1043.42 13.2247
1043.48 16.4622
1043.54 21.0238
1043.60 27.7296
1043.66 37.5252
1043.71 52.5609
1043.77 76.7056
1043.83 117.778
1043.86 149.370
1043.89 192.913
1043.92 254.264
1043.95 342.553
1043.97 471.558
1044.00 659.477
1044.05 1131.66
1044.10 1497.02
1044.15 1268.14
1044.20 847.199
1044.25 535.622
1044.30 364.070
1044.35 264.153
1044.41 202.138
1044.46 161.270
1044.51 132.944
1044.61 97.1812
1044.72 76.1502
1044.82 62.6166
1045.03 46.5993
1045.24 37.6496
1045.45 32.0274
1045.65 28.2014
1045.86 25.4419
1046.28 21.7318
1046.70 19.3620
1047.11 17.7054
1047.53 16.4718
1048.36 14.7230
1049.19 13.5000
1050.86 11.7383
1052.52 10.2675
1053.36 9.49246
1054.19 8.60573
1054.60 8.09053
1055.02 7.51116
1055.44 6.85698
1055.85 6.14942
1056.06 5.81563
1056.27 5.56829
1056.48 5.56648
1056.68 6.23633
1056.79 7.15572
1056.84 7.88688
1056.89 8.88757
1056.94 10.2613
1057.00 12.1610
1057.05 14.8189
1057.07 16.5384
1057.10 18.5982
1057.13 21.0798
1057.15 24.0887
1057.20 32.2902
1057.26 44.9864
1057.31 65.5641
1057.33 80.7352
1057.36 100.948
1057.39 128.414
1057.41 166.558
1057.44 220.776
1057.46 299.600
1057.49 416.118
1057.52 587.884
1057.56 1001.08
1057.60 1328.82
1057.64 1124.88
1057.69 751.231
1057.73 472.933
1057.78 318.926
1057.83 230.577
1057.87 177.228
1057.92 141.410
1057.97 117.170
1058.06 86.2295
1058.15 68.0564
1058.24 56.3651
1058.43 42.5240
1058.62 34.7514
1058.80 29.8955
1058.99 26.5876
1059.18 24.2004
1059.55 20.9904
1059.92 18.9445
1060.29 17.5168
1060.67 16.4640
1061.41 14.9939
1062.16 13.9987
1063.64 12.6842
1065.13 11.7950
1066.62 11.1026
1069.60 9.95582
1072.58 8.83186
1074.07 8.18318
1075.56 7.40064
1077.05 6.37289
1077.80 5.70694
1078.54 4.89106
1078.91 4.41379
1079.29 3.89504
1079.66 3.36020
1080.03 2.92289
1080.22 2.84467
1080.40 3.01244
1080.50 3.26757
1080.59 3.71499
1080.68 4.45745
1080.78 5.66527
1080.82 6.53899
1080.87 7.63381
1080.92 9.07455
1080.96 10.9045
1081.01 13.3564
1081.06 16.5423
1081.10 20.9340
1081.15 26.8426
1081.20 35.3434
1081.24 47.3962
1081.29 65.9016
1081.33 94.3447
1081.38 142.682
1081.43 226.955
1081.45 297.446
1081.47 393.349
1081.50 530.309
1081.52 725.011
1081.56 1218.03
1081.60 1603.45
1081.64 1344.82
1081.68 884.554
1081.72 596.973
1081.75 423.850
1081.79 312.322
1081.82 241.625
1081.89 157.804
1081.96 113.403
1082.04 86.3529
1082.11 68.9925
1082.25 48.0634
1082.39 36.2300
1082.53 28.6732
1082.81 19.4524
1083.09 13.8285
1083.23 11.8881
1083.38 10.7962
1083.52 11.7803
1083.55 12.7797
1083.59 14.2932
1083.62 16.5801
1083.66 20.0127
1083.68 22.4075
1083.69 25.3763
1083.71 29.0744
1083.73 33.4235
1083.75 39.2021
1083.76 46.1054
1083.78 55.4504
1083.80 66.8581
1083.82 82.6930
1083.83 103.940
1083.85 132.969
1083.87 170.798
1083.89 227.228
1083.90 303.602
1083.92 421.054
1083.94 581.039
1083.97 1012.73
1084.00 1346.76
1084.03 1155.44
1084.06 779.513
1084.09 574.784
1084.11 435.741
1084.13 341.508
1084.15 278.441
1084.20 197.112
1084.24 150.157
1084.29 120.546
1084.33 100.568
1084.42 75.8410
1084.51 61.3150
1084.60 52.0648
1084.78 40.9503
1084.97 34.5293
1085.15 30.3922
1085.51 25.3153
1085.87 22.2996
1086.23 20.2803
1086.95 17.7077
1087.67 16.1064
1088.39 14.9932
1089.84 13.5104
1091.28 12.5310
1092.73 11.8080
1095.61 10.7433
1098.50 9.90533
1101.39 9.10479
1102.83 8.64790
1103.55 8.37799
1104.27 8.05492
1105.00 7.63437
1105.36 7.36151
1105.72 7.02232
1105.90 6.81973
1106.08 6.59469
1106.26 6.35193
1106.44 6.13241
1106.53 6.07026
1106.62 6.10216
1106.71 6.34754
1106.80 7.10997
1106.89 9.27650
1106.94 11.6729
1106.96 13.5875
1106.98 16.1244
1107.00 19.8881
1107.03 25.1384
1107.04 29.0138
1107.05 33.4447
1107.06 38.9829
1107.07 45.9918
1107.08 55.9253
1107.09 67.9417
1107.11 83.8964
1107.12 105.476
1107.13 138.461
1107.14 181.569
1107.15 242.862
1107.16 329.510
1107.18 558.796
1107.20 727.400
1107.21 704.486
1107.22 615.279
1107.24 406.437
1107.25 300.129
1107.27 231.642
1107.29 149.422
1107.32 105.664
1107.35 80.0641
1107.37 63.8538
1107.40 52.9283
1107.45 39.4985
1107.50 31.7901
1107.55 26.9022
1107.66 21.1872
1107.76 18.0001
1107.87 16.0295
1107.97 14.6904
1108.07 13.7248
1108.28 12.4238
1108.49 11.5943
1108.70 11.0140
1108.91 10.5819
1109.32 9.97096
1109.74 9.55003
1110.57 8.97384
1111.41 8.56494
1112.24 8.23332
1113.91 7.67109
1117.24 6.63666
1120.57 5.48359
1122.24 4.80114
1123.90 4.01445
1125.57 3.09859
1127.24 2.05887
1128.07 1.53123
1128.90 1.08019
1129.32 0.933824
1129.73 0.895028
1129.94 0.938180
1130.05 0.980808
1130.15 1.04026
1130.36 1.21991
1130.57 1.50206
1130.78 1.92303
1130.98 2.52579
1131.19 3.37764
1131.40 4.57222
1131.61 6.25538
1131.82 8.61537
1132.03 11.9713
1132.23 16.8179
1132.44 24.0110
1132.65 34.8919
1132.86 52.0502
1133.07 80.4809
1133.28 131.101
1133.38 171.297
1133.48 228.434
1133.59 311.995
1133.69 437.826
1133.80 631.930
1133.90 932.047
1134.05 1596.68
1134.20 2118.82
1134.35 1796.77
1134.50 1194.84
1134.63 823.373
1134.76 591.234
1134.89 442.788
1135.02 345.654
1135.28 230.543
1135.55 168.115
1135.81 130.400
1136.07 105.740
1136.59 76.2463
1137.11 59.6115
1137.63 49.1732
1138.15 42.0735
1138.67 36.9857
1139.72 30.2102
1140.76 25.9347
1141.80 22.9981
1142.85 20.8542
1144.93 17.9141
1147.02 15.9582
1151.19 13.3803
1155.36 11.5116
1157.45 10.6255
1159.54 9.66083
1161.62 8.47889
1162.66 7.72715
1163.71 6.79106
1164.23 6.22609
1164.75 5.58348
1165.27 4.86345
1165.79 4.13089
1166.05 3.83526
1166.32 3.71183
1166.58 4.01615
1166.71 4.50078
1166.84 5.39693
1166.90 6.09115
1166.97 6.99884
1167.03 8.20188
1167.10 9.80205
1167.16 11.9828
1167.23 14.8933
1167.29 18.8803
1167.36 24.4344
1167.42 32.4818
1167.49 44.0932
1167.55 61.6295
1167.62 89.2275
1167.68 134.946
1167.75 215.565
1167.78 280.293
1167.81 367.851
1167.85 495.126
1167.88 667.935
1167.94 1147.76
1168.00 1522.14
1168.06 1295.93
1168.12 863.703
1168.18 571.268
1168.24 398.145
1168.30 293.591
1168.36 227.028
1168.42 182.366
1168.48 151.000
1168.60 110.876
1168.72 86.9866
1168.84 71.4912
1169.08 53.0818
1169.32 42.6868
1169.56 36.1441
1169.80 31.6907
1170.04 28.4934
1170.52 24.1965
1171.00 21.4687
1171.48 19.5768
1171.96 18.1889
1172.92 16.2687
1173.88 14.9844
1174.84 14.0454
1175.79 13.3129
1177.71 12.1999
1179.63 11.3374
1183.47 9.89051
1187.30 8.40314
1189.22 7.50225
1191.14 6.38100
1192.10 5.69278
1193.05 4.88727
1194.01 3.94029
1194.97 2.85998
1195.45 2.31203
1195.93 1.84921
1196.17 1.70343
1196.41 1.67376
1196.65 1.84220
1196.77 2.04166
1196.89 2.34807
1197.01 2.80242
1197.13 3.45221
1197.25 4.36670
1197.37 5.64435
1197.49 7.42793
1197.61 9.92933
1197.73 13.4715
1197.85 18.5113
1197.97 25.9538
1198.09 37.1677
1198.21 54.6703
1198.33 82.9617
1198.45 132.303
1198.57 224.554
1198.63 301.279
1198.69 413.384
1198.75 579.976
1198.81 821.910
1198.90 1416.02
1199.00 1882.23
1199.10 1602.20
1199.19 1069.01
1199.26 810.408
1199.32 626.440
1199.45 404.677
1199.57 285.114
1199.70 214.536
1199.82 169.239
1199.95 138.818
1200.20 101.147
1200.45 79.2688
1200.70 65.3625
1201.20 48.9400
1201.70 39.7709
1202.20 33.9995
1202.70 30.0616
1203.20 27.2193
1204.20 23.3881
1205.21 20.9333
1206.21 19.2231
1207.21 17.9599
1209.21 16.2003
1211.22 15.0144
1215.22 13.4506
1219.23 12.3667
1223.24 11.4073
1225.24 10.8577
1226.24 10.5207
1227.24 10.0990
1227.74 9.83482
1228.25 9.51468
1228.75 9.11145
1229.25 8.57950
1229.50 8.24196
1229.75 7.84174
1230.00 7.36255
1230.25 6.81110
1230.38 6.52663
1230.50 6.28540
1230.63 6.18937
1230.75 6.52709
1230.88 8.20676
1230.91 9.14426
1230.94 10.4222
1230.97 12.2282
1231.00 14.8172
1231.03 18.7525
1231.05 21.4236
1231.06 24.5158
1231.08 28.6287
1231.09 33.4834
1231.11 40.0855
1231.13 48.0769
1231.14 59.2620
1231.16 74.3323
1231.17 95.0646
1231.19 122.107
1231.20 163.241
1231.22 219.383
1231.24 308.148
1231.25 430.885
1231.28 734.288
1231.30 977.630
1231.31 949.280
1231.33 829.089
1231.35 557.332
1231.37 400.563
1231.39 297.315
1231.41 229.227
1231.43 182.961
1231.47 126.697
1231.51 95.2748
1231.55 75.9251
1231.59 63.1052
1231.67 47.6967
1231.75 38.7874
1231.83 33.1524
1231.91 29.3129
1231.99 26.5797
1232.15 22.8883
1232.31 20.5747
1232.47 18.9895
1232.63 17.8385
1232.95 16.2775
1233.26 15.2706
1233.58 14.5648
1233.90 14.0414
1234.54 13.3047
1235.18 12.8042
1236.45 12.1404
1237.73 11.6924
1239.00 11.3460
1241.55 10.7828
1244.10 10.2512
1245.38 9.95203
1246.65 9.59204
1247.93 9.10714
1248.56 8.77518
1249.20 8.33571
1249.52 8.05320
1249.84 7.71012
1250.16 7.28575
1250.48 6.75893
1250.64 6.45279
1250.80 6.13392
1250.95 5.84367
1251.11 5.72320
1251.19 5.85147
1251.27 6.27911
1251.35 7.32638
1251.39 8.28741
1251.43 9.70925
1251.47 11.9567
1251.49 13.5293
1251.51 15.5261
1251.53 18.0866
1251.55 21.4088
1251.57 25.7792
1251.59 31.2867
1251.61 39.1249
1251.63 50.0396
1251.65 65.6463
1251.67 88.6661
1251.69 123.857
1251.71 179.795
1251.73 271.923
1251.75 415.520
1251.78 711.232
1251.80 950.005
1251.83 812.577
1251.85 544.272
1251.88 342.909
1251.91 231.685
1251.93 168.036
1251.96 130.123
1251.99 104.246
1252.02 86.4399
1252.07 64.4090
1252.13 51.2418
1252.18 42.9310
1252.29 33.0565
1252.40 27.4783
1252.51 24.0041
1252.63 21.6187
1252.74 19.9164
1252.96 17.6292
1253.18 16.1776
1253.40 15.1764
1253.62 14.4440
1254.06 13.4394
1254.50 12.7802
1254.95 12.3081
1255.39 11.9486
1256.27 11.4242
1257.16 11.0448
1258.93 10.4795
1261.11 9.88969
1262.20 9.57199
1263.29 9.19187
1263.83 8.95794
1264.38 8.67677
1264.92 8.32340
1265.47 7.85611
1265.74 7.55809
1266.02 7.20081
1266.29 6.76969
1266.56 6.26205
1266.70 5.99041
1266.83 5.74360
1266.97 5.60066
1267.11 5.79250
1267.17 6.20983
1267.24 7.08073
1267.31 8.84578
1267.34 10.3339
1267.38 12.4991
1267.41 15.7134
1267.43 17.8983
1267.45 20.6179
1267.46 24.0357
1267.48 28.3788
1267.50 33.9678
1267.51 41.2657
1267.53 50.9556
1267.55 64.0711
1267.57 82.2177
1267.58 107.956
1267.60 145.469
1267.62 201.675
1267.63 287.771
1267.65 419.726
1267.68 713.851
1267.70 949.312
1267.71 921.309
1267.73 804.058
1267.75 539.366
1267.77 412.619
1267.78 326.480
1267.81 215.250
1267.84 154.018
1267.87 118.338
1267.91 94.4841
1267.94 78.2552
1268.00 58.3557
1268.06 46.5915
1268.12 39.1905
1268.24 30.3792
1268.37 25.4659
1268.49 22.3808
1268.61 20.2821
1268.73 18.7805
1268.98 16.7532
1269.23 15.4694
1269.47 14.5791
1269.72 13.9299
1270.21 13.0373
1270.70 12.4527
1271.19 12.0360
1271.68 11.7210
1272.66 11.2694
1273.65 10.9539
1275.61 10.5221
1277.58 10.2211
1279.54 9.98551
1283.47 9.61155
1291.33 9.01842
1299.19 8.47451
1307.04 7.88869
1310.97 7.54997
1314.90 7.15167
1318.83 6.64499
1320.80 6.31839
1322.76 5.90413
1324.73 5.33322
1325.71 4.94499
1326.69 4.44053
1327.18 4.12473
1327.67 3.75360
1328.16 3.31706
1328.66 2.82329
1328.90 2.57801
1329.15 2.38162
1329.39 2.33841
1329.52 2.45138
1329.64 2.73912
1329.76 3.34032
1329.82 3.83562
1329.88 4.51282
1329.95 5.47163
1330.01 6.79475
1330.07 8.66796
1330.13 11.3657
1330.19 15.4207
1330.25 21.5029
1330.31 31.3230
1330.37 47.5013
1330.41 59.9849
1330.44 77.1051
1330.47 101.196
1330.50 134.766
1330.53 186.412
1330.56 263.339
1330.59 389.586
1330.62 584.628
1330.66 994.739
1330.70 1311.03
1330.74 1111.96
1330.78 733.585
1330.81 543.554
1330.84 411.827
1330.87 321.042
1330.89 259.171
1330.95 178.142
1331.00 132.312
1331.06 103.066
1331.12 83.8648
1331.23 60.3547
1331.34 46.8176
1331.45 38.2869
1331.67 28.4037
1331.89 22.9342
1332.11 19.5419
1332.33 17.2345
1332.55 15.5839
1333.00 13.3717
1333.44 11.9614
1333.88 10.9804
1334.33 10.2539
1335.21 9.23564
1336.10 8.53694
1337.87 7.58248
1339.64 6.89210
1341.41 6.30633
1344.96 5.19279
1346.73 4.59120
1348.50 3.91905
1350.27 3.14598
1352.05 2.25148
1352.93 1.76886
1353.82 1.29875
1354.70 0.936531
1355.15 0.869222
1355.37 0.890423
1355.59 0.965418
1355.81 1.11429
1356.03 1.36260
1356.26 1.75096
1356.48 2.33095
1356.70 3.18952
1356.92 4.44176
1357.14 6.29133
1357.36 9.02954
1357.58 13.2015
1357.81 19.6823
1358.03 30.2546
1358.25 48.2988
1358.47 81.8070
1358.58 109.633
1358.69 150.243
1358.80 212.925
1358.91 313.091
1359.02 479.687
1359.13 757.691
1359.27 1290.76
1359.40 1719.48
1359.53 1463.64
1359.67 969.059
1359.76 718.434
1359.85 544.190
1359.94 423.886
1360.03 340.024
1360.21 233.198
1360.39 172.042
1360.57 133.526
1360.76 107.910
1361.12 76.5419
1361.48 58.6337
1361.84 47.2939
1362.57 33.9876
1363.30 26.5144
1364.02 21.7098
1364.75 18.2982
1365.47 15.6691
1366.93 11.5366
1367.65 9.66067
1368.38 7.71964
1369.10 5.61110
1369.47 4.53108
1369.83 3.63021
1370.01 3.42283
1370.10 3.45518
1370.19 3.63214
1370.28 4.02662
1370.38 4.74427
1370.47 5.95366
1370.56 7.90241
1370.60 9.32237
1370.65 11.0945
1370.69 13.4147
1370.74 16.3378
1370.78 20.2165
1370.83 25.1886
1370.87 31.7624
1370.92 40.5786
1370.97 52.9189
1371.01 69.7884
1371.06 93.8563
1371.10 129.177
1371.15 184.186
1371.19 269.066
1371.24 406.536
1371.28 630.754
1371.34 1101.82
1371.40 1475.33
1371.46 1262.76
1371.52 853.971
1371.58 573.378
1371.64 404.728
1371.69 301.615
1371.75 235.320
1371.81 190.473
1371.87 158.759
1371.98 118.114
1372.10 93.4107
1372.21 77.3726
1372.44 57.9358
1372.68 46.8592
1372.91 39.7947
1373.14 34.9265
1373.37 31.3772
1373.83 26.5504
1374.29 23.4093
1375.22 19.5119
1376.14 17.1180
1377.06 15.4322
1378.91 13.0331
1380.76 11.1214
1381.69 10.1646
1382.61 9.10387
1383.53 7.82106
1384.00 7.04601
1384.46 6.16691
1384.69 5.70689
1384.92 5.27962
1385.15 4.99783
1385.38 5.18118
1385.50 5.70824
1385.56 6.18096
1385.61 6.85095
1385.67 7.82489
1385.73 9.21820
1385.79 11.2220
1385.84 14.0772
1385.87 16.0063
1385.90 18.3663
1385.93 21.2724
1385.96 24.8789
1386.02 35.1053
1386.07 51.5179
1386.10 63.8716
1386.13 80.4069
1386.16 102.971
1386.19 134.426
1386.22 179.287
1386.25 244.695
1386.28 341.606
1386.31 478.864
1386.35 831.426
1386.40 1111.08
1386.45 950.860
1386.50 642.191
1386.54 420.699
1386.59 291.903
1386.64 215.232
1386.69 166.890
1386.74 134.652
1386.79 112.099
1386.89 83.3276
1386.99 66.2155
1387.08 55.1058
1387.28 41.8255
1387.48 34.3201
1387.67 29.5609
1387.87 26.2958
1388.06 23.9236
1388.46 20.7097
1388.85 18.6257
1389.24 17.1527
1389.63 16.0445
1390.42 14.4534
1391.20 13.3212
1392.77 11.6684
1394.33 10.2860
1395.12 9.56585
1395.90 8.74476
1396.69 7.71560
1397.08 7.06687
1397.47 6.28729
1397.67 5.84350
1397.86 5.37611
1398.06 4.93310
1398.25 4.67680
1398.35 4.76258
1398.45 5.19056
1398.50 5.63452
1398.55 6.32958
1398.60 7.40138
1398.65 9.05330
1398.70 11.6279
1398.72 13.4761
1398.74 15.7310
1398.77 18.7454
1398.79 22.4988
1398.82 27.6399
1398.84 34.2271
1398.87 43.5617
1398.89 56.0085
1398.92 74.4987
1398.94 100.546
1398.97 141.787
1398.99 204.097
1399.01 304.416
1399.04 467.033
1399.07 805.824
1399.10 1068.54
1399.13 913.937
1399.16 611.015
1399.19 434.165
1399.22 322.810
1399.24 249.109
1399.27 198.853
1399.32 137.488
1399.37 103.061
1399.42 81.7896
1399.47 67.6581
1399.57 50.4627
1399.67 40.6359
1399.77 34.3921
1399.87 30.1194
1399.97 27.0317
1400.17 22.8928
1400.37 20.2575
1400.57 18.4336
1400.77 17.0928
1401.17 15.2389
1401.57 13.9959
1402.37 12.3656
1403.17 11.2607
1403.97 10.3843
1405.57 8.85647
1406.37 8.07869
1407.17 7.22624
1407.97 6.24288
1408.77 5.06618
1409.17 4.39152
1409.57 3.67157
1409.97 2.96840
1410.37 2.50366
1410.57 2.56112
1410.67 2.74449
1410.77 3.09228
1410.87 3.67884
1410.97 4.61745
1411.07 6.08547
1411.12 7.10145
1411.17 8.36975
1411.27 11.9527
1411.37 17.6845
1411.47 27.1533
1411.57 43.5466
1411.62 56.2581
1411.67 73.8656
1411.72 98.8512
1411.77 135.316
1411.82 190.257
1411.87 275.898
1411.92 413.441
1411.97 635.786
1412.03 1102.53
1412.10 1480.50
1412.17 1269.38
1412.23 853.774
1412.28 652.489
1412.32 508.033
1412.41 332.608
1412.49 235.990
1412.58 179.267
1412.66 142.478
1412.75 117.731
1412.92 86.7425
1413.09 68.7124
1413.26 57.1498
1413.60 43.4505
1413.94 35.7507
1414.29 30.8772
1414.63 27.5358
1414.97 25.1157
1415.65 21.8321
1416.34 19.7166
1417.02 18.2318
1417.70 17.1304
1419.07 15.5886
1420.44 14.5456
1423.17 13.1824
1425.91 12.2866
1428.64 11.6164
1434.11 10.5822
1439.58 9.66545
1442.31 9.16602
1445.05 8.57176
1447.78 7.77384
1449.15 7.22783
1450.51 6.50320
1451.20 6.03780
1451.88 5.47433
1452.57 4.77898
1453.25 3.92142
1453.59 3.43202
1453.93 2.92909
1454.27 2.49421
1454.62 2.38362
1454.79 2.66848
1454.87 2.98579
1454.96 3.47772
1455.04 4.23350
1455.13 5.35114
1455.21 7.03932
1455.30 9.54693
1455.39 13.4215
1455.47 19.4136
1455.56 29.2459
1455.64 45.7832
1455.68 58.5985
1455.73 76.2360
1455.77 101.100
1455.81 136.127
1455.86 189.476
1455.90 269.433
1455.94 398.617
1455.98 598.496
1456.04 1033.08
1456.10 1385.60
1456.16 1187.12
1456.22 795.829
1456.27 569.460
1456.31 423.044
1456.36 325.856
1456.40 259.481
1456.50 178.346
1456.59 132.806
1456.68 104.670
1456.77 85.9858
1456.96 63.2706
1457.14 50.2560
1457.32 42.0571
1457.51 36.4592
1457.69 32.4249
1458.06 27.0330
1458.43 23.6411
1458.80 21.3188
1459.17 19.6343
1459.90 17.3562
1460.64 15.8914
1461.38 14.8656
1462.11 14.1064
1463.58 13.0472
1465.06 12.3340
1468.00 11.4070
1470.95 10.8015
1473.90 10.3511
1479.79 9.66952
1485.68 9.10799
1491.57 8.55120
1494.52 8.23128
1495.99 8.04423
1497.47 7.82263
1498.94 7.53658
1499.68 7.34869
1500.41 7.10653
1500.78 6.95277
1501.15 6.76679
1501.52 6.53422
1501.89 6.23333
1502.07 6.04695
1502.25 5.83360
1502.44 5.59418
1502.62 5.35307
1502.71 5.26081
1502.81 5.23379
1502.90 5.36648
1502.99 5.90097
1503.08 7.55221
1503.13 9.43328
1503.15 10.9126
1503.17 12.9729
1503.20 15.9051
1503.22 20.1927
1503.24 26.6775
1503.26 31.4049
1503.27 36.9094
1503.28 44.6515
1503.29 53.9328
1503.30 67.4196
1503.31 84.1672
1503.32 109.434
1503.34 141.977
1503.35 192.552
1503.36 261.745
1503.38 443.135
1503.40 594.598
1503.41 575.672
1503.42 506.829
1503.44 340.679
1503.46 239.149
1503.48 172.810
1503.50 130.741
1503.51 103.031
1503.55 70.3922
1503.58 53.0927
1503.62 42.2872
1503.66 35.2396
1503.73 26.9031
1503.80 22.1409
1503.87 19.1891
1503.94 17.1805
1504.01 15.7361
1504.16 13.8024
1504.30 12.5860
1504.44 11.7538
1504.58 11.1532
1504.87 10.3322
1505.15 9.79987
1505.44 9.42089
1505.73 9.13587
1506.30 8.72457
1506.87 8.43182
1508.01 8.01193
1509.15 7.68928
1510.29 7.40287
1512.57 6.83077
1514.86 6.13514
1516.00 5.68038
1517.14 5.09546
1517.71 4.72890
1518.28 4.29317
1518.85 3.76946
1519.42 3.14735
1519.71 2.80814
1519.99 2.48347
1520.28 2.25239
1520.57 2.35468
1520.71 2.72914
1520.85 3.58388
1520.92 4.32921
1520.99 5.39484
1521.07 6.94478
1521.14 9.22758
1521.21 12.7159
1521.28 18.0456
1521.35 26.6000
1521.42 41.0521
1521.46 52.2672
1521.49 67.7222
1521.53 89.5705
1521.56 120.319
1521.60 167.654
1521.64 238.885
1521.67 355.928
1521.71 538.771
1521.75 918.995
1521.80 1225.89
1521.85 1042.25
1521.90 694.747
1521.94 467.729
1521.98 329.566
1522.03 244.359
1522.07 190.352
1522.16 126.723
1522.24 92.6725
1522.33 72.0701
1522.42 58.8409
1522.59 43.0369
1522.77 34.1163
1522.94 28.5462
1523.12 24.7606
1523.29 22.0383
1523.64 18.3991
1523.99 16.0950
1524.34 14.5054
1524.69 13.3414
1525.38 11.7238
1526.08 10.6295
1527.47 9.13489
1528.87 7.98575
1529.57 7.42159
1530.26 6.80811
1530.96 6.08104
1531.31 5.64559
1531.66 5.14381
1532.01 4.57599
1532.18 4.30241
1532.36 4.12734
1532.53 4.35195
1532.62 4.91917
1532.71 6.30704
1532.75 7.65354
1532.79 9.76955
1532.81 11.3354
1532.84 13.3872
1532.86 16.1165
1532.88 19.6179
1532.90 24.6538
1532.92 31.7944
1532.95 42.2376
1532.97 57.2084
1532.99 81.8283
1533.01 122.880
1533.03 194.972
1533.05 316.990
1533.08 542.917
1533.10 714.826
1533.11 692.936
1533.12 604.263
1533.15 404.130
1533.17 257.275
1533.20 176.832
1533.22 129.154
1533.24 99.2128
1533.27 79.3274
1533.29 65.4725
1533.34 47.8979
1533.39 37.3525
1533.44 30.7143
1533.53 22.8197
1533.63 18.3376
1533.73 15.5246
1533.92 12.1421
1534.11 10.1216
1534.30 8.72534
1534.69 6.72241
1534.88 5.91032
1535.07 5.19144
1535.27 4.61233
1535.46 4.40234
1535.56 4.63494
1535.65 5.35617
1535.70 6.03229
1535.75 7.04310
1535.80 8.54533
1535.84 10.7880
1535.89 14.2689
1535.94 19.5713
1535.96 23.2981
1535.99 28.0570
1536.01 34.2069
1536.04 42.2651
1536.06 52.9947
1536.08 67.5484
1536.11 87.7123
1536.13 116.327
1536.16 158.016
1536.18 220.383
1536.20 315.676
1536.23 461.303
1536.26 793.936
1536.30 1064.42
1536.32 1034.14
1536.34 908.992
1536.37 612.329
1536.40 469.441
1536.42 366.575
1536.47 240.070
1536.51 171.127
1536.56 130.830
1536.60 104.305
1536.65 86.5933
1536.74 64.2140
1536.83 51.1572
1536.92 42.7679
1537.10 32.8069
1537.29 27.1685
1537.47 23.6127
1537.65 21.1664
1537.83 19.3840
1538.20 16.9557
1538.56 15.3827
1538.93 14.2698
1539.29 13.4396
1540.02 12.2655
1540.75 11.4609
1542.21 10.3895
1543.66 9.66515
1545.12 9.10481
1548.04 8.18831
1550.95 7.30306
1552.41 6.79604
1553.87 6.18700
1555.33 5.39299
1556.06 4.88270
1556.79 4.26393
1557.15 3.90868
1557.51 3.53231
1557.88 3.16660
1558.24 2.92999
1558.43 2.96453
1558.61 3.24737
1558.70 3.55693
1558.79 4.05139
1558.88 4.82507
1558.97 6.03200
1559.06 7.93451
1559.11 9.29752
1559.15 11.0030
1559.20 13.2558
1559.25 16.1369
1559.29 20.0440
1559.34 25.2008
1559.38 32.4634
1559.43 42.4913
1559.47 57.4036
1559.52 79.3801
1559.56 114.720
1559.61 171.761
1559.66 272.916
1559.70 448.386
1559.75 765.085
1559.80 1021.54
1559.85 872.263
1559.90 579.995
1559.93 439.564
1559.96 339.326
1560.03 218.921
1560.09 153.743
1560.15 115.227
1560.22 90.6781
1560.28 74.0537
1560.41 53.5132
1560.53 41.5761
1560.66 34.0304
1560.91 25.1039
1561.16 20.0318
1561.42 16.7625
1561.67 14.4164
1561.92 12.6048
1562.43 9.74810
1562.68 8.48305
1562.93 7.27094
1563.18 6.22689
1563.31 5.98175
1563.44 6.34956
1563.50 7.06124
1563.56 8.49963
1563.59 9.69105
1563.62 11.3010
1563.66 13.6359
1563.69 16.8495
1563.72 21.6469
1563.75 28.5179
1563.78 39.3312
1563.81 55.8987
1563.85 84.3063
1563.88 132.648
1563.89 171.711
1563.91 226.153
1563.92 302.644
1563.94 401.584
1563.97 698.883
1564.00 932.592
1564.03 803.086
1564.06 541.393
1564.09 369.323
1564.12 266.960
1564.15 200.711
1564.18 158.974
1564.23 109.024
1564.29 82.3557
1564.35 65.8468
1564.40 55.1652
1564.52 42.0840
1564.63 34.5988
1564.74 29.8146
1564.97 24.1073
1565.19 20.8359
1565.42 18.7125
1565.87 16.0983
1566.32 14.5233
1566.78 13.4486
1567.68 12.0316
1568.58 11.0946
1569.49 10.3915
1571.30 9.30338
1573.10 8.32633
1574.01 7.78693
1574.91 7.14339
1575.36 6.75421
1575.82 6.29598
1576.27 5.74186
1576.72 5.05922
1576.95 4.66344
1577.17 4.24115
1577.40 3.83443
1577.62 3.58949
1577.74 3.65873
1577.85 4.03860
1577.91 4.44287
1577.96 5.06825
1578.02 6.05457
1578.08 7.55314
1578.13 9.93868
1578.19 13.6826
1578.22 16.4762
1578.25 19.9870
1578.27 24.5964
1578.30 30.7413
1578.33 39.4321
1578.36 51.1381
1578.39 67.7973
1578.42 92.2148
1578.44 130.883
1578.47 190.108
1578.50 286.575
1578.53 445.255
1578.56 767.672
1578.60 1031.34
1578.64 885.837
1578.67 594.753
1578.70 444.000
1578.72 342.553
1578.75 268.952
1578.77 218.886
1578.82 153.786
1578.87 116.543
1578.92 92.4384
1578.96 76.4986
1579.06 56.5904
1579.16 45.0035
1579.26 37.7009
1579.45 29.0841
1579.65 24.2406
1579.84 21.2018
1580.03 19.1128
1580.23 17.6068
1580.62 15.5687
1581.01 14.2568
1581.40 13.3390
1581.78 12.6594
1582.56 11.7067
1583.34 11.0630
1584.89 10.2196
1586.22 9.73615
1587.54 9.36356
1590.18 8.79235
1592.83 8.33589
1595.47 7.92236
1598.12 7.49926
1599.44 7.26177
1600.76 6.98390
1602.09 6.62451
1602.75 6.38721
1603.41 6.07985
1603.74 5.88522
1604.07 5.65156
1604.40 5.36328
1604.73 5.00521
1604.90 4.79555
1605.06 4.57363
1605.23 4.36261
1605.39 4.24599
1605.47 4.29840
1605.56 4.53132
1605.64 5.14383
1605.72 6.58824
1605.76 7.99570
1605.81 10.2032
1605.85 13.8637
1605.87 16.6726
1605.89 20.2613
1605.91 25.4217
1605.93 32.7157
1605.95 43.3340
1605.97 58.4157
1605.99 83.0275
1606.01 121.037
1606.03 188.797
1606.05 303.765
1606.08 515.859
1606.10 692.734
1606.11 673.822
1606.12 590.871
1606.15 396.327
1606.18 245.161
1606.20 164.589
1606.23 118.843
1606.26 90.9431
1606.28 72.7777
1606.31 60.2941
1606.36 44.6611
1606.42 35.4031
1606.47 29.6003
1606.58 22.7484
1606.69 18.8999
1606.80 16.5123
1606.91 14.8766
1607.02 13.7112
1607.23 12.1472
1607.45 11.1546
1607.67 10.4692
1607.88 9.96678
1608.32 9.27572
1608.75 8.81749
1609.62 8.23152
1610.49 7.85506
1611.36 7.57824
1613.09 7.16636
1616.56 6.55071
1620.03 5.99098
1623.51 5.36944
1625.24 4.99757
1626.98 4.54909
1628.71 3.96685
1629.58 3.59217
1630.45 3.12999
1631.32 2.54834
1631.75 2.21301
1632.18 1.88683
1632.40 1.76836
1632.62 1.74425
1632.84 1.94524
1632.94 2.22095
1633.05 2.70733
1633.16 3.55999
1633.27 5.03469
1633.32 6.18310
1633.38 7.71313
1633.43 9.81581
1633.49 12.7619
1633.54 17.0856
1633.60 23.3930
1633.65 33.1045
1633.70 48.8195
1633.76 75.9398
1633.78 97.1359
1633.81 126.814
1633.84 169.494
1633.87 232.564
1633.89 327.837
1633.92 472.040
1633.96 803.696
1634.00 1063.57
1634.04 901.377
1634.08 597.249
1634.11 435.410
1634.14 328.306
1634.17 254.807
1634.19 203.345
1634.25 138.121
1634.31 101.641
1634.36 78.5607
1634.42 63.4966
1634.53 45.0510
1634.65 34.6138
1634.76 28.0575
1634.98 20.4762
1635.21 16.2770
1635.44 13.6493
1635.89 10.5517
1636.34 8.75009
1636.79 7.53384
1637.69 5.85182
1638.14 5.17328
1638.60 4.53617
1639.05 3.91801
1639.50 3.34151
1639.72 3.11009
1639.95 2.98828
1640.18 3.12356
1640.29 3.38864
1640.40 3.89089
1640.51 4.80197
1640.63 6.42329
1640.68 7.68305
1640.74 9.36316
1640.80 11.6679
1640.85 14.8834
1640.91 19.5653
1640.96 26.3261
1641.02 36.8046
1641.08 53.1726
1641.13 81.1980
1641.19 130.770
1641.22 170.507
1641.25 226.784
1641.27 307.512
1641.30 422.847
1641.35 720.274
1641.40 961.081
1641.43 934.459
1641.45 817.871
1641.50 545.183
1641.54 398.341
1641.57 298.658
1641.61 231.254
1641.64 185.681
1641.71 128.022
1641.78 95.1632
1641.86 74.6981
1641.93 61.0512
1642.07 44.4235
1642.21 34.9364
1642.35 28.9296
1642.64 21.8919
1642.92 17.9590
1643.21 15.4868
1643.49 13.7894
1643.77 12.5518
1644.34 10.8591
1644.91 9.74808
1646.05 8.34046
1647.18 7.44576
1648.32 6.79536
1650.59 5.83934
1652.87 5.09335
1655.14 4.43232
1659.69 3.16256
1664.23 1.82229
1666.51 1.14067
1668.78 0.576085
1669.35 0.490353
1669.92 0.448619
1670.48 0.470350
1671.05 0.584102
1671.34 0.688835
1671.62 0.834197
1671.90 1.02968
1672.19 1.28686
1672.47 1.62043
1672.76 2.04919
1673.32 3.29728
1673.89 5.33909
1674.46 8.72040
1675.03 14.5197
1675.60 25.0239
1675.88 33.5429
1676.17 45.7468
1676.45 63.8773
1676.73 91.9490
1677.02 137.691
1677.30 216.979
1677.59 364.077
1677.87 648.882
1678.14 1097.68
1678.40 1463.52
1678.67 1254.42
1678.93 831.755
1679.13 598.919
1679.33 442.241
1679.52 337.391
1679.72 265.497
1680.12 177.514
1680.51 128.242
1680.91 97.9240
1681.31 77.8720
1682.10 53.6126
1682.89 39.7532
1683.68 30.8994
1685.26 20.1320
1686.85 13.4711
1687.64 10.8198
1688.43 8.38619
1689.22 6.06701
1689.62 4.96811
1690.01 4.01561
1690.41 3.57308
1690.51 3.66889
1690.61 3.92941
1690.71 4.43846
1690.81 5.33336
1690.90 6.84889
1690.95 7.97275
1691.00 9.40806
1691.05 11.3300
1691.10 13.8246
1691.15 17.2395
1691.20 21.7997
1691.25 28.2698
1691.30 37.3000
1691.35 50.8302
1691.40 71.0150
1691.45 103.822
1691.50 157.716
1691.55 252.511
1691.60 423.822
1691.65 722.489
1691.70 965.106
1691.75 824.140
1691.80 546.602
1691.86 352.836
1691.91 240.619
1691.96 174.152
1692.02 132.460
1692.07 104.795
1692.12 85.5274
1692.23 61.0759
1692.33 46.6079
1692.44 37.2367
1692.65 26.0138
1692.86 19.5970
1693.08 15.4392
1693.50 10.2928
1693.92 7.10633
1694.35 4.88074
1694.77 3.26495
1695.19 2.18417
1695.41 1.87073
1695.62 1.75166
1695.72 1.78118
1695.83 1.88175
1695.94 2.06462
1696.04 2.34350
1696.15 2.73518
1696.25 3.26025
1696.36 3.94406
1696.47 4.81796
1696.68 7.30172
1696.89 11.1367
1697.10 17.0796
1697.31 26.3277
1697.53 41.0044
1697.74 64.8798
1697.95 105.790
1698.16 179.499
1698.27 238.209
1698.37 320.421
1698.48 436.372
1698.58 596.841
1698.79 1068.82
1699.00 1451.05
1699.21 1254.37
1699.42 860.709
1699.56 662.186
1699.69 520.454
1699.97 345.799
1700.24 249.992
1700.51 192.494
1700.79 155.254
1701.06 129.635
1701.61 97.2988
1702.16 78.0763
1702.71 65.5420
1703.80 50.3144
1704.90 41.4603
1706.00 35.6839
1708.19 28.5356
1710.38 24.1737
1712.58 21.0454
1713.67 19.6616
1714.77 18.1899
1715.32 17.2864
1715.59 16.7332
1715.87 16.0561
1716.14 15.1735
1716.28 14.6168
1716.41 13.9680
1716.48 13.6169
1716.55 13.2842
1716.62 13.0336
1716.69 13.0751
1716.76 14.0543
1716.79 15.4583
1716.82 18.3171
1716.86 24.6140
1716.88 30.1773
1716.89 38.8385
1716.90 45.3763
1716.91 52.8318
1716.92 63.7292
1716.93 76.4383
1716.94 95.4340
1716.94 118.022
1716.95 152.191
1716.96 192.666
1716.97 259.111
1716.98 340.445
1717.00 461.175
1717.01 455.045
1717.02 405.105
1717.04 285.440
1717.06 210.305
1717.07 160.547
1717.09 127.642
1717.10 105.208
1717.14 77.7495
1717.17 62.6196
1717.20 52.8216
1717.23 46.4330
1717.29 38.3698
1717.36 33.5986
1717.42 30.5625
1717.55 26.8870
1717.67 24.7374
1717.80 23.3414
1718.05 21.6006
1718.30 20.5285
1718.56 19.7812
1719.06 18.7598
1719.57 18.0438
1720.07 17.4809
1721.08 16.5829
1723.11 15.1666
1725.13 13.8945
1727.15 12.5292
1728.16 11.7198
1729.17 10.7320
1730.18 9.41430
1730.69 8.54123
1731.19 7.44497
1731.45 6.78622
1731.70 6.04754
1731.95 5.25194
1732.20 4.52287
1732.33 4.30290
1732.46 4.36418
1732.52 4.59471
1732.58 5.05171
1732.65 5.85627
1732.71 7.20564
1732.77 9.47869
1732.84 13.2063
1732.87 15.9920
1732.90 19.5341
1732.93 24.3878
1732.96 30.7097
1732.99 39.6305
1733.02 51.6642
1733.06 69.3695
1733.09 94.4466
1733.12 133.474
1733.15 192.223
1733.18 289.125
1733.21 439.498
1733.26 773.256
1733.30 1041.35
1733.34 901.261
1733.39 612.273
1733.43 424.937
1733.47 307.995
1733.51 234.251
1733.55 186.730
1733.63 129.438
1733.71 98.0090
1733.78 78.7864
1733.86 66.0641
1734.02 50.5736
1734.18 41.6238
1734.34 35.9302
1734.50 31.9946
1734.65 29.1207
1734.97 25.2002
1735.29 22.6597
1735.60 20.8618
1735.92 19.5087
1736.55 17.5618
1737.19 16.1702
1738.45 14.0923
1739.72 12.2324
1740.35 11.1908
1740.98 9.94558
1741.30 9.19605
1741.61 8.33147
1741.93 7.31961
1742.25 6.16906
1742.41 5.57425
1742.56 5.05279
1742.72 4.78347
1742.88 5.26125
1742.96 6.16451
1743.04 7.99097
1743.08 9.49838
1743.12 11.5468
1743.16 14.4923
1743.20 18.5577
1743.24 24.5526
1743.28 33.1206
1743.32 46.3502
1743.35 66.3921
1743.39 99.6615
1743.43 154.581
1743.47 254.640
1743.51 431.251
1743.56 762.051
1743.60 1037.99
1743.64 902.404
1743.69 617.791
1743.72 478.967
1743.74 378.168
1743.80 252.946
1743.86 183.862
1743.91 142.341
1743.97 115.469
1744.02 97.0202
1744.14 73.9843
1744.25 60.2552
1744.36 51.3587
1744.58 40.7194
1744.81 34.6155
1745.03 30.7192
1745.25 28.0055
1745.48 26.0246
1745.92 23.3055
1746.37 21.5247
1746.82 20.2604
1747.26 19.3102
1748.16 17.9612
1749.05 17.0328
1750.84 15.7977
1752.63 14.9772
1754.42 14.3676
1757.99 13.4768
1765.14 12.2812
1772.30 11.4006
1779.45 10.6225
1783.02 10.2261
1786.60 9.78969
1790.18 9.25638
1791.96 8.91484
1793.75 8.47628
1794.65 8.19746
1795.54 7.85640
1796.43 7.42292
1797.33 6.84564
1797.78 6.47707
1798.22 6.03485
1798.67 5.50100
1799.12 4.86921
1799.34 4.53164
1799.56 4.22106
1799.79 4.03095
1800.01 4.23378
1800.12 4.70193
1800.23 5.69874
1800.29 6.53325
1800.35 7.71969
1800.40 9.41688
1800.46 11.8212
1800.51 15.4162
1800.57 20.8432
1800.63 29.3049
1800.68 42.7532
1800.71 52.7978
1800.74 66.1464
1800.76 84.2051
1800.79 109.118
1800.82 144.196
1800.85 194.551
1800.88 267.806
1800.90 369.448
1800.95 644.686
1801.00 867.267
1801.05 747.119
1801.10 506.922
1801.14 367.163
1801.17 274.123
1801.21 212.298
1801.25 170.044
1801.33 118.341
1801.40 89.2679
1801.48 71.2688
1801.55 59.2900
1801.70 44.7517
1801.86 36.3538
1802.01 31.0111
1802.16 27.3527
1802.31 24.7239
1802.62 21.1787
1802.92 18.9372
1803.22 17.3903
1803.53 16.2671
1804.13 14.7379
1804.74 13.7449
1805.35 13.0446
1805.95 12.5216
1807.17 11.7810
1808.38 11.2715
1810.81 10.5855
1813.24 10.1115
1815.66 9.73686
1820.52 9.11398
1825.37 8.52586
1830.23 7.83946
1832.65 7.37639
1833.87 7.07587
1835.08 6.69009
1836.29 6.14881
1836.90 5.77520
1837.51 5.28628
1837.81 4.97852
1838.11 4.61713
1838.42 4.19207
1838.72 3.71891
1838.87 3.48973
1839.03 3.31620
1839.18 3.30866
1839.33 3.75807
1839.40 4.38577
1839.48 5.57391
1839.56 7.82443
1839.59 9.65174
1839.63 12.1666
1839.67 15.8932
1839.71 21.4384
1839.75 29.9739
1839.78 43.6921
1839.82 66.9882
1839.84 84.8487
1839.86 109.372
1839.88 143.737
1839.90 192.830
1839.92 263.886
1839.93 359.942
1839.97 620.284
1840.00 835.124
1840.03 719.059
1840.07 482.974
1840.10 311.531
1840.14 215.695
1840.17 157.402
1840.20 121.944
1840.24 97.7087
1840.27 81.3090
1840.34 60.1257
1840.41 47.5938
1840.48 39.4928
1840.62 29.9102
1840.76 24.4822
1840.89 21.0649
1841.03 18.7370
1841.17 17.0686
1841.44 14.8160
1841.72 13.3859
1842.00 12.3915
1842.27 11.6627
1842.82 10.6531
1843.37 9.97787
1844.47 9.09929
1845.58 8.51216
1846.68 8.05535
1848.88 7.28232
1851.08 6.48649
1852.18 6.00837
1853.29 5.41919
1853.84 5.05977
1854.39 4.64011
1854.94 4.14579
1855.49 3.57544
1855.76 3.27629
1856.04 3.00673
1856.32 2.85380
1856.59 3.06795
1856.73 3.51454
1856.87 4.44967
1856.94 5.22825
1857.00 6.33333
1857.07 7.91379
1857.14 10.1646
1857.21 13.5302
1857.28 18.6354
1857.35 26.6549
1857.42 39.5982
1857.49 62.4339
1857.52 80.6667
1857.55 105.480
1857.59 142.174
1857.62 194.587
1857.66 272.653
1857.69 388.833
1857.75 673.536
1857.80 903.334
1857.86 775.512
1857.91 522.224
1857.95 380.451
1857.99 286.752
1858.03 223.225
1858.07 179.129
1858.15 123.851
1858.23 92.8454
1858.31 73.3040
1858.39 60.4330
1858.55 44.6844
1858.71 35.6062
1858.87 29.8747
1859.03 25.9327
1859.19 23.1074
1859.52 19.3122
1859.84 16.9209
1860.16 15.2787
1860.48 14.0825
1861.12 12.4519
1861.76 11.3883
1862.41 10.6296
1863.05 10.0555
1864.33 9.22318
1865.62 8.62632
1868.19 7.76269
1870.76 7.09550
1873.33 6.50399
1878.47 5.34630
1883.61 4.03388
1886.18 3.26152
1888.75 2.38697
1891.32 1.42531
1892.60 0.957039
1893.88 0.595634
1894.53 0.523424
1894.85 0.540443
1895.01 0.568050
1895.17 0.611191
1895.49 0.757961
1895.81 1.01246
1896.13 1.42549
1896.45 2.07862
1896.78 3.11445
1897.10 4.77812
1897.42 7.56449
1897.74 12.5468
1897.90 16.5927
1898.06 22.4346
1898.22 31.3769
1898.38 45.7305
1898.54 71.0440
1898.70 120.384
1898.78 164.916
1898.86 234.500
1898.94 349.677
1899.02 545.156
1899.20 1168.21
1899.25 1132.38
1899.29 984.036
1899.38 622.175
1899.48 362.449
1899.57 225.948
1899.67 150.724
1899.77 106.244
1899.87 77.9195
1899.96 59.2495
1900.16 36.7794
1900.35 24.3019
1900.55 16.7662
1900.74 11.8550
1900.93 8.54435
1901.13 6.23047
1901.32 4.62098
1901.52 3.51491
1901.71 2.81720
1901.91 2.46184
1902.10 2.42701
1902.30 2.71010
1902.49 3.33361
1902.68 4.34927
1902.88 5.81864
1903.07 7.86262
1903.27 10.6092
1903.46 14.2980
1903.66 19.1885
1903.85 25.7599
1904.05 34.5650
1904.24 46.6220
1904.43 63.2059
1904.63 86.6790
1904.82 120.269
1905.02 170.010
1905.21 244.671
1905.41 359.264
1905.60 534.680
1905.90 950.748
1906.20 1291.27
1906.50 1122.21
1906.80 770.688
1907.11 516.785
1907.41 365.203
1907.72 272.968
1908.03 213.762
1908.34 173.685
1908.64 145.287
1909.26 108.539
1909.87 86.2355
1910.48 71.5351
1911.71 53.6577
1912.94 43.3294
1914.17 36.6663
1915.39 32.0109
1916.62 28.5661
1919.08 23.7053
1921.53 20.1469
1922.76 18.4427
1923.37 17.4977
1923.99 16.3965
1924.60 14.9766
1924.91 14.0497
1925.21 12.8801
1925.37 12.1663
1925.52 11.3530
1925.67 10.4279
1925.83 9.46473
1925.98 8.79220
1926.06 8.97173
1926.13 10.1952
1926.17 11.6916
1926.21 14.2459
1926.25 18.7009
1926.27 22.0914
1926.29 26.6625
1926.31 33.2896
1926.33 42.0918
1926.35 54.5267
1926.36 72.4684
1926.38 98.9687
1926.40 139.051
1926.42 200.824
1926.44 299.082
1926.47 532.559
1926.50 738.016
1926.52 728.049
1926.53 649.474
1926.56 453.632
1926.59 298.892
1926.63 209.887
1926.66 158.035
1926.69 126.471
1926.73 104.759
1926.76 89.9679
1926.83 70.6144
1926.90 58.9518
1926.96 51.2746
1927.10 41.9214
1927.23 36.4725
1927.37 32.9739
1927.50 30.5276
1927.63 28.7210
1927.90 26.2172
1928.17 24.5649
1928.71 22.4750
1929.24 21.1685
1929.78 20.2475
1930.85 18.9805
1931.93 18.1007
1933.00 17.4244
1935.15 16.4010
1939.44 14.9988
1943.74 14.0120
1952.32 12.6191
1960.91 11.6108
1969.50 10.7844
1978.09 10.0336
1986.68 9.27469
1995.26 8.39672
2000.00 7.78018
2003.95 7.10835
2005.93 6.67521
2007.90 6.13150
2009.88 5.40377
2010.87 4.92866
2011.85 4.34026
2012.84 3.59386
2013.34 3.15351
2013.83 2.69273
2014.32 2.34191
2014.57 2.36379
2014.70 2.50613
2014.82 2.80948
2014.94 3.39114
2015.07 4.44946
2015.13 5.28207
2015.19 6.42350
2015.25 8.00796
2015.31 10.2027
2015.37 13.4149
2015.44 18.1895
2015.50 25.5570
2015.56 37.2431
2015.62 57.6264
2015.65 73.5130
2015.68 94.8459
2015.71 126.223
2015.74 172.273
2015.78 241.210
2015.81 340.381
2015.85 577.673
2015.90 765.396
2015.95 652.053
2016.00 429.238
2016.04 289.379
2016.08 204.953
2016.12 151.984
2016.17 117.366
2016.25 76.9120
2016.33 55.1713
2016.42 41.9800
2016.50 33.4896
2016.67 23.2771
2016.84 17.4114
2017.01 13.6472
2017.34 9.02632
2017.68 6.49620
2017.85 6.05910
2017.93 6.20787
2018.02 6.76144
2018.10 7.97507
2018.19 10.2529
2018.23 12.0260
2018.27 14.4251
2018.31 17.6888
2018.35 22.1713
2018.40 28.4119
2018.44 37.2557
2018.48 50.0696
2018.52 69.1427
2018.56 98.4411
2018.61 145.026
2018.65 221.448
2018.69 347.836
2018.75 612.705
2018.80 835.927
2018.86 728.242
2018.91 497.539
2018.96 356.076
2019.00 265.442
2019.05 204.661
2019.09 164.402
2019.18 114.840
2019.27 87.0744
2019.37 69.8680
2019.46 58.3767
2019.64 44.2581
2019.82 36.0646
2020.00 30.7751
2020.37 24.4011
2020.73 20.7113
2021.09 18.3010
2021.82 15.3203
2022.55 13.5122
2023.28 12.2731
2024.73 10.6137
2026.19 9.47376
2027.64 8.56694
2030.55 6.98645
2033.46 5.30598
2034.92 4.30204
2036.37 3.12479
2037.10 2.47053
2037.83 1.80355
2038.56 1.21917
2038.92 1.03455
2039.28 1.01446
2039.47 1.10750
2039.65 1.30490
2039.83 1.64715
2040.01 2.19232
2040.19 3.02539
2040.38 4.27335
2040.56 6.13092
2040.74 8.88719
2040.92 13.0729
2041.10 19.5320
2041.29 29.7999
2041.47 46.8002
2041.65 76.5113
2041.83 132.197
2041.92 178.392
2042.01 245.579
2042.10 344.763
2042.19 488.815
2042.35 858.727
2042.50 1167.10
2042.65 1011.51
2042.81 686.475
2042.97 450.555
2043.13 313.906
2043.28 232.245
2043.44 180.557
2043.60 145.957
2043.76 121.664
2044.08 90.5216
2044.40 71.8846
2044.72 59.7190
2045.35 45.0823
2045.99 36.7397
2046.62 31.4317
2047.26 27.7762
2047.90 25.1141
2049.17 21.5009
2050.44 19.1633
2051.71 17.5171
2052.99 16.2845
2055.53 14.5206
2058.07 13.2314
2059.35 12.6415
2059.98 12.3313
2060.62 11.9866
2061.26 11.5657
2061.57 11.2994
2061.89 10.9648
2062.05 10.7582
2062.21 10.5139
2062.37 10.2198
2062.53 9.86374
2062.69 9.45652
2062.77 9.27284
2062.85 9.20490
2062.93 9.55626
2062.97 10.1853
2063.00 11.5344
2063.04 14.6709
2063.06 17.6670
2063.08 22.5729
2063.09 26.1959
2063.10 31.0103
2063.11 37.5126
2063.12 46.4505
2063.13 58.9620
2063.14 76.7730
2063.15 102.405
2063.16 136.951
2063.17 183.760
2063.18 237.718
2063.20 321.668
2063.21 317.458
2063.22 284.315
2063.24 196.511
2063.25 154.244
2063.26 122.307
2063.28 84.4443
2063.31 62.8047
2063.33 50.4393
2063.35 42.1223
2063.38 36.6741
2063.42 29.7906
2063.47 25.6429
2063.52 23.0123
2063.61 19.8135
2063.70 17.9870
2063.80 16.8147
2063.89 16.0005
2063.98 15.4020
2064.17 14.5748
2064.35 14.0311
2064.73 13.3416
2065.10 12.9052
2065.47 12.5922
2066.22 12.1434
2066.96 11.8079
2067.71 11.5254
2069.19 11.0198
2070.68 10.4949
2071.43 10.1842
2072.17 9.80081
2072.92 9.27411
2073.29 8.91169
2073.66 8.43596
2073.85 8.13351
2074.04 7.77558
2074.22 7.34884
2074.41 6.85454
2074.50 6.59921
2074.59 6.37512
2074.69 6.26653
2074.78 6.50327
2074.87 7.79048
2074.92 9.49057
2074.94 10.8548
2074.97 12.7862
2074.99 15.7105
2075.01 19.8631
2075.04 26.1404
2075.06 35.9645
2075.07 43.3115
2075.08 52.9220
2075.10 65.6770
2075.11 81.2224
2075.12 104.115
2075.13 132.734
2075.14 175.641
2075.15 229.260
2075.18 400.037
2075.20 545.103
2075.21 535.791
2075.22 476.104
2075.25 326.105
2075.27 227.112
2075.29 165.350
2075.31 126.495
2075.34 100.992
2075.38 70.9493
2075.42 54.5969
2075.47 44.6486
2075.51 38.0900
2075.60 30.2042
2075.69 25.6286
2075.77 22.7387
2075.86 20.7257
2075.95 19.2792
2076.13 17.3050
2076.30 16.0473
2076.48 15.1730
2076.65 14.5295
2077.00 13.6410
2077.35 13.0552
2077.70 12.6339
2078.05 12.3145
2078.75 11.8521
2079.45 11.5250
2080.86 11.0705
2082.26 10.7484
2083.66 10.4933
2086.46 10.0859
2092.07 9.44728
2097.68 8.88435
2103.29 8.30160
2106.09 7.96877
2108.89 7.57292
2111.70 7.05046
2113.10 6.69819
2114.50 6.23300
2115.20 5.93261
2115.90 5.56342
2116.60 5.09542
2117.30 4.48189
2117.65 4.09987
2118.00 3.65861
2118.36 3.15798
2118.71 2.64773
2118.88 2.44437
2119.06 2.36933
2119.23 2.60685
2119.32 2.97101
2119.41 3.62780
2119.49 4.79215
2119.58 6.79783
2119.63 8.33544
2119.67 10.4046
2119.71 13.2227
2119.76 17.0168
2119.80 22.4695
2119.84 30.3400
2119.89 42.0380
2119.93 59.5520
2119.98 88.2193
2120.02 136.667
2120.06 222.845
2120.11 375.240
2120.15 649.987
2120.20 878.994
2120.22 859.898
2120.25 757.356
2120.30 511.752
2120.34 351.813
2120.38 252.430
2120.42 190.096
2120.47 150.080
2120.55 101.840
2120.64 76.0032
2120.72 60.1633
2120.81 49.8893
2120.98 37.4726
2121.15 30.3726
2121.32 25.8966
2121.49 22.8165
2121.66 20.6036
2122.00 17.6211
2122.34 15.7315
2122.68 14.4281
2123.03 13.4753
2123.71 12.1727
2124.39 11.3220
2125.07 10.7173
2125.75 10.2614
2127.12 9.60836
2128.48 9.15111
2131.21 8.51786
2133.94 8.06400
2136.67 7.69422
2142.13 7.06350
2147.59 6.47634
2153.05 5.86417
2155.78 5.52450
2158.51 5.13172
2159.87 4.89199
2160.55 4.74993
2161.23 4.58152
2161.92 4.36674
2162.26 4.23015
2162.60 4.06229
2162.94 3.85126
2163.11 3.72938
2163.28 3.61233
2163.45 3.56502
2163.54 3.64405
2163.62 3.93133
2163.71 4.80696
2163.75 5.80246
2163.79 7.62386
2163.82 9.20863
2163.84 11.4320
2163.86 14.7877
2163.88 20.0755
2163.89 24.0938
2163.90 29.4245
2163.91 36.6343
2163.92 45.5430
2163.93 59.1565
2163.94 76.6365
2163.95 104.200
2163.96 139.902
2163.97 187.968
2163.98 239.564
2164.00 315.067
2164.01 304.401
2164.02 267.023
2164.04 180.011
2164.05 125.026
2164.07 92.1157
2164.08 70.6975
2164.10 56.2923
2164.13 38.5550
2164.16 29.1595
2164.19 23.2550
2164.22 19.5097
2164.28 14.9261
2164.34 12.3463
2164.40 10.7258
2164.52 8.84988
2164.65 7.79827
2164.77 7.14038
2165.01 6.35463
2165.25 5.89995
2165.50 5.59843
2165.98 5.20959
2166.47 4.95421
2166.95 4.76089
2167.93 4.45957
2169.87 3.97120
2171.82 3.49359
2173.76 2.94583
2174.73 2.62004
2175.70 2.24138
2176.68 1.80471
2177.16 1.58413
2177.65 1.42477
2177.89 1.42086
2178.13 1.54301
2178.38 1.93515
2178.50 2.32899
2178.62 2.95047
2178.74 3.95658
2178.86 5.59613
2178.92 6.81207
2178.99 8.42223
2179.05 10.5888
2179.11 13.5041
2179.17 17.6553
2179.23 23.6542
2179.29 32.6364
2179.35 46.4028
2179.41 69.4374
2179.47 110.132
2179.50 143.018
2179.53 187.704
2179.56 250.878
2179.59 339.853
2179.65 574.477
2179.70 766.969
2179.73 745.502
2179.76 653.177
2179.81 431.840
2179.85 316.948
2179.88 239.709
2179.92 185.275
2179.96 148.206
2180.03 101.160
2180.11 74.5866
2180.18 57.7868
2180.26 46.6227
2180.41 33.1634
2180.56 25.4855
2180.71 20.6928
2181.00 15.1242
2181.30 12.0475
2181.60 10.1269
2181.90 8.82035
2182.20 7.87727
2182.80 6.59304
2183.39 5.75284
2184.59 4.68187
2185.78 3.98545
2186.98 3.46198
2189.37 2.65474
2194.15 1.41683
2196.54 0.907109
2198.93 0.500307
2200.12 0.359851
2201.32 0.284771
2201.91 0.280050
2202.21 0.287795
2202.51 0.303082
2203.11 0.359464
2203.70 0.456082
2204.30 0.601694
2204.90 0.806293
2205.50 1.08362
2206.09 1.44903
2207.29 2.53397
2208.48 4.30119
2209.68 7.15905
2210.87 11.8173
2212.07 19.5916
2213.26 33.0699
2214.46 57.8613
2215.05 78.0566
2215.65 107.165
2216.25 150.352
2216.85 216.016
2217.44 318.304
2218.04 477.982
2218.92 844.794
2219.80 1152.61
2220.68 1000.76
2221.56 680.272
2222.22 501.412
2222.88 379.645
2223.54 296.957
2224.19 239.439
2225.51 167.701
2226.83 126.557
2228.14 100.701
2229.46 83.3146
2232.09 61.8333
2234.72 49.3225
2237.36 41.2356
2242.62 31.4245
2247.89 25.5530
2253.15 21.2586
2255.78 19.2078
2257.10 18.0752
2258.42 16.7572
2259.73 15.0612
2260.39 13.9490
2261.05 12.5296
2261.38 11.6517
2261.71 10.6227
2262.03 9.41332
2262.36 8.03061
2262.69 6.69251
2262.86 6.35584
2263.02 6.86129
2263.10 7.85570
2263.19 9.82561
2263.23 11.4048
2263.27 13.5772
2263.31 16.5730
2263.35 20.7312
2263.39 26.7318
2263.43 35.0995
2263.47 47.2222
2263.52 65.1722
2263.56 92.4245
2263.60 134.903
2263.64 202.560
2263.68 310.383
2263.74 566.398
2263.80 783.289
2263.86 691.583
2263.92 485.756
2263.99 315.339
2264.06 221.666
2264.14 167.224
2264.21 133.262
2264.28 110.407
2264.35 94.6381
2264.49 74.3435
2264.63 62.0101
2264.78 53.9300
2265.06 44.0300
2265.35 38.2361
2265.63 34.4610
2265.92 31.8071
2266.20 29.8421
2266.77 27.0928
2267.34 25.2504
2268.48 22.8707
2269.62 21.3320
2270.75 20.1998
2273.03 18.5084
2275.31 17.1162
2277.59 15.6626
2278.73 14.7320
2279.30 14.1356
2279.86 13.3749
2280.43 12.3138
2280.72 11.5894
2281.00 10.6596
2281.15 10.0859
2281.29 9.43335
2281.43 8.70518
2281.57 7.97247
2281.72 7.57185
2281.79 7.87948
2281.86 9.18300
2281.89 10.6437
2281.93 13.0441
2281.96 17.2615
2282.00 24.4488
2282.02 30.1601
2282.04 38.0370
2282.05 49.0962
2282.07 63.8976
2282.09 86.6066
2282.11 120.560
2282.12 172.153
2282.14 247.721
2282.17 445.257
2282.20 613.770
2282.22 605.981
2282.23 544.770
2282.26 379.210
2282.28 273.288
2282.31 205.774
2282.33 161.595
2282.36 131.681
2282.41 95.2705
2282.46 74.7806
2282.51 61.8142
2282.56 53.3134
2282.66 42.7948
2282.76 36.5967
2282.86 32.6228
2282.96 29.8506
2283.06 27.8125
2283.26 25.0102
2283.46 23.1904
2283.66 21.8976
2283.86 20.9350
2284.27 19.5679
2284.67 18.6309
2285.47 17.3687
2286.27 16.4910
2287.07 15.7878
2288.68 14.5643
2290.28 13.2785
2291.09 12.4960
2291.89 11.5179
2292.29 10.9094
2292.69 10.1862
2293.09 9.30590
2293.49 8.22078
2293.69 7.59277
2293.89 6.93026
2294.10 6.29512
2294.30 5.91646
2294.50 6.55928
2294.60 7.99700
2294.65 9.32340
2294.70 11.3242
2294.75 14.4295
2294.80 19.1214
2294.85 26.4832
2294.87 31.7012
2294.90 38.3961
2294.92 47.0781
2294.95 58.4721
2294.97 73.6213
2295.00 94.0422
2295.02 121.948
2295.05 160.532
2295.07 214.202
2295.10 288.322
2295.15 517.555
2295.20 709.921
2295.23 700.655
2295.25 625.302
2295.30 433.585
2295.36 296.927
2295.41 215.628
2295.46 165.265
2295.51 132.487
2295.56 109.698
2295.61 93.7754
2295.71 72.9433
2295.82 60.0964
2295.92 51.6643
2296.12 41.3241
2296.33 35.2930
2296.53 31.3958
2296.74 28.6822
2296.94 26.6962
2297.35 23.9578
2297.76 22.1665
2298.17 20.8930
2298.58 19.9341
2299.40 18.5653
2300.22 17.6142
2301.85 16.3117
2303.49 15.3902
2305.13 14.6419
2308.40 13.3258
2311.68 11.9300
2313.31 11.0764
2314.95 10.0029
2315.77 9.33345
2316.59 8.53277
2317.41 7.55303
2318.23 6.33810
2318.64 5.62914
2319.05 4.87191
2319.45 4.13489
2319.86 3.65576
2320.07 3.72052
2320.27 4.27017
2320.38 4.86985
2320.48 5.80682
2320.58 7.24601
2320.68 9.43838
2320.73 10.9676
2320.79 12.8297
2320.89 18.0409
2320.99 26.2941
2321.09 39.7938
2321.19 63.1452
2321.25 80.8509
2321.30 104.964
2321.35 138.310
2321.40 185.060
2321.45 251.112
2321.50 343.825
2321.60 615.345
2321.70 846.614
2321.80 741.635
2321.90 513.047
2322.02 333.340
2322.13 232.003
2322.24 172.920
2322.36 136.319
2322.47 111.756
2322.58 94.7075
2322.81 72.7405
2323.04 59.5474
2323.26 50.8874
2323.72 40.3742
2324.17 34.3127
2324.63 30.4034
2325.08 27.6830
2325.53 25.6832
2326.44 22.9384
2327.35 21.1361
2328.26 19.8535
2329.17 18.8866
2330.98 17.5055
2332.80 16.5424
2336.43 15.2187
2340.06 14.2662
2343.70 13.4384
2345.51 13.0004
2346.42 12.7500
2347.33 12.4538
2348.24 12.0658
2348.69 11.8056
2349.14 11.4628
2349.37 11.2422
2349.60 10.9715
2349.82 10.6291
2350.05 10.1812
2350.17 9.90193
2350.28 9.58149
2350.39 9.21530
2350.51 8.84039
2350.56 8.68432
2350.62 8.61041
2350.68 8.73876
2350.73 9.34875
2350.79 11.2747
2350.82 13.4588
2350.85 17.2587
2350.86 20.4982
2350.88 24.7571
2350.89 30.8142
2350.90 39.6347
2350.92 52.8265
2350.93 73.1116
2350.94 87.2428
2350.95 105.037
2350.95 127.435
2350.96 155.431
2350.97 212.319
2350.98 275.489
2351.00 374.343
2351.01 368.352
2351.02 329.070
2351.04 231.064
2351.05 181.459
2351.07 145.225
2351.09 99.9870
2351.12 74.9186
2351.14 60.2691
2351.17 50.3113
2351.20 43.4740
2351.25 35.0000
2351.30 29.8808
2351.35 26.6159
2351.45 22.6377
2351.56 20.3603
2351.66 18.8978
2351.76 17.8833
2351.86 17.1455
2352.07 16.1250
2352.28 15.4606
2352.48 14.9870
2352.69 14.6331
2353.10 14.1284
2353.51 13.7809
2354.33 13.3128
2355.15 12.9917
2355.98 12.7431
2357.62 12.3516
2360.91 11.7345
2364.20 11.1802
2367.49 10.6122
2370.78 9.96015
2372.42 9.55349
2373.25 9.30615
2374.07 9.00529
2374.89 8.60537
2375.30 8.33858
2375.71 7.99254
2375.92 7.77377
2376.12 7.51277
2376.33 7.19263
2376.54 6.80090
2376.74 6.34024
2376.84 6.12520
2376.95 6.02730
2377.05 6.37410
2377.10 7.04847
2377.15 8.55354
2377.18 9.95730
2377.20 12.1479
2377.23 15.6702
2377.26 21.2826
2377.27 25.6342
2377.28 31.5086
2377.29 39.5899
2377.31 49.9195
2377.32 65.7643
2377.33 88.9752
2377.35 123.502
2377.36 170.017
2377.37 228.167
2377.38 298.853
2377.40 402.829
2377.41 395.712
2377.42 350.072
2377.44 241.922
2377.46 170.842
2377.48 125.728
2377.50 96.9559
2377.52 77.8847
2377.56 55.2130
2377.60 42.7754
2377.63 35.1751
2377.67 30.1512
2377.75 24.1054
2377.82 20.5835
2377.90 18.3359
2377.97 16.7894
2378.05 15.6781
2378.20 14.1540
2378.35 13.1794
2378.50 12.4976
2378.65 11.9921
2378.96 11.2842
2379.26 10.8069
2379.86 10.1770
2380.47 9.75412
2381.07 9.42900
2382.28 8.91383
2384.70 8.06051
2387.12 7.21156
2389.54 6.23871
2390.75 5.66493
2391.96 4.99730
2393.17 4.18738
2393.78 3.70615
2394.38 3.16301
2394.99 2.58357
2395.29 2.33516
2395.59 2.24378
2395.75 2.35401
2395.90 2.69638
2396.05 3.50325
2396.12 4.23265
2396.20 5.31384
2396.28 6.98535
2396.35 9.60752
2396.43 13.8757
2396.47 17.0176
2396.50 21.0645
2396.54 26.6671
2396.58 34.4164
2396.62 45.4174
2396.65 61.0050
2396.69 85.1252
2396.73 123.047
2396.77 184.763
2396.80 282.900
2396.85 482.548
2396.90 648.163
2396.93 631.637
2396.95 555.231
2397.00 370.517
2397.05 236.795
2397.10 160.740
2397.15 116.320
2397.20 89.1609
2397.25 70.8345
2397.30 58.1450
2397.40 42.2587
2397.51 32.8103
2397.61 26.7815
2397.81 19.5782
2398.01 15.5210
2398.22 12.9415
2398.62 9.84379
2399.03 8.01516
2399.43 6.76773
2400.25 5.07134
2401.06 3.86182
2401.87 2.88151
2403.49 1.36651
2403.90 1.10243
2404.31 0.913480
2404.71 0.829388
2405.12 0.894900
2405.52 1.17761
2405.73 1.43083
2405.93 1.78100
2406.13 2.25029
2406.34 2.86670
2406.74 4.69386
2407.15 7.69161
2407.55 12.5992
2407.96 20.7523
2408.37 34.7065
2408.77 59.6972
2408.97 79.5098
2409.18 107.306
2409.38 147.060
2409.58 204.963
2409.79 290.351
2409.99 415.650
2410.35 750.507
2410.70 1031.92
2411.06 902.714
2411.41 624.080
2411.66 475.705
2411.91 371.075
2412.15 297.515
2412.40 244.858
2412.90 176.986
2413.39 136.884
2413.88 111.076
2414.38 93.4561
2415.37 71.3032
2416.36 58.2148
2417.35 49.6916
2419.32 39.3855
2421.30 33.4411
2423.28 29.5932
2425.26 26.9022
2427.23 24.9137
2431.19 22.1585
2435.15 20.3244
2439.10 18.9969
2443.06 17.9738
2450.97 16.4312
2458.88 15.1646
2462.84 14.4853
2464.81 14.0812
2466.79 13.5821
2468.77 12.8913
2469.76 12.4075
2470.75 11.7512
2471.24 11.3195
2471.74 10.7842
2472.23 10.0976
2472.73 9.19198
2472.97 8.62379
2473.22 7.96585
2473.47 7.21734
2473.71 6.43905
2473.96 5.94750
2474.09 6.17753
2474.21 7.36725
2474.27 8.74090
2474.33 11.1131
2474.39 15.2341
2474.43 18.3660
2474.46 22.4295
2474.49 28.1319
2474.52 36.0322
2474.55 47.1778
2474.58 63.2336
2474.61 86.8986
2474.64 122.586
2474.67 177.338
2474.70 257.845
2474.75 461.478
2474.80 638.027
2474.83 630.368
2474.85 562.192
2474.90 392.159
2474.94 294.895
2474.97 229.353
2475.01 183.992
2475.04 151.918
2475.12 111.149
2475.19 87.2748
2475.26 71.8720
2475.33 61.5461
2475.48 48.6142
2475.62 40.9474
2475.77 36.0006
2475.91 32.5315
2476.06 30.0073
2476.34 26.5600
2476.63 24.3350
2476.92 22.7844
2477.21 21.6428
2477.79 20.0737
2478.37 19.0428
2478.95 18.3103
2479.52 17.7598
2480.68 16.9793
2481.84 16.4431
2484.15 15.7294
2486.46 15.2505
2488.77 14.8875
2493.39 14.3321
2498.02 13.8832
2502.64 13.4747
2511.89 12.6320
2518.48 11.8631
2521.77 11.3459
2525.07 10.6529
2526.72 10.1977
2528.36 9.62872
2530.01 8.89075
2531.66 7.89057
2532.48 7.24420
2533.31 6.46311
2534.13 5.51360
2534.96 4.37964
2535.37 3.76686
2535.78 3.18552
2536.19 2.78609
2536.40 2.76457
2536.60 2.98723
2536.81 3.64136
2536.91 4.22924
2537.02 5.07597
2537.12 6.27904
2537.22 7.97957
2537.32 10.3862
2537.43 13.8148
2537.53 18.7572
2537.63 26.0030
2537.74 36.8662
2537.84 53.6193
2537.94 80.3573
2538.05 124.729
2538.15 201.154
2538.25 332.735
2538.38 598.058
2538.50 825.302
2538.63 724.783
2538.75 502.235
2538.86 358.550
2538.97 266.007
2539.08 206.147
2539.19 166.278
2539.41 117.833
2539.63 90.7596
2539.85 73.9139
2540.07 62.7081
2540.51 48.9072
2540.94 40.8663
2541.38 35.6877
2541.82 32.0860
2542.26 29.4580
2543.14 25.8825
2544.01 23.5753
2544.89 21.9667
2545.77 20.7817
2547.52 19.1513
2549.28 18.0793
2551.03 17.3173
2552.78 16.7452
2556.29 15.9349
2559.80 15.3806
2563.31 14.9703
2566.81 14.6493
2573.83 14.1668
2580.84 13.8073
2594.87 13.2667
2608.91 12.8211
2615.92 12.5975
2622.94 12.3482
2629.95 12.0337
2633.46 11.8249
2636.97 11.5485
2638.72 11.3679
2640.48 11.1420
2642.23 10.8465
2643.98 10.4363
2644.86 10.1615
2645.74 9.81436
2646.61 9.35935
2647.49 8.73387
2647.93 8.32309
2648.37 7.81896
2648.81 7.18597
2649.24 6.38623
2649.46 5.91240
2649.68 5.40271
2649.90 4.90077
2650.12 4.56423
2650.34 4.95135
2650.45 5.97283
2650.51 6.94542
2650.56 8.40600
2650.61 10.6898
2650.67 14.2559
2650.72 19.9561
2650.75 23.9731
2650.78 29.1628
2650.81 36.2349
2650.83 45.3149
2650.86 58.0533
2650.89 74.9370
2650.92 99.4355
2650.94 132.981
2650.97 180.780
2651.00 248.531
2651.05 445.365
2651.10 612.242
2651.13 604.386
2651.15 538.529
2651.20 373.823
2651.25 255.715
2651.30 185.176
2651.36 140.706
2651.41 112.434
2651.46 92.7610
2651.51 79.0237
2651.61 61.0622
2651.71 49.9996
2651.81 42.6922
2652.01 33.8191
2652.21 28.6640
2652.41 25.3541
2652.61 23.0474
2652.81 21.3477
2653.22 18.9942
2653.62 17.4235
2654.02 16.2610
2654.42 15.3308
2655.23 13.7602
2655.63 12.9746
2656.03 12.0829
2656.44 10.9466
2656.64 10.2210
2656.84 9.34072
2656.94 8.83439
2657.04 8.29955
2657.14 7.78993
2657.24 7.48197
2657.34 7.95898
2657.39 9.04242
2657.44 11.5346
2657.47 13.8978
2657.49 17.3858
2657.52 22.8041
2657.54 31.4574
2657.56 37.9740
2657.57 45.7877
2657.58 56.9216
2657.59 70.5851
2657.61 90.5179
2657.62 115.500
2657.63 152.460
2657.64 200.904
2657.66 270.401
2657.67 359.132
2657.70 502.354
2657.71 498.178
2657.73 446.455
2657.76 314.167
2657.79 210.320
2657.82 150.931
2657.85 114.459
2657.88 92.1781
2657.91 76.7396
2657.94 66.2217
2658.00 52.3937
2658.00 36.8241
3000.00 35.1132
3162.28 34.4522
3500.00 33.0766
3981.07 31.4949
4000.00 31.4327
5000.00 28.9140
5011.87 28.8919
6000.00 27.0494
6309.57 26.6088
7200.00 25.3417
7943.28 24.5239
8500.00 23.9113
10000.0 22.6156
11000.0 21.9004
12500.0 20.9894
12589.3 20.9462
15000.0 19.7790
15848.9 19.4350
16000.0 19.3738
17000.0 19.0037
19952.6 18.0739
20000.0 18.0589
21000.0 17.7880
25118.9 16.8636
26000.0 16.6659
31000.0 15.8128
31622.8 15.7281
36000.0 15.1327
39810.7 14.7052
41000.0 14.5717
46000.0 14.0971
50118.7 13.7597
51000.0 13.6875
56000.0 13.3286
61000.0 13.0099
63095.7 12.8902
66000.0 12.7241
71000.0 12.4655
76000.0 12.2297
79432.8 12.0812
81000.0 12.0134
86000.0 11.8138
91000.0 11.6288
96000.0 11.4566
100000 11.3278
101000 11.2957
106000 11.1448
111000 11.0029
116000 10.8691
121000 10.7427
125893 10.6255
126000 10.6230
131000 10.5093
136000 10.4013
141000 10.2984
146000 10.2003
151000 10.1066
156000 10.0170
158489 9.97430
161000 9.93123
166000 9.84901
171000 9.77012
176000 9.69437
181000 9.62155
186000 9.55151
191000 9.48407
196000 9.41910
199526 9.37493
201000 9.35647
206000 9.29604
250000 8.84430
251189 8.83455
276000 8.63111
316228 8.37960
346000 8.19346
346000 8.19078
346566 8.18780
346566 8.18780
396000 7.92695
398107 7.91585
400000 7.90589
500000 7.60350
501187 7.60206
550000 7.54267
600000 7.48184
619486 7.45813
620000 7.45751
630957 7.44418
650000 7.42101
670000 7.39668
700000 7.36018
750000 7.33706
760416 7.33224
760416 7.33224
800000 7.31394
830000 7.31251
850000 7.31155
870000 7.31059
900000 7.30916
920000 7.30533
930000 7.30341
936718 7.30213
936718 7.30212
940000 7.30150
950000 7.29958
970000 7.29575
1.00000E+06 7.29000
1.02000E+06 7.28393
1.04389E+06 7.27669
1.05000E+06 7.27483
1.05481E+06 7.27337
1.05481E+06 7.27338
1.07000E+06 7.26877
1.08979E+06 7.26276
1.10000E+06 7.25967
1.10962E+06 7.25675
1.11653E+06 7.25465
1.11654E+06 7.25464
1.12000E+06 7.25360
1.12166E+06 7.25309
1.12263E+06 7.25280
1.13065E+06 7.25037
1.13065E+06 7.25037
1.13409E+06 7.24933
1.13433E+06 7.24925
1.15000E+06 7.24450
1.15272E+06 7.24367
1.15370E+06 7.24338
1.15608E+06 7.24265
1.15861E+06 7.24189
1.16284E+06 7.24060
1.16553E+06 7.23979
1.16925E+06 7.23866
1.17000E+06 7.23843
1.18666E+06 7.23338
1.20000E+06 7.22933
1.22000E+06 7.21553
1.23553E+06 7.20482
1.25000E+06 7.19483
1.27000E+06 7.18103
1.29077E+06 7.16670
1.29077E+06 7.16670
1.30000E+06 7.16033
1.31000E+06 7.15343
1.32000E+06 7.14653
1.32338E+06 7.14420
1.32717E+06 7.14159
1.32718E+06 7.14158
1.33000E+06 7.13964
1.34000E+06 7.13274
1.35000E+06 7.12584
1.37000E+06 7.11204
1.40000E+06 7.09134
1.42000E+06 7.07754
1.44354E+06 7.06130
1.44354E+06 7.06129
1.45000E+06 7.05684
1.47000E+06 7.04304
1.47023E+06 7.04288
1.47023E+06 7.04288
1.48024E+06 7.03598
1.48024E+06 7.03597
1.50000E+06 7.02234
1.52000E+06 7.01033
1.55000E+06 6.99232
1.56050E+06 6.98601
1.56050E+06 6.98601
1.57000E+06 6.98031
1.60000E+06 6.96230
1.61626E+06 6.95253
1.61626E+06 6.95253
1.62000E+06 6.95029
1.65000E+06 6.93227
1.65432E+06 6.92968
1.65432E+06 6.92968
1.67000E+06 6.92026
1.67915E+06 6.91477
1.67915E+06 6.91477
1.70000E+06 6.90225
1.70365E+06 6.90006
1.70365E+06 6.90006
1.72000E+06 6.89024
1.75000E+06 6.87223
1.75838E+06 6.86720
1.75838E+06 6.86720
1.76764E+06 6.86164
1.77000E+06 6.86022
1.78333E+06 6.85222
1.78333E+06 6.85221
1.80000E+06 6.84221
1.81966E+06 6.83040
1.81966E+06 6.83040
1.82000E+06 6.83020
1.85000E+06 6.81218
1.85183E+06 6.81109
1.85184E+06 6.81108
1.87394E+06 6.79781
1.87394E+06 6.79781
1.87441E+06 6.79753
1.87441E+06 6.79752
1.88000E+06 6.79417
1.89278E+06 6.78650
1.89279E+06 6.78649
1.90000E+06 6.78216
1.92814E+06 6.76527
1.92814E+06 6.76527
1.93000E+06 6.76415
1.95000E+06 6.75214
1.95405E+06 6.74971
1.95405E+06 6.74971
1.97000E+06 6.74013
1.97503E+06 6.73711
1.97503E+06 6.73711
1.98879E+06 6.72885
1.98879E+06 6.72885
2.00000E+06 6.72212
2.01115E+06 6.71542
2.01116E+06 6.71542
2.02499E+06 6.70711
2.02499E+06 6.70711
3.00000E+06 6.12167
4.00000E+06 5.56734
4.50000E+06 5.34322
5.00000E+06 5.17190
5.50000E+06 5.04445
5.97642E+06 4.95384
6.00000E+06 4.94936
6.30000E+06 4.92042
6.50000E+06 4.90113
6.80000E+06 4.88528
7.00000E+06 4.87472
7.30000E+06 4.87053
7.39175E+06 4.86925
7.50000E+06 4.86774
7.80000E+06 4.86355
8.00000E+06 4.86705
8.50000E+06 4.89545
8.64603E+06 4.90375
8.64603E+06 4.90375
9.00000E+06 4.92386
1.00000E+07 4.98066
1.05000E+07 5.01688
1.10000E+07 5.05310
1.15000E+07 5.08932
1.20000E+07 5.12554
1.30000E+07 5.15951
1.40000E+07 5.17898
1.50000E+07 5.18025
1.51872E+07 5.17545
1.51872E+07 5.17545
1.53774E+07 5.17056
1.60000E+07 5.15459
1.70000E+07 5.12892
1.80000E+07 5.08746
1.90000E+07 5.02680
2.00000E+07 4.96614