Gd-160(n,tot) ENDF/B-VII.1
Energy(eV) XS(b)
1.00000E-05 80.2721
1.25000E-05 72.7843
1.50000E-05 67.2571
2.00000E-05 59.4985
2.75000E-05 52.1163
3.50000E-05 47.2579
4.25000E-05 43.7505
5.00000E-05 41.0654
6.25000E-05 37.7168
7.50000E-05 35.2449
0.000100000 31.7752
0.000125000 29.4073
0.000150000 27.6595
0.000200000 25.2060
0.000275000 22.8715
0.000350000 21.3352
0.000425000 20.2260
0.000500000 19.3769
0.000625000 18.3180
0.000750000 17.5363
0.00100000 16.4391
0.00125000 15.6903
0.00150000 15.1376
0.00200000 14.3617
0.00275000 13.6234
0.00350000 13.1376
0.00425000 12.7868
0.00500000 12.5183
0.00625000 12.1834
0.00750000 11.9362
0.0100000 11.5891
0.0125000 11.3523
0.0150000 11.1774
0.0200000 10.9320
0.0253000 10.7560
0.0314750 10.6100
0.0376500 10.5016
0.0500000 10.3484
0.0625000 10.2423
0.0750000 10.1638
0.100000 10.0536
0.125000 9.97822
0.150000 9.92244
0.200000 9.84385
0.275000 9.76854
0.350000 9.71848
0.500000 9.65362
0.750000 9.59056
1.00000 9.55105
1.50000 9.50034
2.00000 9.46631
2.75000 9.42882
3.50000 9.39941
5.00000 9.35199
7.50000 9.28784
10.0000 9.23186
15.0000 9.13089
20.0000 9.03770
27.5000 8.90655
35.0000 8.78273
50.0000 8.55144
75.0000 8.20191
100.000 7.88410
125.000 7.58526
150.000 7.28925
162.500 7.13321
175.000 6.96096
187.500 6.75145
193.750 6.61694
200.000 6.44136
202.739 6.34223
205.479 6.22126
208.218 6.06769
210.958 5.86301
212.327 5.73203
213.697 5.57446
215.067 5.38365
216.436 5.15760
217.121 5.03801
217.806 4.93079
218.491 4.87781
219.176 5.00328
219.518 5.23833
219.861 5.73331
220.203 6.76138
220.545 8.99623
220.717 11.0704
220.802 12.5335
220.845 13.4127
220.888 14.4124
220.931 15.5535
220.973 16.8615
221.016 18.3678
221.038 19.2071
221.059 20.1112
221.102 22.1400
221.145 24.5153
221.187 27.3148
221.230 30.6389
221.273 34.6180
221.316 39.4252
221.359 45.2926
221.401 52.5374
221.444 61.6014
221.487 73.1134
221.530 87.9908
221.573 107.610
221.615 134.102
221.658 170.898
221.701 223.759
221.744 302.849
221.787 427.131
221.829 634.013
221.872 999.851
221.915 1667.86
221.958 2731.39
222.000 3496.27
222.043 2865.38
222.085 1835.27
222.134 1085.94
222.183 692.335
222.231 475.865
222.280 347.591
222.329 265.853
222.378 210.896
222.475 144.034
222.573 106.327
222.670 82.9528
222.865 56.4646
223.061 42.4429
223.256 34.0365
223.451 28.5496
223.646 24.7409
224.036 19.8809
224.426 16.9657
224.816 15.0508
225.207 13.7096
225.987 11.9717
226.767 10.9058
227.548 10.1901
228.328 9.67840
229.889 8.99692
231.449 8.56389
233.010 8.26364
234.571 8.04230
237.692 7.73504
240.814 7.52852
243.935 7.37717
247.056 7.25926
253.299 7.08193
259.542 6.94895
272.028 6.74748
284.513 6.58756
296.999 6.44716
321.970 6.19026
346.942 5.93700
371.913 5.66149
396.884 5.32578
409.370 5.11112
415.613 4.98579
417.174 4.95441
418.734 4.92893
419.515 4.92565
419.905 4.93163
420.295 4.95026
420.685 5.00036
420.880 5.05422
421.075 5.15445
421.173 5.23892
421.270 5.36650
421.368 5.57160
421.466 5.92949
421.563 6.63773
421.612 7.28292
421.661 8.34229
421.709 10.2633
421.734 11.8604
421.758 14.2403
421.783 18.0149
421.807 24.3839
421.831 35.9250
421.856 57.6133
421.878 89.3140
421.900 110.462
421.922 89.3175
421.944 57.6169
421.970 35.2963
421.995 23.7478
422.020 17.4785
422.046 13.8041
422.071 11.4972
422.096 9.96493
422.147 8.13077
422.197 7.12178
422.248 6.50985
422.349 5.83776
422.450 5.49623
422.552 5.29888
422.653 5.17421
422.754 5.09015
422.956 4.98616
423.159 4.92561
423.563 4.85831
423.968 4.82037
424.373 4.79420
425.182 4.75589
426.801 4.69594
428.420 4.63970
431.658 4.52028
434.896 4.38132
438.133 4.20926
439.752 4.10303
441.371 3.97504
442.990 3.81316
443.799 3.71379
444.609 3.60007
445.014 3.53972
445.418 3.48237
445.823 3.44162
446.228 3.45832
446.430 3.52303
446.632 3.67332
446.835 3.99988
447.037 4.72547
447.138 5.40497
447.240 6.50353
447.341 8.37946
447.442 11.8379
447.492 14.7203
447.518 16.6416
447.543 19.0101
447.568 21.9674
447.581 23.7339
447.594 25.7142
447.606 27.9794
447.619 30.5416
447.644 36.8835
447.670 45.4070
447.695 57.1744
447.720 73.9478
447.745 98.7864
447.771 137.275
447.796 200.108
447.821 308.246
447.834 390.029
447.847 498.017
447.873 817.017
447.900 1047.86
447.913 999.759
447.927 861.270
447.954 553.954
447.984 332.975
448.014 215.007
448.044 149.354
448.074 110.064
448.104 84.9402
448.134 67.9704
448.194 47.2078
448.254 35.4534
448.314 28.1324
448.433 19.8118
448.553 15.3813
448.673 12.7141
448.793 10.9665
448.913 9.74944
449.153 8.18607
449.393 7.24027
449.633 6.61261
449.873 6.16772
450.353 5.57968
450.833 5.20656
451.793 4.74939
452.752 4.46528
453.712 4.25814
455.631 3.94362
459.470 3.42669
463.309 2.88175
465.229 2.57084
467.148 2.23064
469.068 1.87877
470.987 1.59889
471.947 1.57046
472.427 1.62123
472.907 1.74446
473.147 1.84410
473.387 1.97701
473.627 2.15126
473.866 2.37706
474.106 2.66771
474.346 3.04013
474.586 3.51697
474.826 4.12830
475.066 4.91515
475.306 5.93269
475.546 7.25992
475.786 9.00712
476.026 11.3386
476.266 14.4966
476.506 18.8600
476.746 25.0366
476.986 34.0525
477.226 47.7156
477.465 69.4784
477.705 106.495
477.945 175.431
478.065 233.628
478.185 321.317
478.305 460.425
478.425 694.081
478.545 1112.57
478.665 1887.34
478.783 3121.75
478.900 4038.31
479.018 3342.24
479.135 2157.29
479.217 1566.39
479.298 1164.19
479.380 891.010
479.461 701.476
479.624 467.080
479.787 334.991
479.950 253.777
480.113 200.351
480.439 136.512
480.765 101.054
481.091 79.1861
481.417 64.6491
481.743 54.4337
482.395 41.2548
483.047 33.2828
483.699 28.0256
484.351 24.3374
485.655 19.5606
486.959 16.6388
488.264 14.6850
489.568 13.2939
492.176 11.4541
494.784 10.2966
497.392 9.50222
500.000 8.92277
504.485 8.22163
508.969 7.73875
517.939 7.10763
526.908 6.70272
535.877 6.41179
544.847 6.18609
553.816 6.00146
558.301 5.92067
562.785 5.84804
565.028 5.81728
566.149 5.80528
567.270 5.79848
568.391 5.80442
568.952 5.81912
569.512 5.85309
569.793 5.88464
570.073 5.93505
570.353 6.02021
570.633 6.17725
570.774 6.30954
570.914 6.51018
571.054 6.83525
571.194 7.41073
571.264 7.88116
571.334 8.57748
571.404 9.67002
571.474 11.5211
571.544 15.0381
571.579 18.1051
571.614 22.9343
571.650 31.1589
571.685 46.5405
571.702 59.6121
571.720 79.3094
571.737 109.920
571.755 157.717
571.777 249.150
571.800 309.754
571.823 248.736
571.846 157.735
571.862 111.917
571.879 81.8769
571.895 62.1480
571.912 48.9088
571.945 32.9920
571.978 24.3495
572.011 19.1980
572.044 15.9002
572.110 12.0929
572.177 10.0677
572.243 8.86963
572.309 8.10237
572.375 7.58183
572.508 6.94080
572.640 6.57640
572.773 6.34920
572.905 6.19781
573.170 6.01414
573.435 5.91046
573.700 5.84547
573.964 5.80151
574.494 5.74609
575.024 5.71222
576.083 5.67067
577.143 5.64329
578.202 5.62163
580.321 5.58544
584.559 5.52316
588.797 5.46576
605.748 5.25412
639.650 4.86307
673.552 4.46987
690.504 4.26144
694.741 4.20793
698.979 4.15504
701.098 4.13039
703.217 4.11173
704.276 4.11085
704.806 4.11703
705.336 4.13416
705.866 4.17858
706.130 4.22594
706.395 4.31409
706.528 4.38869
706.660 4.50201
706.793 4.68552
706.925 5.01030
706.991 5.27561
707.057 5.66698
707.124 6.27913
707.190 7.31338
707.256 9.26226
707.289 10.9517
707.322 13.5925
707.355 18.0262
707.388 26.1994
707.405 33.0529
707.422 43.1489
707.438 58.6071
707.455 82.0197
707.477 128.731
707.500 159.841
707.523 128.519
707.546 81.8573
707.568 52.6429
707.590 35.9812
707.612 26.2377
707.634 20.2205
707.656 16.2996
707.678 13.6230
707.721 10.3356
707.765 8.47337
707.809 7.32659
707.897 6.04555
707.985 5.38628
708.073 5.00327
708.161 4.76121
708.249 4.59843
708.425 4.39948
708.601 4.28678
708.776 4.21634
708.952 4.16902
709.304 4.11046
709.655 4.07595
710.359 4.03626
711.062 4.01242
711.765 3.99489
713.172 3.96741
715.985 3.92186
718.798 3.87931
730.050 3.70850
741.303 3.52864
744.116 3.48326
746.929 3.44121
748.335 3.42571
749.039 3.42246
749.742 3.42676
750.445 3.45009
750.797 3.47939
751.148 3.53760
751.324 3.58848
751.500 3.66722
751.676 3.79692
751.852 4.03056
751.940 4.22385
752.027 4.51293
752.115 4.97237
752.203 5.76600
752.291 7.31257
752.335 8.70358
752.379 10.9553
752.423 14.9562
752.445 18.2138
752.467 22.9668
752.489 30.3003
752.511 42.2005
752.533 62.6050
752.555 98.2697
752.577 155.195
752.600 193.134
752.623 155.218
752.645 98.2978
752.664 67.0841
752.682 47.6087
752.700 35.3538
752.719 27.3963
752.756 18.1363
752.792 13.2891
752.829 10.4547
752.866 8.67256
752.939 6.64308
753.013 5.57729
753.086 4.95096
753.160 4.55207
753.233 4.28274
753.380 3.95165
753.527 3.76352
753.674 3.64592
753.821 3.56715
754.115 3.47043
754.408 3.41442
754.996 3.35230
755.584 3.31726
756.172 3.29303
757.347 3.25761
759.698 3.20311
762.049 3.15396
771.452 2.95832
790.258 2.51987
809.065 1.99163
827.872 1.34889
837.275 0.984472
846.678 0.609099
856.082 0.279981
858.432 0.221150
860.783 0.180256
861.959 0.168662
863.134 0.164407
864.309 0.168810
865.485 0.183432
866.660 0.210127
867.836 0.251092
869.011 0.308964
870.187 0.386903
871.362 0.488720
872.537 0.619034
874.888 0.988922
877.239 1.55896
879.590 2.42550
881.941 3.74243
884.291 5.76490
886.642 8.93646
888.993 14.0734
891.344 22.7940
893.695 38.6288
894.870 51.5485
896.046 70.3525
897.221 98.8316
898.396 144.180
899.572 221.167
900.747 363.032
901.335 480.360
901.923 651.715
902.510 907.073
903.098 1287.57
903.999 2154.06
904.900 2822.50
905.802 2364.97
906.703 1541.42
907.307 1138.22
907.910 858.090
908.514 664.642
909.117 528.584
910.324 357.753
911.531 259.926
912.738 199.040
913.945 158.600
916.359 109.741
918.773 82.2579
921.188 65.1227
923.602 53.6270
926.016 45.4827
930.844 34.8655
935.672 28.3559
940.500 24.0109
945.328 20.9277
954.984 16.8717
964.641 14.3357
974.297 12.6025
979.125 11.9327
980.332 11.7873
981.539 11.6640
982.143 11.6271
982.445 11.6267
982.746 11.6551
983.048 11.7540
983.199 11.8668
983.350 12.0799
983.501 12.5303
983.576 12.9609
983.652 13.6991
983.727 15.1171
983.765 16.3644
983.802 18.3434
983.840 21.7352
983.878 28.1846
983.897 33.7645
983.916 42.2487
983.934 55.7520
983.953 77.1778
983.977 116.685
984.000 143.024
984.023 116.684
984.047 77.1731
984.062 58.7338
984.078 46.1819
984.109 31.7527
984.140 24.4828
984.172 20.4367
984.203 17.9707
984.234 16.3755
984.296 14.5045
984.359 13.4942
984.421 12.8895
984.545 12.2289
984.670 11.8915
984.795 11.6934
985.044 11.4748
985.293 11.3554
985.543 11.2769
986.041 11.1710
986.540 11.0932
987.038 11.0272
988.035 10.9105
990.029 10.7020
992.023 10.5095
1000.00 9.83135
1012.48 8.97479
1018.72 8.61578
1020.28 8.53391
1021.84 8.45990
1022.62 8.43154
1023.40 8.42608
1023.79 8.45360
1023.98 8.49025
1024.18 8.56368
1024.37 8.72564
1024.47 8.88589
1024.57 9.16487
1024.66 9.72447
1024.71 10.2362
1024.76 11.0583
1024.81 12.5703
1024.83 13.7957
1024.86 15.6117
1024.88 18.5927
1024.91 23.3853
1024.93 31.8691
1024.95 47.4215
1024.98 70.9925
1025.00 86.7463
1025.02 71.0044
1025.05 47.4348
1025.07 30.5172
1025.10 22.1654
1025.13 17.6033
1025.15 14.9153
1025.18 13.1685
1025.20 12.0554
1025.26 10.7150
1025.31 9.96194
1025.36 9.51331
1025.47 9.01645
1025.57 8.75925
1025.68 8.60941
1025.88 8.44854
1026.09 8.36485
1026.30 8.31375
1026.72 8.25152
1027.56 8.17995
1028.40 8.12851
1030.07 8.04095
1031.74 7.96022
1038.44 7.66099
1051.83 7.12579
1078.62 6.20051
1105.40 5.34713
1132.19 4.44816
1158.97 3.36431
1172.37 2.68819
1185.76 1.87574
1192.46 1.41209
1199.15 0.922826
1205.85 0.459013
1209.20 0.281547
1210.87 0.223584
1211.71 0.206018
1212.55 0.198016
1213.38 0.201401
1214.22 0.218325
1215.06 0.251370
1215.89 0.303637
1216.73 0.378869
1217.57 0.481601
1218.41 0.617358
1219.24 0.792906
1220.92 1.29872
1222.59 2.09337
1224.26 3.32683
1225.94 5.24630
1227.61 8.27775
1229.29 13.1963
1230.96 21.5121
1232.63 36.4395
1233.47 48.4468
1234.31 65.6671
1235.15 91.2212
1235.98 130.770
1236.82 195.228
1237.66 307.057
1238.49 514.830
1239.33 917.632
1240.12 1554.35
1240.90 2056.78
1241.69 1739.77
1242.47 1146.48
1243.23 752.921
1243.99 519.388
1244.74 378.358
1245.50 288.843
1246.26 228.867
1247.02 186.948
1248.53 133.576
1250.05 102.053
1251.56 81.7674
1254.59 57.8487
1257.62 44.5921
1260.65 36.3493
1263.68 30.7973
1266.71 26.8346
1272.77 21.5960
1278.83 18.3121
1284.89 16.0691
1286.41 15.6185
1287.92 15.2098
1288.68 15.0285
1289.44 14.8878
1289.82 14.8648
1290.01 14.8881
1290.20 14.9662
1290.39 15.1773
1290.48 15.4000
1290.58 15.7978
1290.67 16.6075
1290.72 17.3410
1290.77 18.5428
1290.81 20.7582
1290.84 22.5993
1290.86 25.2116
1290.88 29.4603
1290.91 36.1771
1290.93 48.5065
1290.95 69.9187
1290.98 103.508
1291.00 126.027
1291.02 103.512
1291.05 69.9157
1291.06 53.7577
1291.08 43.5267
1291.09 36.1484
1291.11 31.3781
1291.14 25.2979
1291.17 21.9181
1291.20 19.8703
1291.23 18.5430
1291.29 17.0068
1291.36 16.1591
1291.42 15.6486
1291.54 15.0880
1291.66 14.7914
1291.79 14.6120
1292.03 14.3985
1292.28 14.2677
1292.53 14.1711
1293.02 14.0217
1294.01 13.7834
1295.00 13.5735
1298.94 12.8398
1306.84 11.6610
1322.64 9.97079
1338.43 8.74121
1354.23 7.70130
1370.02 6.65667
1377.92 6.05568
1385.82 5.32759
1389.77 4.88290
1393.72 4.35508
1397.67 3.70920
1401.62 2.89683
1403.59 2.41235
1405.56 1.87643
1407.54 1.31837
1409.51 0.865946
1410.01 0.810675
1410.50 0.803131
1411.00 0.865772
1411.49 1.03150
1411.74 1.16816
1411.98 1.35150
1412.23 1.59230
1412.48 1.90271
1412.72 2.30250
1412.97 2.81278
1413.46 4.28523
1413.96 6.68519
1414.45 10.6560
1414.94 17.4896
1415.44 29.8596
1415.68 39.8723
1415.93 54.2528
1416.18 75.5838
1416.42 108.335
1416.67 161.539
1416.92 252.778
1417.16 419.106
1417.41 731.266
1417.66 1250.22
1417.90 1664.35
1418.15 1415.45
1418.39 940.093
1418.60 651.947
1418.81 469.128
1419.02 352.475
1419.23 275.545
1419.64 184.118
1420.06 134.341
1420.48 104.206
1420.89 84.4824
1421.73 60.8463
1422.56 47.5381
1423.40 39.1927
1424.23 33.5359
1425.06 29.4814
1426.73 24.1024
1428.40 20.7289
1430.07 18.4264
1431.74 16.7610
1435.08 14.5135
1438.41 13.0653
1441.75 12.0500
1445.09 11.2944
1451.76 10.2334
1458.43 9.51031
1471.78 8.55258
1485.13 7.91126
1498.48 7.42439
1525.17 6.67502
1551.87 6.06231
1578.56 5.49735
1605.26 4.93130
1618.61 4.63627
1625.28 4.48533
1628.62 4.41513
1629.45 4.40346
1630.29 4.40612
1630.70 4.42677
1631.12 4.50056
1631.33 4.60696
1631.54 4.89286
1631.64 5.25968
1631.69 5.59305
1631.75 6.14389
1631.80 7.14648
1631.82 7.98446
1631.85 9.24628
1631.88 11.2565
1631.90 14.6875
1631.93 21.0151
1631.95 33.7458
1631.98 51.0949
1632.00 63.1429
1632.02 51.1021
1632.05 33.7540
1632.06 25.2503
1632.08 19.7587
1632.09 15.8143
1632.11 13.2741
1632.14 10.0514
1632.17 8.31382
1632.20 7.22275
1632.23 6.51974
1632.29 5.71222
1632.35 5.27131
1632.41 5.01234
1632.54 4.72855
1632.78 4.50275
1633.03 4.41442
1633.52 4.34057
1634.01 4.30627
1634.99 4.26603
1635.98 4.23627
1639.91 4.13376
1647.77 3.93270
1663.50 3.50430
1679.23 3.02886
1687.09 2.77157
1689.06 2.70668
1691.02 2.64546
1692.01 2.62096
1692.99 2.61463
1693.48 2.63632
1693.97 2.72692
1694.22 2.86324
1694.34 2.99910
1694.46 3.23878
1694.59 3.72673
1694.65 4.18551
1694.71 4.94478
1694.77 6.38926
1694.80 7.63676
1694.83 9.49951
1694.86 12.6775
1694.89 18.1921
1694.91 22.9977
1694.92 29.5455
1694.94 39.1475
1694.95 53.7650
1694.98 84.1772
1695.00 105.062
1695.02 84.1961
1695.05 53.7874
1695.07 31.7718
1695.10 20.3843
1695.13 14.3266
1695.15 10.8261
1695.18 8.65036
1695.21 7.21565
1695.26 5.53327
1695.31 4.59210
1695.37 4.02461
1695.48 3.40820
1695.58 3.09219
1695.69 2.91109
1695.90 2.71799
1696.33 2.56205
1696.76 2.49508
1697.62 2.42571
1698.48 2.38036
1700.20 2.30612
1701.91 2.23734
1708.78 1.96368
1722.51 1.38119
1736.25 0.766615
1743.11 0.473453
1749.98 0.227605
1753.41 0.140887
1755.13 0.111800
1756.85 0.0950716
1758.56 0.0933859
1760.28 0.110036
1762.00 0.149074
1763.71 0.215417
1765.43 0.315286
1767.15 0.456305
1768.86 0.648070
1770.58 0.902524
1774.01 1.66600
1777.44 2.93197
1780.88 5.02110
1784.31 8.51445
1787.74 14.5436
1791.18 25.4989
1792.89 34.3473
1794.61 47.0320
1796.33 65.7913
1798.04 94.5908
1799.76 140.956
1801.48 219.706
1803.19 361.562
1804.91 625.003
1806.66 1070.73
1808.40 1432.92
1810.15 1225.68
1811.89 814.961
1812.95 626.160
1814.00 488.484
1816.11 316.357
1818.22 220.831
1820.32 162.889
1822.43 124.299
1824.54 95.2941
1825.59 81.7780
1826.12 74.5555
1826.65 66.4548
1827.18 56.6274
1827.44 50.5993
1827.70 43.5124
1827.97 35.1878
1828.10 30.8485
1828.23 27.2361
1828.36 26.6460
1828.43 29.5209
1828.46 32.5531
1828.49 37.2281
1828.53 44.2266
1828.56 54.5467
1828.58 61.6191
1828.59 69.6712
1828.63 91.8225
1828.66 124.342
1828.69 172.195
1828.72 242.444
1828.76 340.373
1828.79 494.408
1828.83 689.887
1828.86 884.429
1828.90 1002.84
1828.97 917.324
1829.04 688.656
1829.09 575.090
1829.13 487.820
1829.22 370.738
1829.31 299.875
1829.40 254.385
1829.48 222.630
1829.57 199.647
1829.75 168.982
1829.92 149.332
1830.10 135.793
1830.45 118.076
1830.80 106.849
1831.15 98.9369
1831.85 88.1867
1832.55 80.8790
1833.26 75.3735
1834.66 67.2568
1837.47 56.5262
1840.27 49.2751
1845.89 39.6703
1851.50 33.4778
1862.73 25.9167
1868.34 23.4438
1871.15 22.4218
1871.85 22.1947
1872.55 22.0007
1872.90 21.9411
1873.25 21.9792
1873.43 22.1231
1873.52 22.2859
1873.60 22.5833
1873.69 23.1952
1873.74 23.7569
1873.78 24.6519
1873.82 26.2782
1873.85 27.6066
1873.87 29.5588
1873.89 32.5639
1873.91 37.4454
1873.93 45.8210
1873.95 60.3743
1873.98 83.2352
1874.00 99.1977
1874.02 83.2386
1874.05 60.2821
1874.07 46.3057
1874.09 38.2964
1874.11 33.2270
1874.13 30.1832
1874.17 26.6700
1874.21 24.8789
1874.25 23.8505
1874.29 23.2066
1874.37 22.4789
1874.45 22.0843
1874.54 21.8442
1874.70 21.5680
1875.03 21.2946
1875.35 21.1325
1876.01 20.8920
1876.66 20.6863
1877.96 20.3092
1879.27 19.9559
1884.49 18.6941
1894.94 16.6827
1915.84 13.8345
1926.29 12.6770
1931.51 12.0942
1936.74 11.4582
1941.96 10.6832
1944.57 10.1848
1947.18 9.54070
1948.49 9.12880
1949.80 8.62293
1951.10 7.97790
1952.41 7.11763
1953.06 6.56905
1953.71 5.91291
1954.37 5.12617
1955.02 4.20879
1955.35 3.73069
1955.67 3.30800
1956.00 3.09233
1956.16 3.17355
1956.33 3.50596
1956.49 4.28408
1956.57 4.94168
1956.65 5.85327
1956.73 7.14238
1956.82 8.92269
1956.90 11.4587
1956.98 15.0217
1957.06 20.2361
1957.14 27.9559
1957.22 39.7115
1957.31 57.9797
1957.39 88.3940
1957.47 140.420
1957.55 236.848
1957.59 313.766
1957.63 416.130
1957.72 733.916
1957.80 993.120
1957.89 858.509
1957.97 585.807
1958.05 396.076
1958.13 282.778
1958.22 212.972
1958.30 167.801
1958.38 137.077
1958.46 115.250
1958.63 86.9393
1958.79 69.7248
1958.96 58.4902
1959.28 44.8889
1959.61 37.0922
1959.94 32.1327
1960.27 28.7184
1960.60 26.2360
1961.25 22.8795
1961.91 20.7268
1962.57 19.2311
1963.22 18.1326
1964.54 16.6185
1965.85 15.6207
1967.16 14.9067
1968.48 14.3666
1971.10 13.5913
1973.73 13.0491
1978.99 12.3098
1984.24 11.8007
1989.49 11.4090
2000.00 10.8109
2016.76 10.1092
2033.52 9.56096
2067.03 8.68620
2100.55 7.95107
2134.07 7.25258
2167.58 6.49588
2184.34 6.04915
2201.10 5.50620
2217.86 4.77966
2226.24 4.29024
2234.61 3.65258
2238.80 3.25026
2242.99 2.76959
2247.18 2.18787
2251.37 1.48825
2253.47 1.10212
2255.56 0.722107
2257.66 0.429403
2258.70 0.378427
2259.23 0.399212
2259.75 0.465609
2260.28 0.594270
2260.80 0.807953
2261.32 1.13889
2261.85 1.63226
2262.37 2.35768
2262.89 3.41607
2263.42 4.96419
2263.94 7.24615
2264.47 10.6818
2264.99 15.9794
2265.51 24.4386
2266.04 38.5629
2266.56 63.7778
2266.82 83.9446
2267.08 112.526
2267.35 154.484
2267.61 217.652
2267.87 315.012
2268.13 464.816
2268.52 805.546
2268.90 1089.47
2269.29 939.584
2269.67 630.069
2269.92 479.577
2270.16 371.725
2270.66 240.313
2271.15 169.195
2271.64 127.281
2272.14 100.493
2272.63 82.3678
2273.62 59.9178
2274.60 46.9040
2275.59 38.5983
2277.56 28.7932
2279.54 23.3051
2281.51 19.8451
2283.48 17.4781
2285.46 15.7618
2289.40 13.4412
2293.35 11.9415
2297.30 10.8845
2301.24 10.0922
2309.14 8.96029
2317.03 8.16040
2332.81 7.00316
2348.60 6.05225
2356.49 5.56695
2364.38 5.02294
2372.28 4.34632
2376.22 3.91229
2380.17 3.36416
2382.14 3.02540
2384.12 2.62617
2386.09 2.14932
2388.06 1.58311
2389.05 1.27401
2390.04 0.973658
2391.02 0.748784
2391.52 0.716431
2392.01 0.798690
2392.26 0.910265
2392.50 1.09212
2392.75 1.37082
2393.00 1.78261
2393.24 2.38670
2393.49 3.26166
2393.74 4.54415
2393.98 6.42924
2394.23 9.27464
2394.48 13.6706
2394.72 20.7144
2394.97 32.5073
2395.22 53.7746
2395.34 70.8510
2395.46 95.3285
2395.59 131.832
2395.71 187.091
2395.83 273.586
2395.96 409.741
2396.13 707.548
2396.30 954.799
2396.47 823.236
2396.65 551.512
2396.76 413.541
2396.88 317.132
2397.11 201.721
2397.34 140.458
2397.57 104.956
2397.80 82.4391
2398.03 67.3498
2398.49 48.7565
2398.95 38.0678
2399.41 31.2721
2400.33 23.2963
2401.25 18.8451
2402.18 16.0455
2403.10 14.1299
2404.02 12.7425
2405.86 10.8635
2407.71 9.64653
2409.55 8.78602
2411.39 8.13832
2415.08 7.20812
2418.76 6.54834
2426.14 5.60455
2433.51 4.88406
2440.88 4.24975
2455.63 3.02179
2463.00 2.37258
2470.37 1.68371
2477.75 0.972877
2485.12 0.344250
2486.96 0.235182
2488.81 0.166459
2489.73 0.152889
2490.65 0.157221
2491.57 0.183332
2492.49 0.235907
2493.41 0.320914
2494.34 0.445579
2495.26 0.618977
2496.18 0.852222
2497.10 1.16025
2498.02 1.56080
2499.87 2.74303
2501.71 4.69265
2503.55 7.93034
2505.40 13.4483
2507.24 23.2739
2508.16 31.0501
2509.08 41.9686
2510.00 57.7300
2510.92 81.1296
2511.85 117.193
2512.77 174.849
2513.69 270.646
2514.61 431.451
2515.76 752.076
2516.90 1020.83
2518.05 885.100
2519.19 597.710
2520.31 399.658
2521.43 280.671
2522.54 207.986
2523.66 161.395
2524.78 129.909
2525.90 107.699
2528.13 79.0851
2530.37 61.9060
2532.60 50.6765
2537.07 37.1509
2541.54 29.4258
2546.01 24.4727
2550.48 21.0366
2551.60 20.3456
2552.71 19.7337
2553.27 19.4843
2553.83 19.3569
2554.11 19.4435
2554.25 19.5972
2554.39 19.9202
2554.53 20.6448
2554.60 21.3474
2554.67 22.5289
2554.74 24.7856
2554.77 26.7324
2554.81 29.7494
2554.84 34.7418
2554.88 43.7286
2554.91 61.6451
2554.93 76.7442
2554.95 99.9836
2554.97 149.034
2555.00 181.386
2555.03 149.056
2555.05 99.8355
2555.07 73.6265
2555.09 57.5080
2555.11 46.6879
2555.13 39.8926
2555.18 31.7001
2555.22 27.3477
2555.26 24.7856
2555.30 23.1560
2555.38 21.2935
2555.46 20.2795
2555.54 19.6730
2555.71 18.9829
2555.87 18.6025
2556.03 18.3540
2556.36 18.0248
2557.01 17.5958
2557.66 17.2612
2558.97 16.6793
2560.27 16.1526
2565.49 14.3482
2575.93 11.5762
2586.37 9.33289
2596.81 7.20723
2607.25 4.87591
2612.46 3.53707
2617.68 2.07260
2622.90 0.694381
2624.21 0.463641
2624.86 0.389119
2625.51 0.352934
2626.17 0.366243
2626.82 0.443628
2627.47 0.604202
2628.12 0.873262
2628.78 1.28535
2629.43 1.88493
2630.08 2.73650
2630.73 3.92435
2631.39 5.57500
2632.04 7.85967
2632.69 11.0390
2633.34 15.5012
2633.99 21.8572
2634.65 31.0420
2635.30 44.6582
2635.95 65.3466
2636.60 97.9382
2637.26 151.042
2637.91 240.669
2638.56 393.347
2639.38 704.853
2640.20 965.376
2641.02 842.936
2641.84 580.924
2642.51 422.508
2643.18 317.389
2643.85 247.539
2644.51 199.710
2645.85 140.856
2647.19 107.487
2648.52 86.6024
2649.86 72.5716
2652.53 55.2104
2655.21 45.0754
2657.88 38.5121
2660.55 33.9439
2663.22 30.5931
2668.57 26.0132
2673.92 23.0309
2679.26 20.9291
2684.61 19.3619
2695.30 17.1619
2705.99 15.6686
2727.37 13.6992
2748.75 12.3469
2759.45 11.7569
2770.14 11.1572
2780.83 10.4635
2786.17 10.0278
2791.52 9.46802
2794.19 9.10908
2796.87 8.66518
2799.54 8.09163
2802.21 7.30861
2803.55 6.79425
2804.88 6.15937
2806.22 5.35694
2807.56 4.32642
2808.23 3.70607
2808.89 3.02082
2809.56 2.31297
2810.23 1.75112
2810.56 1.68068
2810.90 1.96830
2811.06 2.35654
2811.23 3.01241
2811.40 4.06815
2811.57 5.73372
2811.73 8.35359
2811.90 12.5159
2812.07 19.2733
2812.23 30.6192
2812.40 50.5868
2812.48 66.3326
2812.57 87.9622
2812.65 118.975
2812.73 163.143
2812.82 228.346
2812.90 321.846
2813.05 578.096
2813.20 794.523
2813.35 695.870
2813.50 480.554
2813.67 313.307
2813.83 218.163
2814.00 162.356
2814.17 127.413
2814.33 104.154
2814.50 87.8629
2814.84 66.9845
2815.17 54.4558
2815.50 46.2420
2816.17 36.3033
2816.84 30.5835
2817.51 26.9152
2818.17 24.3704
2818.84 22.5124
2820.18 19.9821
2821.51 18.3438
2822.85 17.1966
2824.18 16.3476
2826.85 15.1709
2829.52 14.3891
2832.19 13.8271
2834.86 13.4002
2840.20 12.7859
2845.54 12.3561
2856.22 11.7723
2866.90 11.3748
2877.58 11.0743
2882.92 10.9485
2888.26 10.8379
2890.93 10.7916
2893.60 10.7629
2894.94 10.7706
2896.27 10.8392
2896.94 10.9558
2897.28 11.0772
2897.61 11.3004
2897.94 11.7747
2898.11 12.2373
2898.28 13.0560
2898.36 13.7290
2898.44 14.7117
2898.53 16.2700
2898.61 18.8758
2898.69 23.8631
2898.74 28.2158
2898.78 34.8597
2898.82 46.3083
2898.86 66.9309
2898.88 84.5911
2898.90 110.949
2898.92 151.393
2898.94 211.768
2898.97 333.664
2899.00 413.088
2899.03 333.802
2899.06 211.941
2899.09 124.473
2899.12 79.8767
2899.16 56.3037
2899.19 43.0489
2899.23 34.5310
2899.26 29.0708
2899.33 22.4511
2899.39 18.8291
2899.46 16.6408
2899.59 14.2473
2899.73 13.0308
2899.86 12.3383
2900.00 11.9037
2900.13 11.6129
2900.40 11.2581
2900.67 11.0587
2901.20 10.8504
2901.74 10.7469
2902.28 10.6856
2903.35 10.6148
2905.50 10.5408
2907.65 10.4921
2911.94 10.4148
2916.24 10.3468
2924.83 10.2234
2933.42 10.1108
2950.60 9.90918
2967.78 9.73124
3002.14 9.42597
3036.50 9.16826
3105.22 8.74268
3122.40 8.64923
3139.58 8.55970
3156.76 8.47464
3165.35 8.43876
3167.50 8.43499
3169.65 8.44368
3170.72 8.46510
3171.80 8.53484
3172.33 8.63478
3172.60 8.73461
3172.87 8.91409
3173.14 9.28874
3173.27 9.64771
3173.41 10.2741
3173.54 11.5145
3173.61 12.6483
3173.67 14.5228
3173.74 17.9411
3173.78 20.8564
3173.81 25.1264
3173.84 32.1652
3173.88 43.8700
3173.91 66.2659
3173.94 108.597
3173.97 168.768
3174.00 208.919
3174.03 168.858
3174.06 108.711
3174.08 78.6756
3174.10 58.9159
3174.12 45.8996
3174.14 37.4493
3174.18 26.9092
3174.22 21.1216
3174.27 17.5786
3174.31 15.3629
3174.39 12.7868
3174.47 11.3959
3174.55 10.5800
3174.72 9.69459
3174.88 9.25349
3175.05 9.00235
3175.38 8.74153
3176.04 8.54444
3176.70 8.47089
3178.02 8.41284
3179.34 8.38802
3181.98 8.36195
3184.61 8.34460
3195.17 8.29018
3216.28 8.19150
3237.39 8.09563
3258.50 8.00088
3300.73 7.81031
3321.84 7.71216
3332.39 7.66396
3337.67 7.65022
3338.99 7.65660
3340.31 7.68681
3340.97 7.73440
3341.63 7.87257
3341.96 8.06226
3342.13 8.24766
3342.29 8.57697
3342.46 9.24706
3342.54 9.88228
3342.62 10.9529
3342.70 13.0281
3342.74 14.8364
3342.79 17.7038
3342.83 22.6192
3342.87 31.9776
3342.89 40.3065
3342.91 52.4586
3342.93 72.7705
3342.95 105.368
3342.98 164.267
3343.00 203.131
3343.03 164.346
3343.05 105.467
3343.08 64.9588
3343.11 44.0512
3343.13 32.3660
3343.16 25.3737
3343.19 20.7860
3343.21 17.8353
3343.27 14.2573
3343.32 12.2360
3343.38 11.0274
3343.49 9.68046
3343.60 8.99529
3343.70 8.60026
3343.92 8.18586
3344.14 7.98401
3344.36 7.87049
3344.79 7.75358
3345.66 7.66434
3346.54 7.62934
3348.28 7.59800
3350.02 7.58089
3356.99 7.53545
3370.93 7.45303
3384.87 7.36197
3398.80 7.25346
3412.74 7.11038
3419.71 7.01345
3426.68 6.88344
3430.17 6.79754
3433.65 6.68894
3437.13 6.54469
3440.62 6.34004
3442.36 6.20008
3444.10 6.02006
3445.85 5.77860
3447.59 5.43650
3448.46 5.20524
3449.33 4.91344
3450.20 4.53454
3451.07 4.02766
3451.51 3.70830
3451.94 3.33669
3452.38 2.91281
3452.81 2.47736
3453.03 2.30145
3453.25 2.22880
3453.47 2.40960
3453.69 3.21204
3453.79 4.12130
3453.90 5.69308
3454.01 8.44735
3454.07 10.5859
3454.12 13.4458
3454.18 17.4778
3454.23 23.0620
3454.29 31.2771
3454.34 43.2457
3454.39 61.9293
3454.45 91.0079
3454.50 138.350
3454.56 216.074
3454.63 382.520
3454.70 527.350
3454.77 464.064
3454.84 318.417
3454.90 237.183
3454.95 181.201
3455.00 142.902
3455.06 116.119
3455.16 82.5398
3455.27 63.3327
3455.37 51.0984
3455.48 42.9219
3455.69 32.7497
3455.90 26.8146
3456.11 23.0191
3456.32 20.3987
3456.53 18.4931
3456.96 15.9207
3457.38 14.2843
3457.80 13.1554
3458.22 12.3322
3459.07 11.2144
3459.91 10.4942
3460.76 9.99114
3461.60 9.62075
3463.29 9.11054
3464.98 8.77511
3466.67 8.53695
3468.36 8.35838
3471.74 8.10650
3475.11 7.93518
3478.49 7.80905
3481.87 7.71080
3488.63 7.56369
3495.38 7.45433
3508.90 7.29017
3522.41 7.15976
3535.92 7.04343
3549.43 6.93416
3556.19 6.89057
3557.88 6.88952
3559.57 6.91246
3560.41 6.95666
3561.26 7.09260
3561.68 7.28378
3561.89 7.47210
3562.10 7.80916
3562.31 8.50222
3562.42 9.16525
3562.52 10.2989
3562.63 12.5307
3562.68 14.5424
3562.74 17.7391
3562.79 23.5094
3562.82 28.3277
3562.84 35.1521
3562.87 46.0994
3562.89 63.2787
3562.92 92.5930
3562.95 143.843
3562.97 226.074
3563.00 280.915
3563.03 226.116
3563.05 143.888
3563.07 105.512
3563.09 80.5874
3563.12 51.1224
3563.16 35.8220
3563.19 27.1115
3563.23 21.7505
3563.26 18.2396
3563.33 14.0952
3563.40 11.8212
3563.46 10.4789
3563.60 9.01634
3563.74 8.27587
3563.87 7.85541
3564.15 7.41613
3564.42 7.20210
3564.69 7.08218
3565.24 6.95758
3566.33 6.86021
3567.42 6.81938
3569.60 6.77762
3571.78 6.75040
3580.50 6.66425
3589.22 6.58623
3591.40 6.57242
3593.58 6.57409
3594.67 6.59671
3595.76 6.68179
3596.31 6.80900
3596.58 6.93774
3596.85 7.17085
3597.13 7.66051
3597.26 8.13174
3597.40 8.95689
3597.54 10.6163
3597.60 12.1341
3597.67 14.6586
3597.74 19.3024
3597.77 23.2277
3597.81 29.2063
3597.84 38.8826
3597.88 55.7779
3597.91 88.0035
3597.93 114.999
3597.94 155.660
3597.97 243.804
3598.00 304.939
3598.03 244.096
3598.06 155.765
3598.09 95.3053
3598.11 63.4059
3598.14 45.3818
3598.17 34.5138
3598.20 27.5507
3598.23 22.8558
3598.29 17.1502
3598.35 13.9230
3598.41 11.9875
3598.52 9.84089
3598.64 8.73463
3598.75 8.10056
3598.99 7.43148
3599.22 7.10237
3599.45 6.91721
3599.92 6.72431
3600.85 6.57469
3601.78 6.51393
3603.64 6.45584
3605.50 6.42103
3612.94 6.31747
3620.39 6.21632
3627.83 6.10638
3642.72 5.84433
3657.61 5.49203
3665.05 5.26032
3672.49 4.97010
3679.94 4.59177
3687.38 4.07237
3691.10 3.73079
3694.83 3.30883
3698.55 2.77644
3702.27 2.09398
3704.13 1.68543
3705.99 1.23608
3707.85 0.778049
3708.78 0.576216
3709.71 0.432977
3710.64 0.414515
3711.11 0.489643
3711.57 0.655030
3712.04 0.952549
3712.51 1.44318
3712.97 2.22391
3713.44 3.44896
3713.90 5.37899
3714.37 8.44826
3714.83 13.4640
3715.30 21.9825
3715.76 37.2515
3715.99 49.4654
3716.23 66.6740
3716.46 91.7082
3716.69 128.660
3716.92 184.684
3717.16 268.893
3717.53 477.882
3717.90 661.116
3718.27 582.746
3718.64 399.149
3718.94 290.051
3719.23 217.117
3719.53 168.551
3719.82 135.394
3720.41 94.5471
3721.00 71.5091
3721.59 57.1504
3722.18 47.5642
3723.36 35.7921
3724.54 28.9829
3725.72 24.6166
3726.90 21.6063
3728.07 19.4192
3730.43 16.4666
3732.79 14.5783
3735.15 13.2700
3737.50 12.3107
3742.22 10.9958
3746.93 10.1324
3751.65 9.51572
3756.36 9.04798
3765.79 8.36838
3775.22 7.87507
3794.08 7.11811
3812.94 6.40689
3822.37 5.98847
3831.80 5.46250
3836.51 5.13018
3841.22 4.72460
3845.94 4.21034
3850.65 3.52928
3853.01 3.09757
3855.37 2.58449
3857.73 1.97437
3860.08 1.27235
3861.26 0.913419
3862.44 0.603881
3863.03 0.500462
3863.62 0.466118
3863.91 0.488608
3864.21 0.548101
3864.80 0.827164
3865.09 1.08195
3865.39 1.44724
3865.68 1.96025
3865.98 2.67002
3866.27 3.65468
3866.57 5.01290
3866.86 6.91018
3867.15 9.56893
3867.45 13.3751
3867.74 18.9142
3868.04 27.1757
3868.33 39.8271
3868.63 60.0682
3868.92 93.6183
3869.22 152.007
3869.51 254.763
3869.86 455.561
3870.20 631.709
3870.55 558.027
3870.89 383.895
3871.13 291.834
3871.36 226.476
3871.60 180.564
3871.83 147.769
3872.31 105.733
3872.78 80.9857
3873.25 65.1808
3873.72 54.4245
3874.66 41.0179
3875.61 33.1521
3876.55 28.0706
3878.44 21.9718
3880.33 18.4842
3882.21 16.2423
3884.10 14.6805
3885.99 13.5275
3889.76 11.9259
3893.54 10.8443
3897.31 10.0370
3901.09 9.38184
3908.63 8.25518
3912.41 7.67810
3916.18 7.00493
3918.07 6.59715
3919.96 6.11052
3921.85 5.50421
3923.73 4.71166
3924.68 4.21325
3925.62 3.62380
3926.56 2.92722
3927.51 2.13400
3927.98 1.73326
3928.45 1.39430
3928.92 1.25792
3929.16 1.36376
3929.39 1.69159
3929.63 2.40056
3929.87 3.77495
3929.98 4.86614
3930.10 6.36283
3930.22 8.42563
3930.34 11.2935
3930.46 15.3308
3930.57 21.1090
3930.69 29.5523
3930.81 42.2049
3930.93 61.7326
3931.05 92.8526
3931.16 143.882
3931.28 227.198
3931.44 411.612
3931.60 573.143
3931.76 508.239
3931.92 353.338
3932.06 250.446
3932.20 185.033
3932.35 142.691
3932.49 114.623
3932.77 80.7981
3933.06 62.0660
3933.34 50.4473
3933.63 42.7189
3934.20 33.1962
3934.77 27.6548
3935.34 24.0832
3935.90 21.6022
3936.47 19.7853
3937.61 17.3091
3938.75 15.7072
3939.89 14.5856
3941.03 13.7558
3943.30 12.6061
3945.58 11.8434
3947.86 11.2959
3950.13 10.8810
3954.69 10.2866
3959.24 9.87436
3968.34 9.32386
3977.45 8.95956
3986.56 8.69177
4004.77 8.30878
4022.98 8.03443
4041.19 7.81864
4077.62 7.48048
4150.47 6.95780
4223.32 6.46809
4296.16 5.87994
4332.59 5.49115
4369.01 4.97615
4387.23 4.64154
4405.44 4.22737
4423.65 3.69727
4441.86 2.99237
4450.97 2.54694
4460.07 2.02117
4469.18 1.40577
4478.29 0.723349
4482.84 0.397496
4485.12 0.258930
4487.39 0.153678
4489.67 0.103437
4490.81 0.109056
4491.95 0.142767
4493.08 0.212363
4494.22 0.327674
4495.36 0.501661
4496.50 0.751260
4497.64 1.09925
4498.78 1.57509
4499.91 2.21976
4501.05 3.08927
4502.19 4.26304
4503.33 5.85030
4504.47 8.01313
4505.60 10.9904
4506.74 15.1493
4507.88 21.0495
4509.02 29.6063
4510.16 42.3361
4511.30 61.8631
4512.43 92.7363
4513.57 142.999
4514.71 225.428
4516.26 406.476
4517.80 568.563
4519.35 506.439
4520.89 350.785
4522.74 221.936
4524.58 151.263
4526.42 110.985
4528.27 86.2837
4530.11 70.0608
4531.96 58.8151
4535.65 44.5337
4539.33 36.0300
4543.02 30.4806
4550.40 23.7809
4557.78 19.9375
4565.16 17.4682
4572.53 15.7550
4579.91 14.4994
4594.67 12.7826
4609.42 11.6617
4616.80 11.2347
4624.18 10.8723
4627.86 10.7141
4631.55 10.5790
4633.40 10.5322
4635.24 10.5370
4636.16 10.6074
4636.63 10.6947
4637.09 10.8669
4637.55 11.2477
4637.78 11.6280
4638.01 12.3062
4638.24 13.7013
4638.35 15.0125
4638.47 17.2507
4638.59 21.5852
4638.64 25.4238
4638.70 31.4221
4638.76 41.9351
4638.82 61.7105
4638.84 79.1817
4638.87 106.208
4638.90 149.640
4638.93 218.603
4638.97 342.819
4639.00 427.372
4639.04 343.160
4639.07 219.035
4639.10 151.962
4639.12 110.159
4639.15 83.3443
4639.18 65.5870
4639.23 44.4590
4639.29 33.4627
4639.34 26.8829
4639.40 22.7915
4639.51 18.0613
4639.61 15.5702
4639.72 14.1013
4639.94 12.5278
4640.16 11.7455
4640.38 11.2990
4640.81 10.8313
4641.25 10.5985
4641.68 10.4628
4642.55 10.3102
4644.30 10.1618
4646.04 10.0729
4649.52 9.94060
4653.01 9.82902
4659.98 9.63307
4663.46 9.55403
4665.21 9.55905
4665.64 9.59782
4666.08 9.72276
4666.30 9.89735
4666.51 10.3626
4666.62 10.9470
4666.73 12.3499
4666.79 13.9402
4666.84 17.1536
4666.87 20.1534
4666.89 25.1330
4666.92 33.9528
4666.95 50.5506
4666.97 74.9867
4667.00 91.7309
4667.03 75.0507
4667.05 50.6295
4667.08 32.7590
4667.11 23.6287
4667.14 18.8025
4667.18 16.0251
4667.24 13.1705
4667.30 11.8264
4667.42 10.6506
4667.55 10.1665
4667.80 9.77899
4668.04 9.62842
4668.54 9.50681
4669.03 9.45489
4671.01 9.36784
4674.98 9.26668
4682.90 9.09359
4698.75 8.78601
4730.44 8.24572
4746.29 7.97261
4754.22 7.81912
4762.14 7.63841
4770.06 7.40037
4774.03 7.23809
4777.99 7.01904
4779.97 6.87385
4781.95 6.69017
4783.93 6.44700
4785.91 6.10501
4786.90 5.87407
4787.89 5.58149
4788.88 5.19749
4789.87 4.67382
4790.37 4.33446
4790.87 3.92604
4791.36 3.43269
4791.86 2.85223
4792.35 2.26652
4792.60 2.10297
4792.85 2.29014
4792.97 2.69666
4793.09 3.53472
4793.22 5.17012
4793.34 8.32848
4793.40 10.9660
4793.47 14.7747
4793.53 20.3885
4793.59 28.8749
4793.65 42.0956
4793.71 63.3856
4793.78 98.7210
4793.84 156.643
4793.92 283.944
4794.00 399.280
4794.04 397.788
4794.08 357.743
4794.16 249.990
4794.22 196.833
4794.27 158.166
4794.37 108.415
4794.47 80.3112
4794.57 63.2770
4794.67 51.9854
4794.77 44.2281
4794.97 34.3054
4795.17 28.3840
4795.37 24.5099
4795.77 19.8170
4796.18 17.1160
4796.58 15.3767
4796.98 14.1691
4797.38 13.2840
4798.19 12.0767
4798.99 11.2931
4799.79 10.7436
4800.60 10.3367
4802.21 9.77307
4803.81 9.39941
4805.42 9.13178
4807.03 8.92929
4810.25 8.63961
4813.46 8.43844
4819.89 8.16659
4826.33 7.98047
4832.76 7.83657
4845.62 7.61031
4871.35 7.24878
4897.08 6.90229
4922.81 6.49997
4935.68 6.25033
4948.54 5.94199
4961.41 5.53609
4974.27 4.95517
4980.70 4.55072
4987.14 4.01969
4993.57 3.29000
4996.78 2.81493
5000.00 2.24064
5002.15 1.79406
5004.29 1.29991
5006.44 0.788256
5007.51 0.555272
5008.58 0.376529
5009.66 0.315619
5010.19 0.365422
5010.73 0.500865
5011.27 0.761155
5011.80 1.20318
5012.34 1.91754
5012.88 3.04128
5013.41 4.80630
5013.95 7.58925
5014.49 12.0780
5015.02 19.5108
5015.56 32.3965
5016.09 55.8918
5016.36 74.8022
5016.63 101.513
5016.90 139.590
5017.17 193.621
5017.68 352.426
5018.20 496.703
5018.72 445.031
5019.23 310.065
5019.69 221.266
5020.14 163.929
5020.59 126.791
5021.05 101.862
5021.95 71.7710
5022.86 55.0102
5023.77 44.6209
5024.67 37.6854
5026.49 29.1478
5028.30 24.1802
5030.11 20.9717
5031.92 18.7438
5033.74 17.1138
5037.36 14.8947
5040.99 13.4602
5044.61 12.4575
5048.24 11.7167
5055.49 10.6924
5062.74 10.0132
5069.99 9.52516
5077.24 9.15353
5091.74 8.61340
5106.24 8.22474
5135.25 7.64923
5164.25 7.15103
5178.75 6.87713
5193.25 6.54466
5200.50 6.33735
5207.75 6.08379
5215.00 5.75750
5222.25 5.30939
5225.88 5.01136
5229.51 4.63706
5233.13 4.15098
5236.76 3.49446
5238.57 3.07384
5240.38 2.57119
5242.19 1.97198
5244.01 1.28417
5245.82 0.636938
5246.73 0.511366
5246.95 0.536027
5247.18 0.596670
5247.63 0.872361
5248.09 1.47280
5248.31 1.96352
5248.54 2.63562
5248.77 3.55979
5248.99 4.81927
5249.22 6.55815
5249.44 8.95635
5249.67 12.3322
5249.90 17.1143
5250.12 24.0819
5250.35 34.3792
5250.58 50.1523
5250.80 74.7950
5251.03 114.626
5251.26 178.739
5251.58 326.600
5251.90 461.740
5252.22 414.910
5252.54 290.026
5252.83 207.050
5253.11 153.456
5253.40 118.814
5253.68 95.6623
5254.25 67.6542
5254.82 52.0634
5255.39 42.3878
5255.96 35.9286
5257.10 27.9680
5258.24 23.3283
5259.38 20.3305
5260.52 18.2451
5261.65 16.7190
5263.93 14.6399
5266.21 13.2963
5268.49 12.3578
5270.76 11.6656
5275.32 10.7118
5279.87 10.0841
5284.43 9.63734
5288.98 9.30167
5298.09 8.82627
5307.20 8.50080
5316.31 8.25975
5325.42 8.07099
5343.63 7.78681
5361.85 7.57485
5398.29 7.25815
5434.72 7.01080
5471.16 6.79448
5544.03 6.38795
5616.90 5.94566
5653.33 5.68127
5689.77 5.35956
5726.20 4.93377
5744.42 4.65131
5762.64 4.28685
5780.85 3.77859
5789.96 3.43016
5799.07 2.97333
5803.63 2.68386
5808.18 2.33617
5812.74 1.91048
5817.29 1.38333
5819.57 1.07707
5821.84 0.749589
5824.12 0.430221
5825.26 0.299034
5826.40 0.219078
5827.54 0.241776
5828.11 0.320199
5828.68 0.468892
5829.25 0.718834
5829.81 1.11478
5830.38 1.72698
5830.95 2.66574
5831.52 4.11428
5832.09 6.37407
5832.66 9.99288
5833.23 16.0004
5833.80 26.5000
5834.37 45.9948
5834.65 62.0455
5834.94 85.1002
5835.22 118.928
5835.51 168.180
5836.00 301.314
5836.50 425.415
5836.75 425.428
5837.00 382.585
5837.49 263.754
5837.84 198.925
5838.19 153.272
5838.53 121.430
5838.88 98.8413
5839.57 70.0903
5840.26 53.3384
5840.96 42.6900
5841.65 35.4849
5843.03 26.5252
5844.42 21.2903
5845.80 17.9070
5848.57 13.8408
5851.34 11.4967
5854.11 9.96856
5859.65 8.06149
5865.19 6.86490
5870.73 5.98525
5881.81 4.59205
5887.35 3.93609
5892.89 3.24520
5898.43 2.48008
5903.97 1.61197
5909.50 0.682525
5912.27 0.301554
5913.66 0.198194
5914.35 0.188085
5915.04 0.218422
5915.74 0.303134
5916.43 0.460730
5917.12 0.717548
5917.81 1.10893
5918.51 1.68727
5919.20 2.52478
5919.89 3.73077
5920.58 5.46886
5921.28 7.99627
5921.97 11.7086
5922.66 17.2803
5923.35 25.8242
5924.05 39.3650
5924.74 61.5035
5925.43 98.9241
5926.12 162.863
5927.01 300.003
5927.90 427.179
5928.79 386.250
5929.68 271.177
5930.58 185.570
5931.48 133.560
5932.37 101.545
5933.27 80.8184
5934.17 66.6912
5935.07 56.6208
5936.86 43.4778
5938.66 35.4464
5940.46 30.1129
5944.05 23.5659
5947.64 19.7513
5951.23 17.2738
5954.82 15.5410
5958.42 14.2622
5965.60 12.5001
5972.78 11.3390
5979.97 10.5114
5987.15 9.88760
6001.52 8.99879
6015.89 8.38335
6044.62 7.55165
6073.36 6.97633
6102.10 6.51926
6159.57 5.74103
6217.04 4.96141
6245.78 4.51603
6274.51 3.99395
6303.25 3.34071
6317.62 2.93354
6331.98 2.44047
6346.35 1.81494
6353.54 1.42903
6360.72 0.979545
6367.90 0.476335
6371.50 0.240987
6373.29 0.151983
6375.09 0.107974
6375.99 0.114429
6376.88 0.149784
6377.78 0.225373
6378.68 0.357501
6379.58 0.570081
6380.48 0.898987
6381.37 1.39948
6382.27 2.15934
6383.17 3.32331
6384.07 5.14070
6384.97 8.06457
6385.86 12.9736
6386.76 21.7137
6387.21 28.6787
6387.66 38.5529
6388.11 52.9240
6388.56 74.4187
6389.01 107.334
6389.46 158.082
6390.80 392.563
6391.14 393.484
6391.47 353.441
6392.14 240.362
6392.56 184.751
6392.98 144.170
6393.81 93.7675
6394.64 66.1709
6395.47 49.7470
6396.30 39.2080
6397.13 32.0438
6398.79 23.1282
6400.45 17.9254
6402.11 14.5759
6405.43 10.5633
6408.75 8.25480
6412.07 6.74369
6418.71 4.83184
6425.35 3.59868
6431.99 2.67127
6445.28 1.23921
6451.92 0.667348
6455.24 0.427306
6458.56 0.232733
6461.88 0.104140
6463.54 0.0742279
6465.20 0.0745438
6466.86 0.112448
6468.52 0.197310
6470.18 0.341256
6471.84 0.559999
6473.51 0.874303
6475.17 1.31091
6476.83 1.90653
6478.49 2.70922
6480.15 3.78663
6481.81 5.22978
6485.13 9.79047
6486.79 13.3675
6488.45 18.2989
6490.11 25.2032
6491.77 35.0180
6493.43 49.2417
6495.09 70.1968
6496.75 101.478
6498.41 148.038
6501.31 275.718
6504.20 395.453
6507.10 359.774
6509.99 254.244
6512.17 191.811
6514.35 148.279
6516.53 118.235
6518.71 97.0581
6523.07 70.2189
6527.42 54.5202
6531.78 44.4895
6536.14 37.6330
6544.86 28.9940
6553.57 23.8401
6562.29 20.4383
6579.72 16.2192
6597.15 13.6680
6614.59 11.9073
6649.45 9.45077
6684.32 7.48237
6701.75 6.46464
6719.18 5.30133
6736.61 3.84829
6745.33 2.94865
6754.05 1.90258
6762.76 0.768099
6767.12 0.290877
6769.30 0.148058
6770.39 0.122057
6771.48 0.140018
6772.57 0.216584
6773.66 0.371295
6774.75 0.631310
6775.84 1.03322
6776.93 1.62978
6778.02 2.49381
6779.11 3.73421
6780.19 5.50722
6781.28 8.05618
6782.37 11.7484
6783.46 17.1841
6784.55 25.3255
6785.64 37.8265
6786.73 57.4719
6787.82 89.0730
6788.91 139.937
6790.51 261.462
6792.10 376.088
6793.70 343.152
6795.29 242.875
6796.42 186.399
6797.54 145.959
6798.67 117.334
6799.79 96.7681
6802.04 70.0965
6804.29 54.0813
6806.55 43.5841
6808.80 36.1884
6813.30 26.2426
6817.80 19.2359
6820.05 16.0652
6822.30 12.7696
6824.55 9.02855
6825.68 6.87636
6826.80 4.52680
6827.93 2.21609
6828.49 1.40394
6828.77 1.24904
6829.06 1.40194
6829.34 2.05404
6829.62 3.51235
6829.76 4.70170
6829.90 6.31933
6830.04 8.49573
6830.18 11.3824
6830.32 15.2556
6830.46 20.4192
6830.74 36.4574
6831.03 65.1866
6831.31 116.064
6831.70 241.401
6831.90 312.787
6832.10 358.388
6832.50 332.373
6832.89 248.401
6833.16 202.514
6833.42 167.958
6833.95 123.077
6834.48 96.8077
6835.00 80.1735
6835.53 68.8973
6836.06 60.8259
6837.11 50.1284
6838.17 43.3943
6839.22 38.7683
6841.33 32.7982
6843.44 29.0682
6845.54 26.4819
6849.76 23.0526
6853.98 20.8118
6858.19 19.1842
6866.63 16.8712
6875.06 15.1598
6879.28 14.3838
6883.49 13.5824
6887.71 12.6486
6889.82 12.0631
6891.92 11.3157
6892.98 10.8406
6894.03 10.2581
6895.09 9.51477
6896.14 8.51791
6896.67 7.87611
6897.19 7.09831
6897.72 6.14219
6898.25 4.96362
6898.78 3.58112
6899.04 2.91510
6899.30 2.51678
6899.57 3.06652
6899.70 4.28378
6899.83 6.90011
6899.90 9.14626
6899.96 12.3896
6900.03 17.0995
6900.09 24.0046
6900.16 34.2484
6900.23 49.6268
6900.29 72.8760
6900.36 107.110
6900.48 210.257
6900.60 308.942
6900.72 286.496
6900.84 210.423
6900.94 161.363
6901.04 127.640
6901.14 104.378
6901.24 87.9429
6901.43 66.9749
6901.63 54.5672
6901.83 46.5108
6902.02 40.9762
6902.41 33.9090
6902.81 29.6257
6903.20 26.7836
6903.59 24.7619
6903.98 23.2520
6904.77 21.1453
6905.55 19.7460
6906.34 18.7430
6907.12 17.9870
6908.69 16.9112
6910.26 16.1732
6913.40 15.1985
6916.54 14.5576
6919.68 14.0858
6925.95 13.4030
6932.23 12.9040
6938.51 12.5057
6951.06 11.8807
6976.17 10.9831
7001.27 10.3199
7051.49 9.31268
7101.70 8.48019
7151.91 7.65272
7177.02 7.18810
7202.13 6.64413
7227.24 5.95145
7239.79 5.50610
7252.34 4.94629
7264.90 4.19149
7271.17 3.69078
7277.45 3.05503
7283.73 2.21064
7286.87 1.67891
7290.00 1.06859
7293.14 0.451952
7294.71 0.253923
7295.50 0.245335
7296.28 0.356469
7297.07 0.674828
7297.46 0.956713
7297.85 1.35879
7298.24 1.92613
7298.63 2.71793
7299.03 3.82578
7299.42 5.38430
7299.81 7.60586
7300.20 10.8031
7300.60 15.5048
7300.99 22.5891
7301.38 33.6136
7301.77 51.2434
7302.16 80.3577
7302.56 128.952
7303.08 236.291
7303.60 339.427
7303.86 342.033
7304.12 309.897
7304.64 217.021
7305.21 143.885
7305.77 101.020
7306.33 75.4578
7306.89 59.2858
7307.45 48.4433
7308.02 40.8059
7309.14 30.9581
7310.26 24.9904
7311.39 21.0433
7313.63 16.1942
7315.88 13.3355
7318.13 11.4392
7322.62 9.01783
7327.12 7.44834
7331.61 6.25759
7340.60 4.30963
7349.59 2.45408
7354.09 1.50045
7358.58 0.613121
7360.83 0.285774
7361.95 0.190074
7363.08 0.168438
7364.20 0.254997
7365.32 0.500582
7365.89 0.705617
7366.45 0.981974
7367.57 1.81683
7368.70 3.19430
7369.82 5.41989
7370.94 9.00918
7372.07 14.8564
7373.19 24.6055
7374.31 41.3017
7375.44 70.7830
7376.56 123.134
7377.98 236.935
7379.40 345.038
7380.82 317.580
7382.24 229.080
7383.44 170.623
7384.64 131.121
7385.83 104.592
7387.03 86.2647
7389.43 63.4099
7391.82 50.1982
7394.22 41.7899
7396.61 36.0440
7401.40 28.7870
7406.19 24.4387
7410.98 21.5584
7420.56 17.9855
7430.14 15.8486
7439.72 14.4152
7458.88 12.5793
7478.04 11.4115
7497.20 10.5627
7535.52 9.28848
7573.84 8.16621
7593.01 7.54626
7612.17 6.80093
7631.33 5.79890
7640.91 5.12038
7650.49 4.23768
7655.28 3.68511
7660.07 3.03271
7664.86 2.26026
7669.65 1.36751
7674.44 0.472271
7675.63 0.303488
7676.83 0.197220
7678.03 0.196239
7679.23 0.371470
7679.83 0.560123
7680.42 0.843927
7681.02 1.25259
7681.62 1.82516
7682.22 2.61842
7682.82 3.70777
7683.42 5.20046
7684.02 7.24589
7684.62 10.0738
7685.21 14.0117
7685.81 19.5587
7686.41 27.4650
7687.01 38.9457
7687.61 55.8405
7688.21 80.9477
7688.81 118.009
7689.90 225.805
7691.00 329.280
7692.10 303.455
7693.19 218.163
7694.34 151.510
7695.48 110.816
7696.62 85.6362
7697.76 69.2620
7698.91 58.0242
7700.05 49.9709
7702.33 39.3656
7704.62 32.8046
7706.90 28.4009
7711.47 22.9145
7716.04 19.6553
7720.61 17.4975
7725.18 15.9575
7729.75 14.7955
7738.89 13.1314
7748.02 11.9571
7766.30 10.2518
7784.58 8.78319
7793.72 7.97043
7802.85 6.98664
7807.42 6.38250
7811.99 5.66199
7816.56 4.77582
7821.13 3.65459
7825.70 2.22511
7827.98 1.40851
7830.27 0.636947
7831.41 0.368953
7831.98 0.305929
7832.55 0.320160
7833.12 0.446922
7833.70 0.738043
7834.27 1.27099
7834.84 2.16386
7835.41 3.60404
7835.98 5.88199
7836.55 9.48618
7837.12 15.2439
7837.69 24.6060
7838.26 40.1793
7838.84 66.6351
7839.41 111.634
7840.20 218.199
7841.00 320.422
7841.80 296.512
7842.59 215.692
7843.49 147.979
7844.39 107.865
7845.29 83.6023
7846.19 68.0170
7847.09 57.4114
7847.99 49.8368
7849.79 39.8905
7851.59 33.7445
7853.39 29.6143
7856.99 24.4621
7860.59 21.3966
7864.19 19.3700
7867.79 17.9305
7871.39 16.8541
7878.59 15.3452
7885.79 14.3309
7892.99 13.5954
7900.19 13.0329
7914.59 12.2172
7928.99 11.6416
7957.79 10.8518
7986.58 10.3040
8015.38 9.87597
8072.98 9.18139
8130.57 8.53086
8159.37 8.16563
8188.17 7.72542
8216.96 7.12948
8231.36 6.71837
8245.76 6.16582
8252.96 5.80443
8260.16 5.35564
8267.36 4.77891
8274.56 4.00701
8278.16 3.51456
8281.76 2.92598
8285.36 2.22027
8288.96 1.39262
8292.56 0.539931
8293.46 0.371198
8294.36 0.256000
8295.26 0.232674
8296.16 0.364609
8297.06 0.760599
8297.51 1.11258
8297.96 1.61242
8298.41 2.30986
8298.86 3.27393
8299.31 4.60197
8299.76 6.43334
8300.21 8.97112
8300.66 12.5167
8301.11 17.5255
8301.56 24.6983
8302.01 35.1263
8302.46 50.5113
8302.91 73.4359
8303.36 107.352
8304.18 206.255
8305.00 302.408
8305.82 280.102
8306.64 202.019
8307.26 155.179
8307.87 122.009
8308.49 98.8265
8309.10 82.3364
8310.33 61.1570
8311.55 48.6003
8312.78 40.4961
8314.01 34.9145
8316.46 27.8302
8318.92 23.5806
8321.37 20.7731
8323.82 18.7886
8326.28 17.3141
8331.19 15.2696
8336.09 13.9156
8341.00 12.9461
8345.91 12.2112
8355.73 11.1498
8365.54 10.3903
8385.18 9.25981
8404.81 8.24741
8414.63 7.66970
8424.44 6.95435
8429.35 6.50605
8434.26 5.96152
8439.17 5.27459
8444.07 4.37033
8446.53 3.80107
8448.98 3.12839
8451.44 2.33469
8453.89 1.42874
8456.34 0.557270
8457.57 0.331779
8458.19 0.373584
8458.80 0.608452
8459.41 1.16202
8459.72 1.62016
8460.03 2.24667
8460.33 3.09925
8460.64 4.24937
8460.95 5.79811
8461.25 7.87896
8461.56 10.7054
8461.87 14.5596
8462.17 19.8615
8462.48 27.2009
8462.79 37.5379
8463.09 52.1939
8463.40 73.0685
8463.71 102.475
8464.35 199.763
8465.00 294.416
8465.65 273.587
8466.29 198.935
8466.74 157.155
8467.18 126.543
8467.62 104.409
8468.06 88.2004
8468.95 66.7844
8469.83 53.7182
8470.72 45.1235
8471.60 39.1256
8473.37 31.4167
8475.14 26.7401
8476.90 23.6300
8480.44 19.7800
8483.98 17.5014
8487.51 15.9969
8491.05 14.9276
8494.58 14.1262
8501.66 12.9980
8508.73 12.2327
8515.80 11.6708
8522.87 11.2338
8537.02 10.5791
8551.16 10.0873
8579.45 9.30857
8607.74 8.56423
8621.88 8.12471
8636.03 7.56930
8643.10 7.21540
8650.17 6.77911
8657.25 6.21760
8664.32 5.45555
8667.85 4.95901
8671.39 4.35082
8674.93 3.59183
8678.46 2.63385
8682.00 1.45619
8683.77 0.838974
8684.65 0.566927
8685.53 0.366098
8686.42 0.308897
8687.30 0.531845
8687.74 0.823822
8688.19 1.30332
8688.63 2.04981
8689.07 3.18133
8689.51 4.87672
8689.95 7.41325
8690.40 11.2312
8690.84 17.0475
8691.28 26.0556
8691.72 40.2687
8692.16 63.0331
8692.61 99.4094
8693.30 194.407
8694.00 287.197
8694.70 267.387
8695.39 194.786
8695.99 145.754
8696.58 112.590
8697.18 90.3177
8697.77 74.9186
8698.96 55.7158
8700.15 44.6041
8701.34 37.5258
8702.53 32.6859
8704.91 26.5746
8707.29 22.9156
8709.67 20.4989
8712.05 18.7901
8714.43 17.5206
8719.19 15.7612
8723.95 14.6000
8728.71 13.7743
8733.47 13.1555
8742.99 12.2845
8752.51 11.6945
8762.03 11.2627
8771.55 10.9286
8790.58 10.4343
8809.62 10.0729
8847.70 9.53976
8885.77 9.11326
8923.85 8.70296
8961.93 8.23311
8980.96 7.94068
9000.00 7.57431
9011.76 7.28873
9023.53 6.93254
9035.29 6.46810
9047.05 5.82711
9052.94 5.40238
9058.82 4.87316
9064.70 4.19628
9070.58 3.30704
9073.52 2.75614
9076.46 2.12179
9079.40 1.40953
9082.34 0.681366
9083.81 0.378833
9085.28 0.217570
9086.02 0.240845
9086.76 0.381357
9087.49 0.698630
9088.23 1.28498
9088.96 2.28874
9089.70 3.94690
9090.43 6.66422
9091.17 11.1458
9091.90 18.6692
9092.64 31.6259
9093.37 54.5306
9094.11 95.2770
9095.05 186.634
9096.00 276.517
9096.95 258.122
9097.89 188.209
9098.71 140.337
9099.53 108.146
9100.35 86.6140
9101.17 71.7741
9102.80 53.3176
9104.44 42.6758
9106.08 35.9046
9107.71 31.2829
9110.99 25.4509
9114.26 21.9631
9117.53 19.6612
9120.80 18.0347
9124.08 16.8271
9130.62 15.1553
9137.17 14.0535
9143.71 13.2714
9150.26 12.6863
9163.35 11.8649
9176.44 11.3102
9189.53 10.9054
9202.62 10.5927
9228.80 10.1296
9254.99 9.78808
9307.35 9.26509
9359.71 8.79361
9385.90 8.52903
9412.08 8.20621
9438.26 7.76009
9451.35 7.44606
9464.44 7.01611
9470.99 6.73010
9477.53 6.36945
9484.08 5.89648
9490.62 5.24428
9493.90 4.81443
9497.17 4.28297
9500.44 3.61188
9503.72 2.74973
9505.35 2.22996
9506.99 1.65093
9508.63 1.03713
9510.26 0.491959
9511.08 0.337833
9511.90 0.387845
9512.31 0.549554
9512.72 0.857113
9513.13 1.37638
9513.53 2.20671
9513.94 3.50127
9514.35 5.50211
9514.76 8.60228
9515.17 13.4587
9515.58 21.2002
9515.99 33.8065
9516.40 54.7284
9516.81 89.4820
9517.40 175.250
9518.00 260.382
9518.60 243.809
9519.19 177.915
9519.75 129.965
9520.30 98.6973
9520.86 78.2860
9521.41 64.5138
9522.52 47.6891
9523.62 38.1445
9524.73 32.1248
9525.84 28.0365
9528.05 22.9024
9530.26 19.8395
9532.48 17.8192
9534.69 16.3891
9536.90 15.3250
9541.33 13.8445
9545.76 12.8589
9550.18 12.1497
9554.61 11.6093
9563.46 10.8230
9572.32 10.2530
9581.17 9.79220
9590.03 9.38255
9607.73 8.56179
9616.59 8.07100
9625.44 7.44233
9629.87 7.03846
9634.30 6.53913
9638.72 5.89730
9643.15 5.03376
9645.36 4.47890
9647.58 3.81095
9649.79 3.00007
9652.00 2.02759
9654.22 0.960796
9655.32 0.523446
9655.88 0.403657
9656.43 0.418971
9656.98 0.668468
9657.54 1.32409
9657.81 1.89514
9658.09 2.70047
9658.37 3.83071
9658.64 5.39683
9658.92 7.58165
9659.20 10.6303
9659.47 14.9114
9659.75 20.9490
9660.03 29.6093
9660.30 42.0501
9660.58 60.1291
9660.86 86.0087
9661.43 171.321
9662.00 255.991
9662.50 247.279
9663.00 192.707
9663.00 13.7851
10000.0 13.6608
12000.0 13.0344
14000.0 12.5465
16000.0 12.1523
18000.0 11.8248
20000.0 11.5468
22000.0 11.3067
24000.0 11.0964
26000.0 10.9100
28000.0 10.7431
30000.0 10.5924
32000.0 10.4554
34000.0 10.3299
36000.0 10.2143
38000.0 10.1073
40000.0 10.0079
42000.0 9.91496
44000.0 9.82790
46000.0 9.74601
48000.0 9.66876
50000.0 9.59568
52000.0 9.52636
54000.0 9.46044
56000.0 9.39762
58000.0 9.33763
60000.0 9.28024
62000.0 9.22522
64000.0 9.17240
66000.0 9.12161
68000.0 9.07270
70000.0 9.02553
75000.0 8.91448
75000.0 8.91570
75734.7 8.90033
75734.7 8.90033
80000.0 8.83749
90000.0 8.63517
100000 8.48647
120000 8.24856
150000 7.99127
200000 7.71820
250000 7.55626
250087 7.55609
250088 7.55609
270000 7.51794
300000 7.46045
320000 7.43731
350000 7.40259
370000 7.38950
400000 7.36986
420000 7.36495
450000 7.35758
470000 7.35268
500000 7.34531
517997 7.34466
517997 7.34466
520000 7.34458
550000 7.34349
570000 7.34277
600000 7.34168
620000 7.34095
643500 7.34010
643500 7.34010
650000 7.33986
670000 7.33913
700000 7.33804
800000 7.33441
873374 7.33552
900000 7.33592
918758 7.32990
918758 7.32990
950000 7.31989
951966 7.31926
951967 7.31925
980000 7.31026
994634 7.30557
1.00000E+06 7.30385
1.01134E+06 7.30115
1.02000E+06 7.29909
1.02241E+06 7.29851
1.02241E+06 7.29852
1.04000E+06 7.29432
1.06000E+06 7.28956
1.06421E+06 7.28855
1.06421E+06 7.28855
1.07717E+06 7.28546
1.07717E+06 7.28546
1.08000E+06 7.28479
1.10000E+06 7.28003
1.12000E+06 7.27526
1.14000E+06 7.27050
1.15502E+06 7.26692
1.16000E+06 7.26573
1.18000E+06 7.26096
1.20000E+06 7.25620
1.20021E+06 7.25606
1.20021E+06 7.25605
1.22000E+06 7.24245
1.23200E+06 7.23421
1.23200E+06 7.23419
1.24000E+06 7.22871
1.26000E+06 7.21496
1.26902E+06 7.20876
1.26903E+06 7.20875
1.28000E+06 7.20121
1.29824E+06 7.18867
1.29824E+06 7.18868
1.30000E+06 7.18746
1.30374E+06 7.18489
1.30374E+06 7.18489
1.30890E+06 7.18135
1.30891E+06 7.18134
1.32000E+06 7.17372
1.33409E+06 7.16403
1.33409E+06 7.16403
1.33951E+06 7.16031
1.33951E+06 7.16031
1.34000E+06 7.15997
1.35961E+06 7.14649
1.35961E+06 7.14648
1.36000E+06 7.14622
1.38000E+06 7.13247
1.38575E+06 7.12852
1.38575E+06 7.12853
1.38826E+06 7.12680
1.38826E+06 7.12680
1.39740E+06 7.12052
1.39740E+06 7.12052
1.40000E+06 7.11873
1.40158E+06 7.11764
1.40159E+06 7.11764
1.42000E+06 7.10498
1.43687E+06 7.09339
1.43687E+06 7.09338
1.44000E+06 7.09123
1.44505E+06 7.08776
1.44505E+06 7.08776
1.46000E+06 7.07749
1.46951E+06 7.07095
1.46951E+06 7.07095
1.48000E+06 7.06374
1.50000E+06 7.04999
1.52000E+06 7.03410
1.54000E+06 7.01821
1.56000E+06 7.00232
1.58000E+06 6.98643
1.60000E+06 6.97054
1.70000E+06 6.89109
1.80000E+06 6.82120
1.90000E+06 6.75130
2.00000E+06 6.68141
2.20000E+06 6.54162
2.40000E+06 6.44200
2.50000E+06 6.39219
2.60000E+06 6.34614
2.80000E+06 6.25404
3.00000E+06 6.16194
3.20000E+06 6.07895
3.34698E+06 5.98798
3.70000E+06 5.76947
4.00000E+06 5.61358
4.50000E+06 5.35376
5.00000E+06 5.16153
5.50000E+06 5.02200
6.00000E+06 4.93635
6.50000E+06 4.84042
7.00000E+06 4.79269
7.49799E+06 4.78663
7.49800E+06 4.78662
7.50000E+06 4.78660
7.80000E+06 4.84584
8.00000E+06 4.80200
8.29901E+06 4.81789
8.50000E+06 4.82857
9.00000E+06 4.87601
9.24192E+06 4.89896
9.50000E+06 4.92344
1.00000E+07 4.97088
1.05000E+07 5.01831
1.10000E+07 5.06575
1.15000E+07 5.10448
1.20000E+07 5.14321
1.25000E+07 5.16889
1.30000E+07 5.19456
1.34785E+07 5.21105
1.34785E+07 5.21105
1.35000E+07 5.21179
1.39000E+07 5.22557
1.40000E+07 5.22666
1.45000E+07 5.23210
1.50000E+07 5.23754
1.54000E+07 5.24189
1.60000E+07 5.23988
1.61985E+07 5.23921
1.65000E+07 5.23820
1.70000E+07 5.23652
1.80000E+07 5.21049
1.82000E+07 5.20528
1.89000E+07 5.17399
1.90000E+07 5.16952
1.91000E+07 5.16505
1.92000E+07 5.16058
2.00000E+07 5.12482