Gd-157(n,tot) ENDF/B-VII.1
Energy(eV) XS(b)
1.00000E-05 9.68576E+06
1.26000E-05 8.62908E+06
1.58000E-05 7.70622E+06
2.00000E-05 6.84986E+06
2.51000E-05 6.11494E+06
3.16000E-05 5.45040E+06
3.98000E-05 4.85718E+06
5.00000E-05 4.33419E+06
5.01000E-05 4.32987E+06
5.05063E-05 4.31245E+06
5.09125E-05 4.29523E+06
5.17250E-05 4.26142E+06
5.33500E-05 4.19612E+06
5.66000E-05 4.07407E+06
6.31000E-05 3.85892E+06
7.94000E-05 3.44096E+06
0.000100000 3.06711E+06
0.000126000 2.73350E+06
0.000158000 2.44227E+06
0.000200000 2.17217E+06
0.000251000 1.94053E+06
0.000316000 1.73125E+06
0.000398000 1.54463E+06
0.000500000 1.38033E+06
0.000501000 1.37897E+06
0.000505063 1.37350E+06
0.000509125 1.36810E+06
0.000517250 1.35749E+06
0.000533500 1.33700E+06
0.000566000 1.29871E+06
0.000631000 1.23127E+06
0.000794000 1.10047E+06
0.00100000 983782
0.00126000 880018
0.00158000 789820
0.00200000 706621
0.00251000 635759
0.00316000 572280
0.00398000 516282
0.00500000 467629
0.00501000 467230
0.00505063 465624
0.00509125 464038
0.00517250 460925
0.00533500 454925
0.00566000 443752
0.00631000 424198
0.00794000 386806
0.0100000 354125
0.0125900 325669
0.0158500 300551
0.0199500 277613
0.0200000 277370
0.0201600 276595
0.0203200 275827
0.0206400 274309
0.0212800 271345
0.0225600 265661
0.0251200 255035
0.0253000 254316
0.0256813 252803
0.0260625 251302
0.0268250 248334
0.0283500 242504
0.0314000 231121
0.0316200 230308
0.0321319 228421
0.0326438 226537
0.0336675 222777
0.0357150 215273
0.0398100 200283
0.0500000 163511
0.0501200 163090
0.0505256 161669
0.0509313 160254
0.0517425 157440
0.0533650 151881
0.0566100 141081
0.0631000 121006
0.0712650 99075.6
0.0794300 80948.2
0.0852370 70197.2
0.0926185 58769.8
0.100000 49461.2
0.106473 42733.7
0.112945 37105.8
0.119418 32383.1
0.125890 28404.5
0.134040 24251.2
0.142190 20860.3
0.150340 18070.4
0.158490 15757.4
0.168750 13377.9
0.179010 11459.9
0.189270 9897.38
0.199530 8611.99
0.200000 8558.72
0.201600 8380.76
0.203199 8207.85
0.206399 7876.42
0.212798 7266.70
0.225595 6228.58
0.238393 5384.57
0.251190 4690.98
0.267450 3976.65
0.283710 3405.04
0.299970 2941.76
0.316230 2561.97
0.336700 2174.81
0.357170 1864.92
0.377640 1613.64
0.398110 1407.50
0.423583 1199.33
0.449055 1032.11
0.500000 784.126
0.501190 779.392
0.505245 763.561
0.509301 748.184
0.517411 718.724
0.533633 664.562
0.566075 572.414
0.630960 435.884
0.712645 322.174
0.794330 246.958
0.897165 184.158
1.00000 142.531
1.12947 107.741
1.25893 84.7097
1.42191 65.5877
1.58489 53.1828
1.79008 43.5244
1.99526 38.6738
2.00000 38.6154
2.01600 38.4373
2.03199 38.2895
2.06399 38.0887
2.12797 38.1071
2.25595 40.3853
2.38392 48.0755
2.44790 56.1798
2.51189 70.3001
2.57799 98.1321
2.61104 122.320
2.64410 159.940
2.67715 222.389
2.71020 335.199
2.74325 561.279
2.75978 759.680
2.77630 1053.18
2.78848 1342.32
2.80065 1672.57
2.82500 2083.73
2.84935 1667.52
2.87370 1046.56
2.89174 731.403
2.90977 526.306
2.92781 392.447
2.94585 302.603
2.98192 195.608
3.01799 137.806
3.05406 103.426
3.09014 81.4195
3.16228 55.9354
3.26463 38.3675
3.36698 29.4380
3.46933 24.2080
3.57168 20.8293
3.77637 16.7662
3.98107 14.4144
4.49054 11.3392
5.00000 9.77439
5.01187 9.74674
5.05242 9.65450
5.09298 9.56556
5.17408 9.39683
5.33630 9.09178
5.66072 8.58490
6.30957 7.84940
7.94328 6.81553
10.0000 6.22637
11.2946 6.11184
12.5893 6.31708
13.4042 6.84024
14.2191 8.23672
14.6266 9.76289
15.0340 12.6732
15.2377 15.1856
15.4415 19.0810
15.6452 25.5851
15.8489 37.8693
15.9353 46.9799
16.0216 61.6704
16.1080 92.2620
16.1511 128.259
16.1727 161.786
16.1943 216.697
16.2172 303.951
16.2400 366.336
16.2857 253.925
16.3131 210.009
16.3404 197.973
16.3951 220.066
16.4498 283.207
16.5046 399.400
16.5593 618.543
16.5866 804.428
16.6140 1086.84
16.6413 1541.49
16.6687 2326.72
16.6961 3798.09
16.7097 5007.59
16.7234 6703.02
16.7467 10756.2
16.7700 13492.7
16.7934 10835.4
16.8167 6797.69
16.8412 4107.58
16.8657 2639.14
16.8902 1809.02
16.9147 1308.34
16.9392 987.393
16.9637 770.842
17.0127 507.323
17.0617 359.871
17.1107 269.343
17.2087 168.694
17.3067 116.930
17.4047 86.8217
17.5027 67.7634
17.6007 54.9383
17.7967 39.2973
17.9927 30.5435
18.3847 21.9615
18.7767 18.9664
19.1686 19.8155
19.3646 22.2344
19.5606 27.1754
19.7566 37.2473
19.8546 46.1490
19.9526 60.0510
20.0000 69.6745
20.0638 87.4043
20.1276 113.758
20.1914 155.131
20.2233 185.164
20.2552 225.008
20.2871 279.342
20.3189 355.859
20.3508 468.125
20.3827 641.241
20.4146 925.939
20.4465 1433.11
20.4625 1842.17
20.4784 2427.60
20.4944 3281.71
20.5103 4522.14
20.5352 7286.51
20.5600 9175.16
20.5849 7395.18
20.6097 4658.84
20.6251 3450.91
20.6404 2602.16
20.6712 1587.00
20.7019 1053.70
20.7326 747.539
20.7633 557.767
20.7940 432.803
20.8555 284.203
20.9169 202.811
20.9784 153.558
21.1013 99.7357
21.2241 73.3196
21.3470 60.8681
21.4085 59.5520
21.4699 64.1326
21.5006 70.9086
21.5314 83.9049
21.5621 109.035
21.5928 157.931
21.6214 232.332
21.6500 283.705
21.6786 235.035
21.7072 159.535
21.7316 115.826
21.7560 88.7043
21.7804 71.5907
21.8048 60.3068
21.8536 46.8547
21.9024 39.3337
22.0001 31.2853
22.0977 26.9721
22.2929 22.2905
22.4882 19.8671
22.6834 18.8527
22.8786 19.8541
22.9763 22.2347
23.0251 24.5897
23.0739 28.5112
23.1227 35.4504
23.1715 48.9190
23.1959 60.6495
23.2203 78.6593
23.2447 107.265
23.2691 153.028
23.2996 238.189
23.3300 296.161
23.3605 240.944
23.3909 156.310
23.4179 106.383
23.4449 76.3708
23.4719 58.0465
23.4989 46.3454
23.5529 33.0508
23.6069 26.1463
23.6609 22.1152
23.7149 19.5514
23.8229 16.5754
24.0389 14.0068
24.2549 13.0836
24.4709 13.0579
24.6869 14.2071
24.7949 15.6695
24.9029 18.4489
25.0109 24.1807
25.0649 29.4616
25.1189 38.1367
25.1783 55.8832
25.2080 71.3095
25.2377 95.3801
25.2675 135.586
25.2972 208.827
25.3120 269.158
25.3269 357.276
25.3418 488.856
25.3566 685.017
25.3675 877.954
25.3783 1099.78
25.4000 1384.26
25.4109 1309.17
25.4217 1119.20
25.4434 709.274
25.4675 422.460
25.4917 270.605
25.5158 186.694
25.5400 136.838
25.5641 105.192
25.5882 83.9730
25.6365 58.2822
25.6848 43.9380
25.7331 35.1218
25.8296 25.2653
25.9262 20.1298
26.0227 17.0889
26.2158 13.7602
26.4089 12.0233
26.6020 10.9689
26.9883 9.74716
27.3745 9.04319
27.7607 8.56942
28.5331 7.94158
30.0779 7.20078
31.6228 6.72633
33.6698 6.26638
35.7168 5.90415
36.7403 5.75372
37.7637 5.64729
38.2755 5.64140
38.7872 5.74159
39.0431 5.90272
39.2990 6.27570
39.4269 6.64584
39.5549 7.29162
39.6828 8.54079
39.7468 9.64201
39.8107 11.3857
39.8866 15.1492
39.9246 18.4126
39.9625 23.4972
40.0005 31.9762
40.0384 47.3939
40.0574 60.0779
40.0764 78.5688
40.0953 106.135
40.1143 147.197
40.1422 234.447
40.1700 294.364
40.1979 238.529
40.2257 152.295
40.2565 92.2953
40.2873 60.4434
40.3181 42.8063
40.3489 32.3160
40.3797 25.6494
40.4105 21.1791
40.4721 15.7653
40.5337 12.7468
40.5953 10.8959
40.7184 8.83876
40.8416 7.78270
40.9648 7.17304
41.2112 6.55009
41.7039 6.21454
42.1966 6.46968
42.6893 7.52691
42.9357 8.73844
43.1821 11.0621
43.3052 13.0604
43.4284 16.1287
43.5516 21.1400
43.6748 30.0579
43.7980 48.0668
43.8596 64.7544
43.9211 92.6288
43.9519 114.081
43.9827 144.020
44.0135 187.449
44.0443 253.424
44.0751 359.727
44.1059 543.608
44.1213 687.734
44.1367 888.859
44.1521 1173.20
44.1675 1572.52
44.1938 2531.65
44.2200 3186.97
44.2463 2568.76
44.2725 1618.32
44.2900 1172.48
44.3074 867.867
44.3424 515.797
44.3773 337.320
44.4122 237.237
44.4471 176.167
44.4821 136.393
44.5519 89.5915
44.6218 64.2014
44.6916 48.9097
44.8313 32.1689
44.9710 23.6617
45.1107 18.7425
45.3901 13.5643
45.6695 11.0717
45.9489 9.76082
46.5078 8.94021
46.7872 9.24504
47.0666 10.1834
47.3460 12.1911
47.6254 16.3774
47.7651 20.1135
47.9048 25.9672
48.0445 35.6967
48.1143 43.0973
48.1842 53.2933
48.2541 67.8212
48.3239 89.4056
48.3938 123.268
48.4636 180.384
48.4985 224.692
48.5335 286.936
48.5684 377.922
48.6033 517.457
48.6382 745.017
48.6732 1145.20
48.6906 1463.83
48.7081 1914.31
48.7255 2561.37
48.7430 3486.56
48.7715 5634.12
48.8000 7116.04
48.8285 5754.04
48.8570 3635.70
48.8749 2687.18
48.8927 2022.49
48.9284 1231.01
48.9642 817.010
48.9999 579.881
49.0356 433.086
49.0713 336.399
49.1428 221.344
49.2142 158.162
49.2856 119.750
49.4285 77.2625
49.5714 55.3886
49.7143 42.5773
49.8571 34.3814
50.0000 28.7922
50.1187 25.3830
50.3749 20.3218
50.6310 17.0918
51.1433 13.2867
51.6556 11.1584
52.1679 9.81270
53.1925 8.22294
54.2171 7.37483
55.2417 7.10806
55.7540 7.35562
56.2663 8.22518
56.5225 9.15048
56.7786 10.7359
57.0348 13.5785
57.2909 19.0946
57.4190 23.8843
57.5471 31.2844
57.6751 43.4262
57.7392 52.5704
57.8032 65.0650
57.8673 82.6973
57.9313 108.584
57.9953 148.557
58.0594 214.488
58.0914 264.542
58.1234 333.482
58.1554 431.658
58.1874 577.137
58.2195 803.482
58.2515 1175.91
58.2835 1825.42
58.3155 2991.27
58.3478 4845.23
58.3800 6133.49
58.4123 4971.05
58.4445 3148.96
58.4808 1857.27
58.5172 1176.85
58.5535 802.158
58.5899 579.943
58.6262 438.999
58.6625 344.513
58.7352 230.066
58.8079 166.112
58.8806 126.773
59.0259 82.7527
59.1713 59.8379
59.3166 46.3140
59.4620 37.6144
59.6073 31.6557
59.8980 24.1807
60.1887 19.7882
60.4794 16.9503
60.7701 14.9879
61.3515 12.4777
61.9329 10.9529
62.5143 9.93242
63.0957 9.20682
63.9741 8.47902
64.4133 8.27531
64.8525 8.24861
65.2917 8.63461
65.5113 9.21681
65.7308 10.4580
65.8406 11.5852
65.9504 13.3724
66.0602 16.3778
66.1700 21.8769
66.2798 33.3139
66.3347 44.1636
66.3896 62.6621
66.4445 97.7130
66.4720 128.098
66.4994 175.422
66.5269 254.202
66.5543 397.041
66.5680 514.182
66.5818 684.350
66.5955 936.948
66.6092 1311.38
66.6296 2115.83
66.6500 2671.78
66.6704 2163.38
66.6908 1370.00
66.7033 1022.11
66.7157 775.978
66.7406 479.003
66.7655 321.607
66.7904 230.695
66.8152 174.052
66.8401 136.585
66.8899 91.8154
66.9397 67.1271
66.9895 52.0786
67.0890 35.3844
67.1885 26.7633
67.2881 21.7006
67.3876 18.4537
67.4872 16.2335
67.6863 13.4482
67.8854 11.8066
68.2836 9.99392
68.6818 9.02340
69.0799 8.41413
69.8763 7.66953
70.6727 7.20560
71.4691 6.86829
73.0618 6.36969
74.6546 5.98242
76.2473 5.65763
77.0437 5.52435
77.8401 5.43518
78.6365 5.46012
79.0346 5.57794
79.4328 5.85905
79.9286 6.75996
80.1765 7.76430
80.4244 9.68609
80.6723 13.8609
80.7963 17.9622
80.9202 25.1918
81.0442 39.5567
81.1061 52.6321
81.1681 74.0434
81.2301 112.366
81.2611 143.763
81.2921 190.007
81.3231 261.428
81.3540 377.786
81.3850 578.249
81.4160 932.569
81.4480 1505.90
81.4800 1903.70
81.5120 1543.11
81.5440 978.877
81.5662 703.749
81.5884 518.396
81.6106 393.785
81.6328 308.166
81.6772 203.781
81.7216 146.313
81.7660 112.081
81.8104 90.6352
81.8992 68.5533
81.9880 63.8286
82.0324 68.0044
82.0768 79.0715
82.1212 102.839
82.1656 155.063
82.1878 204.530
82.2100 286.195
82.2322 428.176
82.2544 681.070
82.2772 1089.55
82.3000 1373.10
82.3228 1115.12
82.3456 711.755
82.3653 477.103
82.3850 333.709
82.4047 244.946
82.4244 187.649
82.4639 121.797
82.5033 87.1874
82.5427 66.7971
82.5821 53.7390
82.6609 38.4482
82.7398 30.0328
82.8186 24.8150
82.9763 18.7885
83.1339 15.4541
83.2916 13.3528
83.6069 10.8678
83.9223 9.46095
84.2376 8.57141
84.8683 7.58831
85.4989 7.32196
85.8143 7.53947
86.1296 8.24616
86.4449 10.1288
86.6026 12.1352
86.7602 15.8336
86.9179 23.4984
86.9967 30.6986
87.0756 42.8151
87.1544 65.2745
87.1938 84.2882
87.2332 113.172
87.2727 159.622
87.2924 193.877
87.3121 239.615
87.3318 301.972
87.3515 388.525
87.3712 510.092
87.3909 679.684
87.4255 1099.08
87.4600 1391.31
87.4773 1318.57
87.4946 1129.08
87.5291 717.025
87.5642 445.734
87.5994 293.791
87.6345 206.145
87.6697 152.456
87.7048 117.615
87.7399 93.8637
87.8102 64.6058
87.8805 47.9904
87.9508 37.6558
88.0913 25.9696
88.2319 19.8199
88.3725 16.1591
88.6536 12.1460
88.9347 10.0629
89.2158 8.81276
89.7781 7.39545
90.3403 6.60580
90.9025 6.09073
92.0270 5.44179
93.1515 5.09151
93.7137 5.04728
94.2760 5.18219
94.8382 5.75308
95.1193 6.44182
95.4004 7.79076
95.6816 10.7566
95.8221 13.6881
95.9627 18.8826
96.1032 29.2856
96.1735 38.8377
96.2438 54.6386
96.3141 83.3565
96.3492 107.272
96.3844 143.099
96.4195 199.693
96.4546 294.963
96.4898 466.794
96.5249 789.255
96.5575 1268.70
96.5900 1596.85
96.6226 1288.37
96.6551 812.358
96.6812 552.210
96.7074 388.227
96.7335 284.115
96.7596 215.713
96.8119 135.953
96.8642 93.7179
96.9164 68.9024
96.9687 53.1577
97.0732 35.0952
97.1778 25.5340
97.2823 19.8732
97.4913 13.8058
97.7004 10.8441
97.9094 9.26738
98.3276 8.18184
98.7457 9.19564
98.9547 10.8886
99.1638 14.1956
99.2683 16.9390
99.3728 20.9400
99.4774 26.9895
99.5819 36.6025
99.6864 52.9733
99.7387 65.7406
99.7910 83.7375
99.8432 110.133
99.8955 150.795
99.9477 217.575
100.000 336.825
100.033 463.193
100.065 666.480
100.098 1010.12
100.130 1603.09
100.165 2590.75
100.200 3277.88
100.235 2665.52
100.270 1694.60
100.309 1010.04
100.348 644.519
100.386 441.358
100.425 320.121
100.464 242.890
100.503 190.951
100.580 127.825
100.658 92.4328
100.736 70.6009
100.891 46.0933
101.046 33.2767
101.201 25.6742
101.512 17.3666
101.822 13.0690
102.132 10.5102
102.753 7.73995
103.374 6.72137
103.684 6.97019
103.995 8.29764
104.150 9.78274
104.305 12.3512
104.383 14.3036
104.460 16.9479
104.538 20.5981
104.615 25.7605
104.693 33.2928
104.771 44.7329
104.848 63.0477
104.926 94.5259
104.965 119.251
105.003 154.290
105.042 205.908
105.081 285.709
105.120 416.777
105.159 648.936
105.178 834.533
105.197 1097.90
105.217 1477.46
105.236 2019.03
105.268 3310.49
105.300 4231.97
105.332 3448.81
105.364 2196.86
105.400 1310.82
105.436 840.129
105.471 578.874
105.507 422.837
105.543 323.234
105.579 256.068
105.650 174.079
105.722 127.812
105.794 99.0884
105.937 66.5846
106.080 49.4381
106.223 39.2349
106.510 28.2529
106.796 23.2351
106.939 22.1808
107.082 22.2667
107.226 24.3818
107.297 27.0245
107.369 31.9683
107.440 41.9101
107.476 50.8346
107.512 65.1100
107.548 89.6903
107.584 136.477
107.601 176.753
107.619 238.127
107.637 334.771
107.655 486.756
107.678 769.724
107.700 959.542
107.723 775.026
107.745 492.768
107.766 318.536
107.787 217.152
107.808 156.647
107.829 118.709
107.871 76.3966
107.913 54.9956
107.955 42.7272
107.997 35.0942
108.081 26.4537
108.166 21.9350
108.250 19.2849
108.418 16.5229
108.754 15.0077
109.091 16.2721
109.427 21.3581
109.595 27.0399
109.763 37.6316
109.932 59.7725
110.016 80.7532
110.100 116.430
110.184 183.709
110.226 241.851
110.268 331.795
110.310 481.044
110.352 748.885
110.373 966.710
110.394 1281.17
110.415 1744.27
110.436 2425.34
110.468 3925.57
110.500 4971.35
110.532 4016.82
110.564 2530.51
110.601 1458.88
110.639 909.630
110.676 613.192
110.713 440.209
110.750 331.258
110.788 258.798
110.862 171.846
110.937 123.618
111.011 94.1777
111.160 61.4467
111.309 44.5116
111.458 34.5694
111.757 23.8328
112.055 18.3795
112.353 15.2001
112.949 11.8775
113.545 10.6802
113.843 10.8276
114.142 11.8470
114.440 14.8219
114.589 18.0264
114.738 23.9080
114.887 36.0048
114.961 47.2766
115.036 66.1242
115.111 100.870
115.148 130.141
115.185 174.307
115.222 245.169
115.260 366.227
115.297 590.695
115.315 772.562
115.334 1025.48
115.367 1658.00
115.400 2096.74
115.433 1691.27
115.466 1065.16
115.487 785.131
115.508 589.983
115.549 359.015
115.591 238.922
115.632 170.405
115.674 128.105
115.716 100.301
115.799 67.3092
115.882 49.2053
115.965 38.2159
116.131 26.0841
116.298 19.8506
116.464 16.2212
116.797 12.3996
117.130 10.6432
117.462 9.90480
118.128 10.5596
118.460 12.1747
118.793 15.2817
119.126 21.1216
119.292 25.8657
119.458 32.6600
119.625 42.7078
119.791 58.1721
119.957 83.3539
120.124 127.538
120.207 162.962
120.290 214.092
120.373 291.217
120.456 414.088
120.540 625.186
120.623 1023.57
120.664 1363.58
120.706 1876.09
120.748 2671.26
120.789 3905.85
120.845 6350.78
120.900 8073.43
120.956 6570.46
121.012 4175.39
121.050 3020.14
121.088 2236.35
121.127 1702.96
121.165 1334.15
121.241 878.194
121.317 622.482
121.393 465.759
121.470 363.325
121.622 241.776
121.775 175.000
121.927 134.285
122.232 88.8645
122.537 65.1287
122.842 51.0045
123.147 41.8168
123.452 35.4438
124.062 27.2896
124.672 22.3547
125.283 19.0638
125.893 16.7112
127.049 13.6704
128.206 11.6288
130.520 8.87894
131.677 7.83276
132.833 6.93450
133.990 6.32172
134.279 6.31288
134.569 6.53734
134.713 6.91325
134.858 7.92078
134.930 9.15358
135.002 11.9906
135.039 15.0174
135.075 20.8486
135.093 25.9735
135.111 33.9398
135.129 46.8241
135.147 67.7674
135.169 105.443
135.190 131.141
135.212 106.764
135.233 69.4332
135.253 46.3038
135.274 32.9748
135.294 25.0767
135.314 20.1528
135.355 14.7021
135.396 11.9820
135.477 9.53145
135.558 8.56310
135.721 8.01373
135.883 8.16566
136.208 9.60371
136.534 12.9585
136.696 15.9493
136.859 20.5660
137.021 28.0650
137.184 41.2067
137.265 51.7792
137.346 67.1648
137.428 90.7612
137.509 129.540
137.590 200.087
137.631 259.264
137.672 348.570
137.712 492.487
137.753 741.376
137.793 1212.11
137.814 1603.72
137.834 2158.97
137.867 3426.23
137.900 4275.71
137.933 3419.90
137.966 2125.25
137.990 1477.80
138.014 1056.24
138.038 779.423
138.062 594.626
138.110 375.604
138.158 260.136
138.205 194.464
138.253 156.261
138.301 135.189
138.325 129.491
138.349 126.601
138.373 126.432
138.397 129.046
138.421 134.686
138.445 143.714
138.469 156.853
138.493 174.962
138.517 199.507
138.541 232.585
138.565 277.550
138.588 338.829
138.612 424.490
138.636 545.878
138.660 723.983
138.684 990.508
138.708 1400.22
138.732 2030.68
138.766 3372.72
138.800 4361.23
138.834 3603.57
138.868 2334.81
138.892 1690.41
138.916 1254.93
138.941 961.167
138.965 758.430
139.013 509.607
139.062 372.595
139.110 294.329
139.158 258.305
139.183 258.907
139.207 280.487
139.231 341.169
139.255 478.857
139.266 583.991
139.278 710.503
139.300 901.695
139.323 791.962
139.345 569.307
139.361 447.928
139.377 362.366
139.409 259.006
139.442 202.348
139.474 167.454
139.538 126.810
139.603 103.484
139.731 76.8632
139.860 61.5734
140.118 44.2025
140.375 34.4560
140.633 28.1807
140.890 23.8056
141.406 18.2179
141.921 15.5148
142.178 15.5651
142.436 17.6519
142.565 20.2461
142.693 24.8749
142.758 28.4353
142.822 33.2760
142.887 39.9607
142.951 49.3682
143.015 63.0121
143.080 83.4760
143.144 115.592
143.209 169.105
143.241 209.819
143.273 265.781
143.305 345.003
143.337 461.122
143.370 638.375
143.402 921.515
143.434 1393.95
143.466 2191.75
143.503 3621.51
143.540 4661.86
143.577 3842.40
143.614 2483.41
143.651 1583.24
143.688 1066.59
143.725 762.396
143.762 573.247
143.799 448.268
143.836 361.954
143.910 253.960
143.984 191.226
144.058 151.507
144.206 105.468
144.353 80.4462
144.501 65.1285
144.649 54.9429
144.797 47.7525
145.093 38.3506
145.389 32.5304
145.980 25.7633
146.572 22.0706
146.867 20.9356
147.163 20.3279
147.459 20.6812
147.607 21.6641
147.755 23.9211
147.902 29.2336
147.976 34.5615
148.050 43.9009
148.124 62.0493
148.161 78.0278
148.198 103.096
148.235 145.375
148.272 222.668
148.291 286.742
148.309 380.572
148.328 520.969
148.346 729.335
148.373 1172.17
148.400 1483.05
148.428 1207.60
148.455 770.392
148.486 462.643
148.517 300.501
148.547 210.517
148.578 157.092
148.609 122.946
148.640 100.032
148.701 72.0494
148.763 56.2741
148.824 46.4756
148.947 35.3528
149.070 29.4124
149.193 25.8046
149.439 21.7033
149.685 19.4349
149.931 17.9739
150.423 16.1324
150.914 14.9453
151.406 14.0616
152.390 12.7262
153.374 11.6640
153.866 11.1950
154.358 10.7926
154.849 10.5970
155.095 10.7395
155.341 11.3464
155.464 12.0326
155.587 13.2409
155.710 15.4433
155.833 19.7286
155.956 29.0672
156.018 38.1202
156.079 53.6385
156.110 65.8288
156.141 82.9740
156.171 108.147
156.202 146.539
156.233 208.816
156.248 254.902
156.264 316.100
156.279 400.014
156.294 515.537
156.310 678.400
156.325 903.469
156.353 1475.77
156.380 1888.80
156.408 1558.97
156.435 1009.38
156.467 600.159
156.499 385.618
156.531 267.834
156.563 197.973
156.596 153.557
156.628 123.667
156.692 87.2033
156.756 66.5947
156.820 53.7570
156.949 39.1281
157.077 31.3088
157.205 26.5708
157.334 23.4425
157.462 21.2436
157.719 18.3818
157.976 16.6108
158.489 14.5286
158.882 13.5587
159.274 12.8544
160.058 11.8673
160.842 11.1804
161.626 10.6775
162.410 10.3852
162.803 10.4015
163.195 10.6918
163.587 11.7033
163.783 12.8994
163.979 15.2388
164.175 20.3762
164.273 25.4134
164.371 34.2104
164.469 51.3416
164.518 66.5045
164.567 90.5654
164.616 131.578
164.665 208.368
164.690 273.268
164.714 370.297
164.739 519.359
164.763 749.018
164.797 1212.64
164.830 1540.00
164.864 1257.16
164.897 803.638
164.920 582.624
164.943 432.415
164.966 330.634
164.989 260.451
165.035 173.583
165.081 125.042
165.127 95.3312
165.173 75.9650
165.265 53.0379
165.356 40.4578
165.448 32.7982
165.632 24.2498
165.816 19.7723
165.999 17.0948
166.367 14.1110
166.734 12.5316
167.102 11.6856
167.285 11.6015
167.377 11.7541
167.469 12.2008
167.561 13.3312
167.607 14.4742
167.653 16.4589
167.699 20.2138
167.745 28.2358
167.768 35.9684
167.791 49.0227
167.814 72.7788
167.837 117.286
167.847 149.148
167.858 186.227
167.880 235.766
167.902 195.150
167.924 128.827
167.948 81.2966
167.972 55.9326
167.996 41.7057
168.021 33.2011
168.045 27.7241
168.069 24.0291
168.117 19.4835
168.166 16.8844
168.214 15.2547
168.311 13.3737
168.408 12.3564
168.505 11.7437
168.699 11.1357
168.893 11.1264
168.990 11.4443
169.087 12.2130
169.183 14.0122
169.232 15.7876
169.280 18.8370
169.329 24.5920
169.353 29.4917
169.377 36.9561
169.402 49.0200
169.426 69.6624
169.450 107.740
169.462 138.521
169.474 181.164
169.485 232.444
169.496 291.576
169.518 371.108
169.540 306.564
169.562 200.619
169.587 125.311
169.611 84.6409
169.635 61.8168
169.660 48.0864
169.684 39.2822
169.708 33.3310
169.757 26.0794
169.805 22.0090
169.854 19.5373
169.951 16.9160
170.145 15.5892
170.339 17.0452
170.533 22.2464
170.631 27.8464
170.728 37.9714
170.825 58.1722
170.873 76.3770
170.922 105.546
170.970 156.040
171.019 251.951
171.043 334.369
171.068 459.256
171.092 654.187
171.116 958.142
171.148 1555.11
171.180 1979.40
171.213 1616.50
171.245 1031.93
171.273 691.761
171.301 483.798
171.329 354.123
171.357 270.476
171.413 173.877
171.469 123.041
171.525 93.1541
171.580 74.0959
171.692 51.9929
171.804 40.0549
171.916 32.8148
172.139 24.7292
172.363 20.4575
172.587 17.8684
173.034 14.9222
173.481 13.2925
173.928 12.2451
174.823 10.9397
175.717 10.1517
176.164 9.91107
176.611 9.84375
177.059 10.1996
177.282 10.7838
177.506 12.0531
177.729 15.0222
177.841 18.0241
177.953 23.3507
178.065 33.8273
178.121 43.1505
178.177 57.9562
178.232 83.1340
178.260 102.707
178.288 129.928
178.316 169.175
178.344 227.016
178.372 314.539
178.400 447.001
178.420 576.113
178.440 725.783
178.480 925.939
178.500 882.205
178.521 759.561
178.561 488.225
178.601 311.527
178.641 210.647
178.682 151.502
178.722 114.860
178.762 90.7430
178.802 74.1448
178.882 53.4726
178.963 41.5394
179.043 34.0260
179.204 25.3744
179.365 20.7147
179.525 17.8787
179.847 14.6737
180.168 12.9349
180.489 11.8454
181.132 10.5447
181.775 9.84401
182.096 9.70093
182.417 9.82088
182.739 10.5977
182.900 11.6137
183.060 13.6766
183.221 18.3196
183.301 22.9337
183.382 31.0324
183.462 46.8628
183.502 60.8974
183.542 83.0738
183.582 120.815
183.623 190.722
183.643 249.387
183.663 336.301
183.683 468.261
183.703 667.669
183.731 1087.74
183.760 1388.67
183.789 1137.28
183.817 729.349
183.843 478.813
183.870 329.371
183.896 238.733
183.922 181.115
183.974 115.897
184.027 82.1466
184.079 62.5116
184.132 50.0784
184.236 35.7508
184.341 28.0547
184.446 23.4006
184.656 18.2111
184.865 15.4625
185.075 13.7873
185.494 11.8543
185.913 10.7511
186.332 10.0109
187.170 9.00777
188.009 8.29346
188.428 8.01498
188.847 7.83575
189.266 7.93524
189.476 8.27704
189.685 9.14104
189.895 11.3687
190.000 13.7535
190.104 18.1667
190.209 27.3175
190.262 35.8539
190.314 50.0377
190.366 75.7010
190.393 96.8306
190.419 128.002
190.445 176.063
190.471 254.005
190.497 386.942
190.524 617.618
190.552 1010.24
190.580 1292.01
190.608 1060.08
190.637 682.030
190.665 429.691
190.694 287.016
190.723 204.062
190.751 153.033
190.780 119.563
190.809 96.6786
190.866 68.1842
190.923 51.7951
190.981 41.5138
191.095 29.7221
191.210 23.3953
191.324 19.5683
191.554 15.2841
191.783 13.0149
192.012 11.6549
192.471 10.2918
192.700 10.1034
192.929 10.3171
193.159 11.1997
193.388 13.4576
193.503 15.6386
193.617 19.1811
193.732 25.2269
193.847 36.3048
193.904 45.4822
193.961 59.0282
194.019 80.0173
194.076 114.600
194.133 176.479
194.162 226.997
194.190 300.536
194.219 412.903
194.248 591.480
194.276 890.478
194.305 1396.36
194.338 2289.03
194.370 2933.14
194.403 2404.91
194.435 1541.81
194.455 1158.17
194.475 885.293
194.515 554.351
194.554 377.577
194.594 274.841
194.634 210.165
194.674 167.058
194.753 115.036
194.833 85.8799
194.912 67.8668
195.071 47.4703
195.231 36.6498
195.390 30.1308
195.549 25.8469
195.708 22.8483
196.026 18.9670
196.344 16.5822
196.981 13.8040
197.617 12.2076
198.253 11.1358
199.526 9.68944
200.000 9.27196
200.661 8.75743
201.321 8.36304
201.652 8.32370
201.817 8.43855
201.982 8.78810
202.147 9.73983
202.230 10.7695
202.312 12.6718
202.395 16.5895
202.436 20.2127
202.478 26.1780
202.519 36.8320
202.560 58.1217
202.581 77.3527
202.602 107.762
202.622 158.180
202.643 243.130
202.666 394.234
202.690 502.364
202.714 412.675
202.737 266.990
202.757 182.171
202.778 129.555
202.798 96.5998
202.818 75.1389
202.858 50.2644
202.898 37.1230
202.938 29.3409
202.978 24.3723
203.059 18.5738
203.139 15.4206
203.219 13.4936
203.380 11.3132
203.540 10.1340
203.701 9.39920
204.022 8.53124
204.343 8.05235
204.665 7.85181
204.825 7.93313
204.986 8.39949
205.066 9.07776
205.146 10.7651
205.187 12.6569
205.227 16.4664
205.247 19.9513
205.267 25.5795
205.287 35.1427
205.307 51.6463
205.329 79.2120
205.350 98.4125
205.372 81.1697
205.393 54.0872
205.416 35.6472
205.439 25.5968
205.462 19.9209
205.485 16.5093
205.530 12.8260
205.576 11.0257
205.668 9.41893
205.759 8.78537
205.942 8.44840
206.125 8.65002
206.308 9.28824
206.491 10.6803
206.582 12.0604
206.674 14.8152
206.720 17.5769
206.765 22.9001
206.788 27.7376
206.811 35.6219
206.834 49.5337
206.857 74.8615
206.878 112.632
206.900 137.728
206.922 112.677
206.943 75.2868
206.966 50.7183
206.988 37.5147
207.011 30.2408
207.034 26.0316
207.079 21.9571
207.124 20.5021
207.305 22.5980
207.485 30.6195
207.576 37.1836
207.666 46.3679
207.757 59.5348
207.847 79.0238
207.937 109.167
208.028 158.505
208.118 245.963
208.163 316.395
208.208 417.790
208.254 569.927
208.299 807.149
208.344 1190.97
208.389 1816.87
208.445 2994.29
208.500 3849.81
208.556 3168.99
208.611 2042.28
208.675 1211.88
208.740 776.153
208.804 536.472
208.869 394.031
208.933 303.312
208.997 242.167
209.126 167.436
209.255 125.105
209.384 98.6898
209.641 68.5356
209.899 52.3945
210.157 42.6123
210.414 36.1596
210.672 31.6351
211.187 25.7733
211.702 22.1834
212.217 19.7734
212.732 18.0469
213.763 15.7306
214.793 14.2422
215.308 13.7067
215.566 13.5057
215.823 13.3905
216.081 13.4798
216.210 13.7142
216.338 14.2611
216.467 15.5700
216.532 16.8970
216.596 19.2453
216.660 23.8404
216.693 27.9100
216.725 34.3467
216.757 45.2419
216.789 65.3829
216.805 82.1667
216.821 106.908
216.838 144.241
216.854 200.170
216.877 319.640
216.900 404.449
216.923 332.522
216.947 216.841
216.961 165.205
216.975 128.576
217.004 84.3080
217.032 60.7594
217.061 47.0905
217.090 38.5329
217.118 32.8394
217.175 25.9820
217.232 22.1400
217.290 19.7621
217.404 17.0622
217.518 15.6110
217.633 14.7204
217.861 13.6844
218.090 13.0890
218.319 12.6887
218.776 12.1551
219.233 11.8019
219.691 11.6120
219.920 11.6699
220.034 11.8124
220.148 12.1394
220.263 12.9130
220.320 13.6898
220.377 15.0495
220.434 17.6815
220.463 19.9850
220.491 23.5696
220.520 29.5541
220.548 40.3523
220.577 61.8029
220.591 80.3997
220.606 107.407
220.628 168.785
220.650 212.356
220.672 175.429
220.695 116.036
220.709 88.5237
220.723 69.3166
220.752 46.5578
220.780 34.6932
220.809 27.9133
220.837 23.6864
220.866 20.8986
220.923 17.5444
220.980 15.6748
221.037 14.5178
221.151 13.1994
221.266 12.4852
221.380 12.0414
221.608 11.5133
221.837 11.1969
222.065 10.9742
222.522 10.6545
223.436 10.2022
224.349 9.83033
225.263 9.47712
225.720 9.29921
226.177 9.12175
226.634 8.96545
226.862 8.92364
227.091 8.96379
227.319 9.25126
227.433 9.64836
227.547 10.4824
227.662 12.4073
227.719 14.3414
227.776 17.7530
227.833 24.3936
227.862 30.2436
227.890 39.3749
227.919 54.6451
227.947 82.0486
227.961 104.336
227.976 136.346
227.990 183.112
228.004 250.670
228.016 324.081
228.027 409.151
228.050 525.935
228.062 503.127
228.073 435.852
228.096 284.178
228.117 187.907
228.139 130.951
228.161 96.6257
228.182 74.9654
228.225 50.3948
228.268 37.6517
228.311 30.2065
228.355 25.4674
228.441 19.9618
228.527 16.9691
228.613 15.1381
228.786 13.0636
228.958 11.9421
229.130 11.2465
229.475 10.4256
229.820 9.94599
230.165 9.62009
230.855 9.18023
232.234 8.64768
233.613 8.38817
234.303 8.41274
234.993 8.65168
235.683 9.32784
236.372 11.0022
236.717 12.6383
237.062 15.3402
237.407 20.0378
237.752 28.8453
237.924 36.2671
238.097 47.4010
238.269 64.9678
238.441 94.5782
238.614 149.258
238.700 195.118
238.786 263.991
238.872 372.700
238.959 554.659
239.045 878.714
239.131 1475.60
239.216 2418.33
239.300 3100.23
239.385 2547.88
239.469 1637.33
239.549 1063.46
239.628 724.722
239.708 521.027
239.787 392.441
239.946 247.421
240.105 172.698
240.264 129.253
240.423 101.763
240.741 70.0450
241.059 52.9733
241.376 42.6251
241.694 35.8109
242.012 31.0400
242.648 24.8614
243.284 21.0410
243.602 19.6322
243.920 18.5342
244.079 18.2327
244.158 18.2575
244.238 18.5653
244.317 19.5506
244.357 20.6202
244.396 22.5253
244.436 26.1570
244.476 33.7867
244.496 40.9137
244.516 52.4539
244.536 72.2090
244.555 106.320
244.567 134.499
244.578 167.824
244.600 215.019
244.622 183.040
244.645 125.750
244.671 81.6310
244.698 58.5283
244.724 45.7253
244.751 38.0959
244.778 33.1740
244.804 29.8328
244.857 25.6695
244.910 23.2326
244.963 21.6581
245.069 19.7603
245.176 18.6570
245.282 17.9409
245.494 17.1439
245.706 17.0839
245.812 17.5285
245.918 18.6905
246.025 21.5611
246.078 24.4764
246.131 29.5794
246.184 39.3819
246.210 47.8353
246.237 60.8376
246.263 82.0694
246.290 118.878
246.316 187.890
246.330 244.723
246.343 323.715
246.355 416.776
246.367 525.429
246.390 672.652
246.414 557.376
246.437 364.913
246.452 277.551
246.466 215.775
246.495 140.671
246.524 100.313
246.553 76.8255
246.582 61.9818
246.611 52.0838
246.670 40.0284
246.728 33.2160
246.786 28.9555
246.902 24.0510
247.018 21.3679
247.134 19.6947
247.367 17.7176
247.599 16.5633
247.831 15.7819
248.296 14.7346
248.761 14.0171
248.993 13.7345
249.225 13.5106
249.458 13.4065
249.574 13.4662
249.690 13.7163
249.806 14.4468
249.864 15.2454
249.922 16.7075
249.980 19.6448
250.010 22.2800
250.039 26.4455
250.068 33.5034
250.097 46.3636
250.126 72.2094
250.140 94.8010
250.155 128.111
250.166 163.548
250.177 204.765
250.200 262.103
250.223 219.692
250.245 146.840
250.260 112.263
250.275 88.1978
250.304 59.4410
250.334 44.3493
250.363 35.6608
250.393 30.2026
250.422 26.5634
250.481 22.1526
250.540 19.6513
250.599 18.0828
250.717 16.2580
250.835 15.2445
250.953 14.6004
251.189 13.8153
251.424 13.3356
251.660 12.9946
252.131 12.5057
252.602 12.1386
253.073 11.8307
253.544 11.5639
253.779 11.4525
254.015 11.3764
254.250 11.3962
254.368 11.4996
254.486 11.7577
254.603 12.3883
254.662 13.0248
254.721 14.1346
254.780 16.2640
254.809 18.1102
254.839 20.9809
254.868 25.7681
254.898 34.4073
254.927 51.7896
254.942 67.1288
254.956 89.9931
254.978 139.664
255.000 176.184
255.022 149.101
255.044 104.170
255.058 84.1628
255.072 71.4465
255.100 61.7606
255.128 69.4607
255.142 81.4944
255.156 101.473
255.178 149.582
255.200 185.588
255.222 155.990
255.244 106.505
255.262 77.1676
255.281 58.6957
255.299 46.9347
255.318 39.1726
255.355 29.8738
255.392 24.7670
255.429 21.6234
255.467 19.5413
255.541 16.9931
255.615 15.5177
255.689 14.5678
255.838 13.4258
255.986 12.7625
256.135 12.3250
256.432 11.7665
256.729 11.4044
257.026 11.1328
257.620 10.7145
258.214 10.3888
258.511 10.2752
258.808 10.2550
258.957 10.3271
259.106 10.5183
259.254 10.9470
259.403 11.8994
259.551 14.1895
259.625 16.5497
259.700 20.7874
259.774 29.2418
259.811 36.8211
259.848 48.9253
259.885 69.6936
259.922 108.423
259.941 141.064
259.960 189.218
259.978 262.773
259.997 374.046
260.023 612.171
260.050 787.244
260.077 651.955
260.103 424.279
260.126 293.603
260.148 211.051
260.170 158.554
260.192 124.079
260.236 83.3864
260.280 61.5940
260.324 48.5651
260.368 40.1816
260.457 30.3206
260.545 24.9164
260.633 21.6000
260.722 19.3968
260.810 17.8450
260.986 15.8282
261.163 14.5886
261.516 13.1524
261.869 12.3374
262.223 11.7984
262.929 11.0888
263.635 10.5932
263.989 10.3864
264.342 10.2095
264.695 10.1056
264.871 10.1318
265.048 10.3037
265.225 10.8691
265.313 11.5276
265.401 12.7990
265.490 15.5221
265.534 18.1192
265.578 22.4883
265.622 30.5416
265.666 47.2424
265.688 62.8998
265.710 88.5886
265.732 133.546
265.743 167.907
265.754 213.643
265.766 275.303
265.777 346.628
265.800 443.454
265.823 366.917
265.846 239.791
265.862 173.779
265.879 130.000
265.896 100.779
265.912 80.7818
265.946 56.3485
265.979 42.8190
266.012 34.5519
266.045 29.1634
266.112 22.7535
266.178 19.1996
266.245 17.0103
266.377 14.5206
266.510 13.1835
266.643 12.3696
266.909 11.4923
267.175 11.2573
267.308 11.4652
267.441 12.1493
267.574 13.9976
267.640 15.9704
267.707 19.5596
267.773 26.7823
267.806 33.2837
267.839 43.6907
267.873 61.5911
267.906 95.0306
267.923 123.163
267.939 164.936
267.956 228.475
267.972 325.257
267.984 421.159
267.996 532.334
268.020 684.431
268.032 655.039
268.044 567.502
268.068 370.608
268.093 233.888
268.118 157.772
268.143 114.027
268.168 87.3173
268.194 69.8573
268.219 57.9460
268.269 43.1132
268.319 34.5743
268.370 29.1852
268.470 22.9614
268.571 19.5869
268.671 17.5193
268.772 16.1413
268.873 15.1647
269.074 13.8798
269.275 13.0748
269.678 12.1142
270.080 11.5472
270.482 11.1605
271.287 10.6379
272.092 10.2709
272.897 9.97474
274.507 9.46817
276.116 8.98317
276.921 8.73245
277.726 8.48431
278.531 8.30047
278.933 8.31142
279.336 8.54649
279.537 8.85834
279.738 9.44402
279.940 10.5644
280.141 12.8374
280.342 17.9864
280.443 23.1308
280.543 32.2066
280.644 49.9621
280.694 65.6919
280.744 90.5644
280.795 132.606
280.845 210.040
280.870 274.416
280.895 368.464
280.920 510.034
280.946 721.412
280.983 1183.22
281.020 1518.41
281.057 1249.90
281.095 806.008
281.120 589.593
281.145 441.686
281.170 340.519
281.195 269.931
281.246 182.013
281.296 132.348
281.347 101.682
281.397 81.5311
281.498 57.4404
281.599 44.0603
281.700 35.8186
281.902 26.5118
282.103 21.5614
282.305 18.5647
282.507 16.5796
282.709 15.1775
283.112 13.3297
283.516 12.1562
284.323 10.6908
285.130 9.72020
285.533 9.31882
285.937 8.96494
286.340 8.71710
286.542 8.71049
286.744 8.93123
286.945 9.78587
287.046 10.8324
287.147 12.9044
287.248 17.4517
287.298 21.8488
287.349 29.3571
287.399 43.4080
287.424 55.2669
287.450 73.1613
287.475 101.531
287.487 122.123
287.500 149.212
287.513 185.413
287.525 234.454
287.538 301.391
287.550 392.090
287.563 508.122
287.575 643.796
287.600 829.515
287.612 794.000
287.625 687.177
287.650 446.622
287.674 290.182
287.698 199.271
287.722 145.019
287.746 110.893
287.770 88.1929
287.794 72.5166
287.842 52.7893
287.890 41.2810
287.938 33.9864
288.034 25.5138
288.130 20.9128
288.226 18.1003
288.418 14.9262
288.611 13.2427
288.803 12.2533
289.187 11.3873
289.572 11.8305
289.764 12.9238
289.956 15.3599
290.148 21.0187
290.244 26.6676
290.340 36.5617
290.437 55.6845
290.485 72.4451
290.533 98.5914
290.581 142.221
290.629 220.755
290.653 284.896
290.677 376.950
290.701 511.968
290.725 709.564
290.762 1159.44
290.800 1485.85
290.838 1221.32
290.875 785.032
290.918 468.027
290.961 301.030
291.004 208.997
291.047 154.286
291.090 119.461
291.133 96.0139
291.219 67.4069
291.305 51.2426
291.391 41.1756
291.563 29.7055
291.735 23.5624
291.907 19.8411
292.251 15.7640
292.595 14.1726
292.767 14.3698
292.939 15.8731
293.111 20.4690
293.197 25.5012
293.283 34.6946
293.369 52.9815
293.412 69.1926
293.455 94.6307
293.498 136.906
293.541 212.378
293.562 272.866
293.584 358.670
293.605 482.076
293.627 657.771
293.663 1093.86
293.700 1420.17
293.737 1182.82
293.773 774.226
293.801 554.994
293.828 409.757
293.856 313.499
293.884 248.132
293.939 168.351
293.994 124.083
294.049 96.9706
294.104 79.1895
294.214 57.8694
294.325 45.9092
294.435 38.4392
294.655 29.8104
294.876 25.0610
295.097 22.0856
295.538 18.5634
295.979 16.5242
296.420 15.1621
297.302 13.3610
298.184 12.0943
298.625 11.5560
299.066 11.0910
299.508 10.8470
299.728 10.9899
299.949 11.6538
300.059 12.4160
300.169 13.7627
300.280 16.2106
300.390 20.9225
300.500 30.9470
300.555 40.3901
300.610 56.0292
300.666 84.0694
300.693 106.794
300.721 139.564
300.748 188.904
300.776 265.556
300.803 389.829
300.831 591.761
300.865 982.806
300.900 1275.56
300.935 1062.36
300.969 695.177
300.990 530.058
301.011 411.877
301.053 266.174
301.096 187.067
301.138 140.365
301.180 110.699
301.222 90.7069
301.306 66.2353
301.390 52.2710
301.474 43.4926
301.643 33.3588
301.811 27.8360
301.979 24.4328
302.148 22.1482
302.316 20.5200
302.653 18.3616
302.989 16.9975
303.326 16.0539
303.663 15.3579
304.336 14.3852
305.009 13.7276
305.346 13.4908
305.515 13.4117
305.683 13.3930
305.851 13.5288
305.935 13.7428
306.020 14.1947
306.104 15.2137
306.146 16.2059
306.188 17.8921
306.230 21.0228
306.272 27.5651
306.293 33.7172
306.314 43.8212
306.335 61.4047
306.356 92.8253
306.378 145.472
306.400 184.252
306.422 154.580
306.444 104.520
306.463 74.0306
306.483 55.4029
306.502 43.8803
306.522 36.4396
306.561 27.8705
306.600 23.3484
306.600 59.9133
316.228 59.1739
350.000 56.5802
398.107 53.5538
400.000 53.4347
500.000 48.6253
501.187 48.5832
600.000 45.0755
630.957 44.2395
720.000 41.8351
794.328 40.2892
850.000 39.1314
1000.00 36.6930
1250.00 33.6523
1258.93 33.5722
1500.00 31.4079
1584.89 30.8025
1700.00 29.9815
1995.26 28.2849
2000.00 28.2577
2500.00 26.1079
2511.89 26.0702
3000.00 24.5208
3162.28 24.1205
3500.00 23.2872
3981.07 22.3303
4000.00 22.2926
5000.00 20.7713
5011.87 20.7579
6000.00 19.6474
6309.57 19.3767
7000.00 18.7731
7200.00 18.6204
7943.28 18.1297
8500.00 17.7622
10000.0 16.9867
12500.0 16.0166
12589.3 15.9909
15000.0 15.2972
15848.9 15.1022
17000.0 14.8378
19952.6 14.2882
20000.0 14.2794
25000.0 13.5761
25118.9 13.5636
30000.0 13.0496
31622.8 12.9147
35000.0 12.6341
39810.7 12.3068
40000.0 12.2940
50000.0 11.7612
50118.7 11.7560
54880.5 11.5505
54880.5 11.5505
54881.1 11.5505
54881.1 9.23396
60000.0 9.17042
63095.7 9.08034
64330.9 9.04440
70000.0 8.93069
79432.8 8.80593
80000.0 8.79843
90000.0 8.65990
100000 8.55027
116464 8.36410
120000 8.32411
125893 8.25748
130000 8.21104
132295 8.18508
150000 7.98488
158489 7.93942
181388 7.81680
181389 7.81679
199526 7.71967
200000 7.71713
228771 7.63301
228771 7.63301
250000 7.57094
251189 7.56746
270000 7.51246
277774 7.48973
277774 7.48973
300000 7.42474
316228 7.40628
317025 7.40538
320000 7.40199
349482 7.36846
349482 7.36846
350000 7.36787
362314 7.35989
362314 7.35989
370000 7.35491
374391 7.35207
374391 7.35207
398107 7.33671
400000 7.33548
420000 7.32952
428738 7.32692
428738 7.32692
437222 7.32439
437223 7.32439
450000 7.32059
470000 7.31463
477681 7.31234
481948 7.31107
481948 7.31107
500000 7.30569
501187 7.30570
516297 7.30578
516298 7.30578
517978 7.30579
517978 7.30579
520000 7.30580
528224 7.30585
550000 7.30597
569638 7.30607
569638 7.30607
570000 7.30607
584735 7.30616
600000 7.30624
611495 7.30685
611496 7.30685
620000 7.30730
621972 7.30740
621972 7.30740
630957 7.30788
644677 7.30860
644677 7.30860
650000 7.30888
659915 7.30940
661938 7.30951
669275 7.30990
670000 7.30994
687622 7.31087
689403 7.31096
689403 7.31096
691084 7.31105
694435 7.31123
700000 7.31152
700474 7.31146
706613 7.31066
720000 7.30893
727547 7.30795
733706 7.30715
740000 7.30633
743750 7.30585
743750 7.30585
751802 7.30480
756260 7.30422
756260 7.30422
760000 7.30374
762872 7.30336
767562 7.30275
767562 7.30275
776278 7.30163
780000 7.30114
783866 7.30064
791052 7.29971
791052 7.29971
794328 7.29928
798500 7.29874
799104 7.29866
800000 7.29855
849657 7.29210
882637 7.28783
900000 7.28557
936984 7.28078
981599 7.27499
1.00000E+06 7.27260
1.04115E+06 7.25942
1.04467E+06 7.25829
1.10000E+06 7.24056
1.12720E+06 7.23185
1.17249E+06 7.21734
1.20000E+06 7.20853
1.23388E+06 7.19254
1.25946E+06 7.18047
1.30000E+06 7.16133
1.30565E+06 7.15866
1.31339E+06 7.15501
1.40000E+06 7.11413
1.50000E+06 7.06693
1.56297E+06 7.02855
1.57947E+06 7.01849
1.60000E+06 7.00598
1.61257E+06 6.99831
1.64853E+06 6.97639
1.66463E+06 6.96658
1.68979E+06 6.95124
1.70000E+06 6.94502
1.73709E+06 6.91723
1.80000E+06 6.87009
1.83975E+06 6.84031
1.89309E+06 6.80034
1.90000E+06 6.79517
1.91523E+06 6.78376
1.95440E+06 6.75441
1.96253E+06 6.74832
1.97091E+06 6.74204
1.97656E+06 6.73780
1.99776E+06 6.72192
2.00000E+06 6.72024
2.01232E+06 6.71364
2.05726E+06 6.68959
2.15677E+06 6.63631
2.19804E+06 6.61421
2.20000E+06 6.61316
2.23024E+06 6.59698
2.40000E+06 6.50609
2.50000E+06 6.45255
2.60000E+06 6.39490
2.80000E+06 6.27961
3.00000E+06 6.16431
3.50000E+06 5.85924
4.00000E+06 5.55416
4.50000E+06 5.31038
5.00000E+06 5.13523
5.50000E+06 5.04876
6.00000E+06 4.96229
6.40088E+06 4.92721
6.40088E+06 4.92721
6.50000E+06 4.91854
6.59915E+06 4.91369
7.00000E+06 4.89407
7.50000E+06 4.89142
7.80000E+06 4.88982
8.00000E+06 4.88876
8.08061E+06 4.89050
8.50000E+06 4.89955
9.00000E+06 4.91034
9.50000E+06 4.92823
1.00000E+07 4.95764
1.05000E+07 4.98705
1.10000E+07 5.01646
1.15000E+07 5.04587
1.20000E+07 5.07528
1.25000E+07 5.10469
1.30000E+07 5.13410
1.35000E+07 5.15247
1.40000E+07 5.17084
1.44583E+07 5.18768
1.45000E+07 5.18921
1.49917E+07 5.19546
1.49918E+07 5.19546
1.50000E+07 5.19556
1.55000E+07 5.20192
1.60000E+07 5.20827
1.65000E+07 5.20051
1.70000E+07 5.19275
1.75000E+07 5.18498
1.80000E+07 5.17722
1.85000E+07 5.16162
1.90000E+07 5.14602
1.91000E+07 5.14290
1.95000E+07 5.11731
1.99000E+07 5.09172
2.00000E+07 5.08532