Gd-157(n,g) ENDF/B-VII.1
Energy(eV) XS(b)
1.00000E-05 9.68503E+06
1.26000E-05 8.62835E+06
1.58000E-05 7.70549E+06
2.00000E-05 6.84913E+06
2.51000E-05 6.11422E+06
3.16000E-05 5.44967E+06
3.98000E-05 4.85645E+06
5.00000E-05 4.33347E+06
5.01000E-05 4.32915E+06
5.05063E-05 4.31172E+06
5.09125E-05 4.29451E+06
5.17250E-05 4.26070E+06
5.33500E-05 4.19540E+06
5.66000E-05 4.07335E+06
6.31000E-05 3.85820E+06
7.94000E-05 3.44023E+06
0.000100000 3.06638E+06
0.000126000 2.73278E+06
0.000158000 2.44155E+06
0.000200000 2.17144E+06
0.000251000 1.93981E+06
0.000316000 1.73052E+06
0.000398000 1.54390E+06
0.000500000 1.37960E+06
0.000501000 1.37824E+06
0.000505063 1.37277E+06
0.000509125 1.36737E+06
0.000517250 1.35676E+06
0.000533500 1.33627E+06
0.000566000 1.29798E+06
0.000631000 1.23054E+06
0.000794000 1.09973E+06
0.00100000 983046
0.00126000 879279
0.00158000 789077
0.00200000 705872
0.00251000 635004
0.00316000 571517
0.00398000 515507
0.00500000 466841
0.00501000 466442
0.00505063 464835
0.00509125 463249
0.00517250 460135
0.00533500 454133
0.00566000 442956
0.00631000 423394
0.00794000 385980
0.0100000 353274
0.0125900 324787
0.0158500 299632
0.0199500 276654
0.0200000 276411
0.0201600 275634
0.0203200 274865
0.0206400 273344
0.0212800 270375
0.0225600 264681
0.0251200 254037
0.0253000 253317
0.0256813 251802
0.0260625 250299
0.0268250 247327
0.0283500 241491
0.0314000 230098
0.0316200 229286
0.0321319 227398
0.0326438 225513
0.0336675 221752
0.0357150 214250
0.0398100 199270
0.0500000 162567
0.0501200 162147
0.0505256 160730
0.0509313 159319
0.0517425 156513
0.0533650 150970
0.0566100 140205
0.0631000 120203
0.0712650 98366.2
0.0794300 80327.2
0.0852370 69633.6
0.0926185 58271.3
0.100000 49019.5
0.106473 42335.4
0.112945 36745.4
0.119418 32056.0
0.125890 28106.5
0.134040 23984.9
0.142190 20620.9
0.150340 17854.1
0.158490 15561.0
0.168750 13202.8
0.179010 11302.6
0.189270 9755.19
0.199530 8482.70
0.200000 8429.98
0.201600 8253.85
0.203199 8082.72
0.206399 7754.74
0.212798 7151.46
0.225595 6124.66
0.238393 5290.22
0.251190 4604.79
0.267450 3899.20
0.283710 3334.90
0.299970 2877.80
0.316230 2503.27
0.336700 2121.70
0.357170 1816.50
0.377640 1569.18
0.398110 1366.43
0.423583 1161.83
0.449055 997.634
0.500000 754.411
0.501190 749.772
0.505245 734.261
0.509301 719.197
0.517411 690.342
0.533633 637.314
0.566075 547.168
0.630960 413.818
0.712645 303.035
0.794330 229.968
0.897165 169.165
1.00000 129.022
1.12947 95.6293
1.25893 73.6512
1.42191 55.5404
1.58489 43.9192
1.79008 35.0477
1.99526 30.8596
2.00000 30.8158
2.01600 30.6867
2.03199 30.5876
2.06399 30.4842
2.12797 30.6975
2.25595 33.3804
2.38392 41.5345
2.44790 49.9182
2.51189 64.3745
2.57799 92.6497
2.61104 117.113
2.64410 155.056
2.67715 217.877
2.71020 331.075
2.74325 557.351
2.75978 755.538
2.77630 1048.25
2.78848 1336.13
2.80065 1664.24
2.82500 2069.11
2.84935 1649.57
2.87370 1029.66
2.89174 715.937
2.90977 512.130
2.92781 379.314
2.94585 290.295
2.98192 184.487
3.01799 127.480
3.05406 93.6648
3.09014 72.0792
3.16228 47.1850
3.26463 30.1479
3.36698 21.5718
3.46933 16.6012
3.57168 13.4256
3.77637 9.66979
3.98107 7.54825
4.49054 4.88052
5.00000 3.60422
5.01187 3.58243
5.05242 3.50998
5.09298 3.44047
5.17408 3.30961
5.33630 3.07663
5.66072 2.70170
6.30957 2.19476
7.94328 1.62887
10.0000 1.57870
11.2946 1.84671
12.5893 2.52832
13.4042 3.43745
14.2191 5.32628
14.6266 7.14810
15.0340 10.3759
15.2377 13.0375
15.4415 17.0455
15.6452 23.5640
15.8489 35.6107
15.9353 44.4618
16.0216 58.7258
16.1080 88.6399
16.1511 124.137
16.1727 157.305
16.1943 211.630
16.2172 297.625
16.2400 357.807
16.2857 242.607
16.3131 197.733
16.3404 184.368
16.3951 202.166
16.4498 257.822
16.5046 360.669
16.5593 553.961
16.5866 717.325
16.6140 964.817
16.6413 1362.08
16.6687 2046.04
16.6961 3323.28
16.7097 4370.39
16.7234 5834.92
16.7467 9320.95
16.7700 11638.3
16.7934 9301.90
16.8167 5807.34
16.8412 3490.91
16.8657 2231.04
16.8902 1521.02
16.9147 1093.99
16.9392 821.006
16.9637 637.305
17.0127 414.588
17.0617 290.611
17.1107 214.886
17.2087 131.306
17.3067 88.7756
17.4047 64.3094
17.5027 49.0033
17.6007 38.8330
17.7967 26.6843
17.9927 20.1338
18.3847 14.2668
18.7767 13.0515
19.1686 15.3739
19.3646 18.5026
19.5606 24.1427
19.7566 34.8286
19.8546 43.9181
19.9526 57.7896
20.0000 67.2476
20.0638 84.4714
20.1276 109.752
20.1914 148.956
20.2233 177.173
20.2552 214.387
20.2871 264.840
20.3189 335.482
20.3508 438.531
20.3827 596.512
20.4146 854.793
20.4465 1312.12
20.4625 1679.33
20.4784 2203.10
20.4944 2964.46
20.5103 4065.57
20.5352 6500.67
20.5600 8120.46
20.5849 6491.10
20.6097 4054.44
20.6251 2986.97
20.6404 2239.94
20.6712 1350.75
20.7019 886.477
20.7326 621.450
20.7633 458.074
20.7940 351.067
20.8555 224.776
20.9169 156.348
20.9784 115.401
21.1013 71.4483
21.2241 50.6732
21.3470 41.9842
21.4085 42.2090
21.4699 48.2558
21.5006 55.7746
21.5314 69.5321
21.5621 95.4013
21.5928 144.762
21.6214 218.536
21.6500 267.373
21.6786 216.549
21.7072 140.968
21.7316 97.8546
21.7560 71.3984
21.7804 54.8876
21.8048 44.1260
21.8536 31.5211
21.9024 24.6638
22.0001 17.6229
22.0977 14.0722
22.2929 10.5329
22.4882 8.97278
22.6834 8.67670
22.8786 10.3442
22.9763 13.0762
23.0251 15.6235
23.0739 19.7563
23.1227 26.9337
23.1715 40.6715
23.1959 52.5413
23.2203 70.6733
23.2447 99.3338
23.2691 144.951
23.2996 229.201
23.3300 285.224
23.3605 228.801
23.3909 144.371
23.4179 94.9483
23.4449 65.4002
23.4719 47.4501
23.4989 36.0466
23.5529 23.1910
23.6069 16.5990
23.6609 12.8088
23.7149 10.4420
23.8229 7.78412
24.0389 5.70967
24.2549 5.21514
24.4709 5.62545
24.6869 7.28801
24.7949 9.07265
24.9029 12.2562
25.0109 18.5318
25.0649 24.1685
25.1189 33.2826
25.1783 51.6385
25.2080 67.4228
25.2377 91.8688
25.2675 132.400
25.2972 205.680
25.3120 265.712
25.3269 353.035
25.3418 482.854
25.3566 675.407
25.3675 863.777
25.3783 1078.93
25.4000 1347.40
25.4109 1268.01
25.4217 1077.93
25.4434 674.159
25.4675 394.538
25.4917 247.605
25.5158 166.933
25.5400 119.286
25.5641 89.2149
25.5882 69.1646
25.6365 45.0783
25.6848 31.7779
25.7331 23.6935
25.8296 14.7974
25.9262 10.2695
26.0227 7.65235
26.2158 4.88799
26.4089 3.52154
26.6020 2.73791
26.9883 1.90211
27.3745 1.47472
27.7607 1.21846
28.5331 0.927544
30.0779 0.669734
31.6228 0.563573
33.6698 0.521974
35.7168 0.566033
36.7403 0.635552
37.7637 0.779883
38.2755 0.921956
38.7872 1.20077
39.0431 1.47274
39.2990 1.98461
39.4269 2.44240
39.5549 3.19662
39.6828 4.58881
39.7468 5.78252
39.8107 7.64039
39.8866 11.5813
39.9246 14.9577
39.9625 20.1760
40.0005 28.8101
40.0384 44.3881
40.0574 57.1325
40.0764 75.6353
40.0953 103.098
40.1143 143.800
40.1422 229.525
40.1700 286.663
40.1979 229.388
40.2257 143.639
40.2565 84.5797
40.2873 53.4617
40.3181 36.3429
40.3489 26.2234
40.3797 19.8315
40.4105 15.5717
40.4721 10.4593
40.5337 7.64768
40.5953 5.94978
40.7184 4.11001
40.8416 3.20868
40.9648 2.72153
41.2112 2.29663
41.7039 2.29622
42.1966 2.89706
42.6893 4.37201
42.9357 5.83891
43.1821 8.45794
43.3052 10.6163
43.4284 13.8432
43.5516 18.9849
43.6748 27.9280
43.7980 45.6037
43.8596 61.7503
43.9211 88.4559
43.9519 108.867
43.9827 137.216
44.0135 178.141
44.0443 240.012
44.0751 339.215
44.1059 509.949
44.1213 643.267
44.1367 828.784
44.1521 1090.26
44.1675 1456.18
44.1938 2329.16
44.2200 2911.44
44.2463 2328.92
44.2725 1455.37
44.2900 1048.46
44.3074 771.518
44.3424 452.903
44.3773 292.332
44.4122 202.783
44.4471 148.430
44.4821 113.214
44.5519 72.0776
44.6218 49.9933
44.6916 36.8332
44.8313 22.6491
44.9710 15.6138
45.1107 11.6563
45.3901 7.68846
45.6695 5.96970
45.9489 5.23980
46.5078 5.35398
46.7872 6.08878
47.0666 7.45138
47.3460 9.86298
47.6254 14.3486
47.7651 18.1112
47.9048 23.7861
48.0445 32.8929
48.1143 39.6574
48.1842 48.8296
48.2541 61.6973
48.3239 80.5266
48.3938 109.629
48.4636 157.997
48.4985 195.131
48.5335 246.921
48.5684 322.077
48.6033 436.497
48.6382 621.719
48.6732 944.956
48.6906 1200.86
48.7081 1561.13
48.7255 2076.22
48.7430 2808.82
48.7715 4492.51
48.8000 5614.59
48.8285 4491.14
48.8570 2806.51
48.8749 2059.75
48.8927 1539.22
48.9284 923.343
48.9642 603.779
48.9999 422.095
49.0356 310.418
49.0713 237.368
49.1428 151.267
49.2142 104.608
49.2856 76.6098
49.4285 46.1935
49.5714 30.9288
49.7143 22.2107
49.8571 16.7712
50.0000 13.1535
50.1187 10.9975
50.3749 7.89723
50.6310 6.00995
51.1433 3.94021
51.6556 2.91163
52.1679 2.35442
53.1925 1.91084
54.2171 1.99821
55.2417 2.70098
55.7540 3.51620
56.2663 5.05369
56.5225 6.35870
56.7786 8.34827
57.0348 11.5862
57.2909 17.3670
57.4190 22.1281
57.5471 29.2323
57.6751 40.5078
57.7392 48.8069
57.8032 59.9715
57.8673 75.4876
57.9313 97.9260
57.9953 132.062
58.0594 187.541
58.0914 229.219
58.1234 286.204
58.1554 366.760
58.1874 485.242
58.2195 668.187
58.2515 966.831
58.2835 1483.27
58.3155 2401.16
58.3478 3840.46
58.3800 4798.72
58.4123 3837.65
58.4445 2397.96
58.4808 1392.19
58.5172 868.029
58.5535 581.992
58.5899 413.762
58.6262 307.902
58.6625 237.478
58.7352 153.076
58.8079 106.598
58.8806 78.4141
59.0259 47.4929
59.1713 31.8361
59.3166 22.8422
59.4620 17.2086
59.6073 13.4500
59.8980 8.90620
60.1887 6.37158
60.4794 4.81727
60.7701 3.79805
61.3515 2.59425
61.9329 1.95076
62.5143 1.58726
63.0957 1.39302
63.9741 1.35569
64.4133 1.48767
64.8525 1.81827
65.2917 2.61147
65.5113 3.42403
65.7308 4.90587
65.8406 6.14382
65.9504 8.01158
66.0602 11.0160
66.1700 16.2961
66.2798 26.8753
66.3347 36.6679
66.3896 53.0835
66.4445 83.6745
66.4720 109.888
66.4994 150.381
66.5269 217.233
66.5543 337.417
66.5680 435.362
66.5818 576.980
66.5955 786.131
66.6092 1094.35
66.6296 1749.72
66.6500 2186.89
66.6704 1750.64
66.6908 1094.82
66.7033 810.161
66.7157 609.833
66.7406 369.656
66.7655 243.379
66.7904 170.980
66.8152 126.190
66.8401 96.7655
66.8899 61.9395
66.9397 42.9877
66.9895 31.5855
67.0890 19.1636
67.1885 12.9119
67.2881 9.33344
67.3876 7.09646
67.4872 5.60561
67.6863 3.80326
67.8854 2.79596
68.2836 1.76620
68.6818 1.27512
69.0799 1.00213
69.8763 0.724314
70.6727 0.594505
71.4691 0.527312
73.0618 0.481368
74.6546 0.509470
76.2473 0.625645
77.0437 0.745458
77.8401 0.951989
78.6365 1.34538
79.0346 1.69115
79.4328 2.24398
79.9286 3.56852
80.1765 4.82709
80.4244 7.02022
80.6723 11.4106
80.7963 15.5088
80.9202 22.4926
81.0442 35.9318
81.1061 47.9062
81.1681 67.2297
81.2301 101.324
81.2611 128.978
81.2921 169.427
81.3231 231.456
81.3540 331.783
81.3850 503.302
81.4160 803.802
81.4480 1283.96
81.4800 1604.57
81.5120 1285.13
81.5440 805.240
81.5662 573.938
81.5884 419.149
81.6106 315.699
81.6328 245.018
81.6772 159.535
81.7216 113.054
81.7660 85.7926
81.8104 69.0850
81.8992 52.9632
81.9880 51.8036
82.0324 57.2222
82.0768 69.1774
82.1212 93.2722
82.1656 144.498
82.1878 192.248
82.2100 270.323
82.2322 404.813
82.2544 642.013
82.2772 1020.01
82.3000 1272.03
82.3228 1018.98
82.3456 639.770
82.3653 421.998
82.3850 290.032
82.4047 208.939
82.4244 156.950
82.4639 97.7526
82.5033 67.0467
82.5427 49.1922
82.5821 37.9087
82.6609 24.9436
82.7398 17.9993
82.8186 13.8085
82.9763 9.14701
83.1339 6.70056
83.2916 5.23721
83.6069 3.63390
83.9223 2.83319
84.2376 2.40823
84.8683 2.15578
85.4989 2.54821
85.8143 3.12555
86.1296 4.25354
86.4449 6.67336
86.6026 9.01868
86.7602 13.1194
86.9179 21.2409
86.9967 28.6552
87.0756 40.8952
87.1544 63.1673
87.1938 81.7825
87.2332 109.808
87.2727 154.469
87.2924 187.189
87.3121 230.669
87.3318 289.659
87.3515 371.118
87.3712 484.891
87.3909 642.602
87.4255 1027.80
87.4600 1284.65
87.4773 1209.00
87.4946 1027.65
87.5291 642.288
87.5642 392.263
87.5994 253.650
87.6345 174.381
87.6697 126.209
87.7048 95.1832
87.7399 74.1885
87.8102 48.5888
87.8805 34.2563
87.9508 25.4663
88.0913 15.7218
88.2319 10.7386
88.3725 7.85765
88.6536 4.83176
88.9347 3.36119
89.2158 2.54021
89.7781 1.71271
90.3403 1.33915
90.9025 1.15789
92.0270 1.06959
93.1515 1.24047
93.7137 1.46420
94.2760 1.87915
94.8382 2.73738
95.1193 3.55913
95.4004 5.00266
95.6816 7.93066
95.8221 10.7008
95.9627 15.4833
96.1032 24.8475
96.1735 33.3249
96.2438 47.2179
96.3141 72.2441
96.3492 92.9585
96.3844 123.858
96.4195 172.462
96.4546 253.924
96.4898 400.170
96.5249 673.153
96.5575 1076.09
96.5900 1345.96
96.6226 1078.42
96.6551 674.837
96.6812 455.743
96.7074 318.209
96.7335 231.201
96.7596 174.225
96.8119 108.084
96.8642 73.2767
96.9164 52.9524
96.9687 40.1394
97.0732 25.5798
97.1778 17.9878
97.2823 13.5706
97.4913 8.98065
97.7004 6.88104
97.9094 5.88713
98.3276 5.56542
98.7457 6.97284
98.9547 8.64444
99.1638 11.5922
99.2683 13.9077
99.3728 17.1752
99.4774 21.9699
99.5819 29.3801
99.6864 41.6744
99.7387 51.0935
99.7910 64.2114
99.8432 83.2237
99.8955 112.172
99.9477 159.162
100.000 242.094
100.033 329.164
100.065 468.155
100.098 701.168
100.130 1099.40
100.165 1753.38
100.200 2188.82
100.235 1755.89
100.270 1101.09
100.309 646.298
100.348 406.104
100.386 273.827
100.425 195.560
100.464 146.105
100.503 113.108
100.580 73.4437
100.658 51.5465
100.736 38.2454
100.891 23.6389
101.046 16.2460
101.201 12.0115
101.512 7.63711
101.822 5.59527
102.132 4.55192
102.753 3.86312
103.374 4.42388
103.684 5.35121
103.995 7.17865
104.150 8.73793
104.305 11.1022
104.383 12.7629
104.460 14.9052
104.538 17.7316
104.615 21.5640
104.693 26.9383
104.771 34.8002
104.848 46.9444
104.926 67.1134
104.965 82.5848
105.003 104.156
105.042 135.427
105.081 183.004
105.120 259.898
105.159 393.880
105.178 499.702
105.197 648.522
105.217 860.925
105.236 1160.67
105.268 1860.84
105.300 2326.13
105.332 1853.86
105.364 1155.02
105.400 672.437
105.436 420.623
105.471 282.947
105.507 201.848
105.543 150.755
105.579 116.737
105.650 75.9330
105.722 53.4618
105.794 39.8437
105.937 24.9510
106.080 17.4870
106.223 13.2949
106.510 9.27260
106.796 8.12687
106.939 8.41860
107.082 9.58441
107.226 12.5338
107.297 15.4763
107.369 20.5856
107.440 30.4208
107.476 39.0778
107.512 52.7908
107.548 76.2279
107.584 120.583
107.601 158.640
107.619 216.510
107.637 307.452
107.655 450.165
107.678 715.035
107.700 890.971
107.723 715.899
107.745 450.765
107.766 287.644
107.787 192.953
107.808 136.570
107.829 101.300
107.871 62.1042
107.913 42.3991
107.955 31.1856
107.997 24.2707
108.081 16.5661
108.166 12.6539
108.250 10.4479
108.418 8.32637
108.754 7.59777
109.091 9.15031
109.427 13.6382
109.595 18.2193
109.763 26.3775
109.932 42.7990
110.016 58.0028
110.100 83.4627
110.184 130.774
110.226 171.250
110.268 233.425
110.310 335.869
110.352 518.387
110.373 666.036
110.394 878.342
110.415 1189.67
110.436 1645.28
110.468 2640.08
110.500 3313.02
110.532 2651.38
110.564 1653.69
110.601 941.860
110.639 579.886
110.676 385.829
110.713 273.289
110.750 202.830
110.788 156.241
110.862 100.791
110.937 70.3873
111.011 52.0422
111.160 31.9830
111.309 21.8594
111.458 16.0724
111.757 10.0803
112.055 7.25405
112.353 5.76680
112.949 4.59360
113.545 4.83508
113.843 5.57695
114.142 7.12601
114.440 10.5112
114.589 13.8001
114.738 19.5421
114.887 30.9017
114.961 41.2501
115.036 58.3085
115.111 89.3406
115.148 115.251
115.185 154.107
115.222 216.068
115.260 321.263
115.297 515.038
115.315 671.235
115.334 887.546
115.367 1424.11
115.400 1785.62
115.433 1426.81
115.466 889.466
115.487 651.173
115.508 485.865
115.549 291.281
115.591 190.814
115.632 133.870
115.674 98.9417
115.716 76.1300
115.799 49.3109
115.882 34.7923
115.965 26.1047
116.131 16.7238
116.298 12.0761
116.464 9.48663
116.797 6.97599
117.130 6.03093
117.462 5.83000
118.128 6.87888
118.460 8.20151
118.793 10.3745
119.126 14.0176
119.292 16.7804
119.458 20.5678
119.625 25.9431
119.791 33.8994
119.957 46.3810
120.124 67.5100
120.207 84.0356
120.290 107.486
120.373 142.268
120.456 196.762
120.540 288.827
120.623 459.636
120.664 603.621
120.706 818.666
120.748 1149.00
120.789 1656.04
120.845 2641.26
120.900 3293.52
120.956 2628.67
121.012 1638.24
121.050 1169.33
121.088 854.486
121.127 642.120
121.165 496.464
121.241 318.297
121.317 219.784
121.393 160.217
121.470 121.790
121.622 77.0031
121.775 53.0017
121.927 38.7159
122.232 23.2949
122.537 15.5973
122.842 11.2158
123.147 8.48676
123.452 6.67315
124.062 4.48911
124.672 3.27674
125.283 2.53756
125.893 2.05756
127.049 1.52589
128.206 1.25717
130.520 1.12021
131.677 1.21406
132.833 1.46947
133.990 2.10134
134.279 2.42814
134.569 3.00594
134.713 3.57115
134.858 4.78732
134.930 6.13903
135.002 9.11272
135.039 12.2160
135.075 18.1228
135.093 23.2771
135.111 31.2520
135.129 44.0926
135.147 64.8666
135.169 101.984
135.190 126.783
135.212 102.066
135.233 65.0173
135.253 42.2244
135.274 29.1574
135.294 21.4527
135.314 16.6740
135.355 11.4271
135.396 8.84536
135.477 6.58216
135.558 5.74428
135.721 5.37695
135.883 5.64171
136.208 7.07337
136.534 9.84408
136.696 12.0924
136.859 15.3788
137.021 20.4763
137.184 29.0805
137.265 35.8577
137.346 45.6076
137.428 60.4322
137.509 84.6612
137.590 128.647
137.631 165.565
137.672 221.372
137.712 311.545
137.753 468.073
137.793 765.606
137.814 1014.24
137.834 1368.21
137.867 2182.67
137.900 2745.23
137.933 2219.57
137.966 1398.93
137.990 985.043
138.014 714.368
138.038 536.063
138.062 416.775
138.110 275.261
138.158 200.930
138.205 159.228
138.253 135.767
138.301 123.900
138.325 121.305
138.349 120.680
138.373 121.990
138.397 125.281
138.421 130.747
138.445 138.631
138.469 149.453
138.493 163.787
138.517 182.636
138.541 207.409
138.565 240.349
138.588 284.339
138.612 344.661
138.636 428.561
138.660 549.392
138.684 726.810
138.708 994.126
138.732 1396.29
138.766 2220.40
138.800 2757.14
138.834 2195.23
138.868 1375.96
138.892 975.625
138.916 711.159
138.941 536.388
138.965 418.234
139.013 278.032
139.062 206.203
139.110 171.903
139.158 168.971
139.183 183.819
139.207 218.290
139.231 289.047
139.255 427.514
139.266 524.981
139.278 635.022
139.300 769.189
139.323 623.729
139.345 408.140
139.361 300.096
139.377 227.621
139.409 145.192
139.442 103.388
139.474 79.4071
139.538 53.8508
139.603 40.6743
139.731 27.2426
139.860 20.3833
140.118 13.4529
140.375 10.0887
140.633 8.24776
140.890 7.23758
141.406 6.77052
141.921 8.31902
142.178 10.4006
142.436 14.3932
142.565 17.7627
142.693 22.8294
142.758 26.3614
142.822 30.8869
142.887 36.8076
142.951 44.7357
143.015 55.7145
143.080 71.4809
143.144 95.2277
143.209 133.270
143.241 161.436
143.273 199.435
143.305 252.240
143.337 328.219
143.370 442.050
143.402 620.413
143.434 911.981
143.466 1392.99
143.503 2225.21
143.540 2768.36
143.577 2204.74
143.614 1376.71
143.651 847.953
143.688 551.923
143.725 381.214
143.762 277.051
143.799 209.435
143.836 163.525
143.910 107.403
143.984 75.8164
144.058 56.4185
144.206 34.8470
144.353 23.7740
144.501 17.3588
144.649 13.3158
144.797 10.6085
145.093 7.32532
145.389 5.50482
145.980 3.75468
146.572 3.24048
146.867 3.36793
147.163 3.90715
147.459 5.33173
147.607 6.80696
147.755 9.46354
147.902 14.8691
147.976 19.9118
148.050 28.3885
148.124 44.2656
148.161 57.9171
148.198 78.9966
148.235 114.001
148.272 177.009
148.291 228.660
148.309 303.675
148.328 414.925
148.346 578.369
148.373 919.641
148.400 1145.44
148.428 913.499
148.455 568.222
148.486 330.120
148.517 206.545
148.547 138.836
148.578 99.1111
148.609 74.0083
148.640 57.3499
148.701 37.3231
148.763 26.2810
148.824 19.5747
148.947 12.2053
149.070 8.45552
149.193 6.29148
149.439 4.01347
149.685 2.89435
149.931 2.25919
150.423 1.59689
150.914 1.27698
151.406 1.10551
152.390 0.983836
153.374 1.08977
153.866 1.27512
154.358 1.65316
154.849 2.49322
155.095 3.33112
155.341 4.83854
155.464 6.08765
155.587 7.96055
155.710 10.9505
155.833 16.1476
155.956 26.4085
156.018 35.7529
156.079 51.1133
156.110 62.8361
156.141 79.0009
156.171 102.275
156.202 137.086
156.233 192.464
156.248 232.865
156.264 285.976
156.279 358.046
156.294 456.185
156.310 592.917
156.325 779.364
156.353 1241.16
156.380 1545.31
156.408 1238.28
156.435 776.993
156.467 444.499
156.499 274.293
156.531 182.693
156.563 129.338
156.596 95.9927
156.628 73.9191
156.692 47.5920
156.756 33.1654
156.820 24.4432
156.949 14.9013
157.077 10.0818
157.205 7.31751
157.334 5.58780
157.462 4.43475
157.719 3.04260
157.976 2.26788
158.489 1.48691
158.882 1.19349
159.274 1.02089
160.058 0.861901
160.842 0.848420
161.626 0.966267
162.410 1.31366
162.803 1.67935
163.195 2.34831
163.587 3.75039
163.783 5.10795
163.979 7.49752
164.175 12.3094
164.273 16.7869
164.371 24.3444
164.469 38.5955
164.518 50.9384
164.567 70.2322
164.616 102.631
164.665 162.383
164.690 212.333
164.714 286.406
164.739 399.207
164.763 571.260
164.797 912.772
164.830 1140.90
164.864 914.298
164.897 572.373
164.920 408.517
164.943 298.192
164.966 224.034
164.989 173.272
165.035 111.046
165.081 76.7238
165.127 55.9769
165.173 42.6177
165.265 27.0700
165.356 18.7436
165.448 13.7971
165.632 8.47106
165.816 5.83259
165.999 4.35266
166.367 2.88855
166.734 2.32697
167.102 2.35653
167.285 2.75253
167.377 3.18707
167.469 3.97105
167.561 5.54060
167.607 6.96860
167.653 9.30980
167.699 13.5306
167.745 22.1781
167.768 30.2935
167.791 43.7421
167.814 67.7544
167.837 111.797
167.847 142.748
167.858 178.112
167.880 222.030
167.902 177.751
167.924 111.771
167.948 65.8339
167.972 41.8373
167.996 28.6230
168.021 20.8609
168.045 15.9479
168.069 12.6915
168.117 8.78929
168.166 6.64697
168.214 5.36466
168.311 4.00035
168.408 3.37482
168.505 3.09386
168.699 3.08685
168.893 3.71531
168.990 4.41328
169.087 5.64652
169.183 8.06192
169.232 10.2418
169.280 13.7958
169.329 20.2015
169.353 25.4952
169.377 33.4004
169.402 45.9296
169.426 66.9553
169.450 104.968
169.462 135.225
169.474 176.623
169.485 225.696
169.496 281.210
169.518 350.409
169.540 280.685
169.562 176.702
169.587 104.968
169.611 67.0638
169.635 46.1854
169.660 33.8440
169.684 26.0659
169.708 20.8992
169.757 14.7640
169.805 11.4565
169.854 9.54202
169.951 7.69587
170.145 7.26319
170.339 9.10530
170.533 13.9444
170.631 18.6859
170.728 26.8223
170.825 42.3179
170.873 55.8631
170.922 77.1183
170.970 113.162
171.019 180.223
171.043 236.997
171.068 322.080
171.092 453.311
171.116 655.170
171.148 1042.85
171.180 1299.09
171.213 1035.97
171.245 644.646
171.273 422.192
171.301 288.190
171.329 205.673
171.357 153.052
171.413 93.1882
171.469 62.3203
171.525 44.5229
171.580 33.3871
171.692 20.8057
171.804 14.2544
171.916 10.4211
172.139 6.34853
172.363 4.34567
172.587 3.21696
173.034 2.06420
173.481 1.52992
173.928 1.25703
174.823 1.07704
175.717 1.23050
176.164 1.48458
176.611 1.98922
177.059 3.08270
177.282 4.15140
177.506 6.03783
177.729 9.83181
177.841 13.3552
177.953 19.2829
178.065 30.3839
178.121 39.9466
178.177 54.7981
178.232 79.5043
178.260 98.4116
178.288 124.418
178.316 161.491
178.344 215.487
178.372 296.162
178.400 416.507
178.420 532.048
178.440 663.567
178.480 827.010
178.500 777.433
178.521 659.813
178.561 410.939
178.601 253.292
178.641 164.970
178.682 114.006
178.722 82.8887
178.762 62.6884
178.802 48.9698
178.882 32.1964
178.963 22.7577
179.043 16.9626
179.204 10.5217
179.365 7.22592
179.525 5.32352
179.847 3.33945
180.168 2.39698
180.489 1.89911
181.132 1.50850
181.775 1.61009
182.096 1.88994
182.417 2.47831
182.739 3.78405
182.900 5.07114
183.060 7.34978
183.221 11.9470
183.301 16.2264
183.382 23.4249
183.462 36.9418
183.502 48.6049
183.542 66.6913
183.582 96.9018
183.623 151.813
183.643 197.266
183.663 263.924
183.683 364.024
183.703 513.408
183.731 821.417
183.760 1027.00
183.789 821.596
183.817 513.484
183.843 328.613
183.870 220.004
183.896 154.976
183.922 114.119
183.974 68.5831
184.027 45.5087
184.079 32.3528
184.132 24.1849
184.236 15.0257
184.341 10.2915
184.446 7.53577
184.656 4.62444
184.865 3.20037
185.075 2.40202
185.494 1.59283
185.913 1.22287
186.332 1.03857
187.170 0.931339
188.009 1.06501
188.428 1.25903
188.847 1.63003
189.266 2.41475
189.476 3.17484
189.685 4.51608
189.895 7.23979
190.000 9.80769
190.104 14.2069
190.209 22.7197
190.262 30.3148
190.314 42.5605
190.366 64.0794
190.393 81.4402
190.419 106.688
190.445 145.060
190.471 206.371
190.497 309.300
190.524 484.707
190.552 775.471
190.580 968.060
190.608 773.760
190.637 484.192
190.665 296.112
190.694 191.751
190.723 132.030
190.751 95.8209
190.780 72.3964
190.809 56.5918
190.866 37.2733
190.923 26.4443
190.981 19.8228
191.095 12.5015
191.210 8.78255
191.324 6.66345
191.554 4.51734
191.783 3.58902
192.012 3.20909
192.471 3.35553
192.700 3.83601
192.929 4.70267
193.159 6.21570
193.388 8.99567
193.503 11.3059
193.617 14.7541
193.732 20.2204
193.847 29.5964
193.904 37.0344
193.961 47.7001
194.019 63.7701
194.076 89.5361
194.133 134.420
194.162 170.379
194.190 222.033
194.219 299.897
194.248 421.922
194.276 623.195
194.305 957.934
194.338 1533.56
194.370 1917.17
194.403 1532.22
194.435 956.762
194.455 706.942
194.475 531.413
194.515 321.603
194.554 211.552
194.594 148.646
194.634 109.663
194.674 84.0724
194.753 53.8253
194.833 37.3522
194.912 27.4532
195.071 16.6614
195.231 11.2304
195.390 8.12147
195.549 6.17814
195.708 4.88331
196.026 3.32011
196.344 2.44981
196.981 1.57146
197.617 1.16985
198.253 0.967605
199.526 0.842246
200.000 0.863289
200.661 0.973960
201.321 1.30331
201.652 1.72779
201.817 2.12920
201.982 2.82809
202.147 4.23176
202.230 5.54541
202.312 7.78194
202.395 12.0775
202.436 15.8813
202.478 21.9673
202.519 32.5439
202.560 53.1236
202.581 71.3703
202.602 99.8338
202.622 146.350
202.643 223.448
202.666 357.222
202.690 445.895
202.714 356.603
202.737 223.430
202.757 147.791
202.778 101.596
202.798 73.0434
202.818 54.6747
202.858 33.7260
202.898 22.9018
202.938 16.6305
202.978 12.7133
203.059 8.28501
203.139 5.98965
203.219 4.65842
203.380 3.27501
203.540 2.63291
203.701 2.30930
204.022 2.08760
204.343 2.15809
204.665 2.49047
204.825 2.85396
204.986 3.63731
205.066 4.50332
205.146 6.42098
205.187 8.45620
205.227 12.4362
205.247 16.0154
205.267 21.7337
205.287 31.3497
205.307 47.7661
205.329 74.7890
205.350 92.8251
205.372 74.8609
205.393 47.8996
205.416 29.8212
205.439 20.0858
205.462 14.6516
205.485 11.4257
205.530 8.01338
205.576 6.40723
205.668 5.08484
205.759 4.67214
205.942 4.70146
206.125 5.21986
206.308 6.13412
206.491 7.73864
206.582 9.18018
206.674 11.9330
206.720 14.6447
206.765 19.8437
206.788 24.5637
206.811 32.2598
206.834 45.8550
206.857 70.6507
206.878 107.729
206.900 132.574
206.922 108.268
206.943 71.6716
206.966 47.5457
206.988 34.5387
207.011 27.3432
207.034 23.1526
207.079 19.0262
207.124 17.4519
207.305 18.5490
207.485 24.3078
207.576 28.8730
207.666 35.0715
207.757 43.6847
207.847 56.0392
207.937 74.5613
208.028 103.958
208.118 154.500
208.163 194.330
208.208 250.798
208.254 334.214
208.299 462.190
208.344 665.692
208.389 991.028
208.445 1584.29
208.500 1975.17
208.556 1576.12
208.611 984.438
208.675 563.207
208.740 347.718
208.804 231.668
208.869 164.015
208.933 121.703
208.997 93.6761
209.126 60.2248
209.255 41.8798
209.384 30.7820
209.641 18.6331
209.899 12.4920
210.157 8.96725
210.414 6.76035
210.672 5.28877
211.187 3.50969
211.702 2.51866
212.217 1.91301
212.732 1.51954
213.763 1.07440
214.793 0.908963
215.308 0.953369
215.566 1.04687
215.823 1.24786
216.081 1.70440
216.210 2.15958
216.338 2.97024
216.467 4.60979
216.532 6.13586
216.596 8.70523
216.660 13.5172
216.693 17.6605
216.725 24.0911
216.757 34.7773
216.789 54.1736
216.805 70.1256
216.821 93.4143
216.838 128.191
216.854 179.682
216.877 287.449
216.900 358.962
216.923 287.083
216.947 179.763
216.961 132.803
216.975 99.8377
217.004 60.4905
217.032 39.8865
217.061 28.1005
217.090 20.8250
217.118 16.0509
217.175 10.4122
217.232 7.33991
217.290 5.49180
217.404 3.47941
217.518 2.46458
217.633 1.88327
217.861 1.27621
218.090 0.983336
218.319 0.822637
218.776 0.677265
219.233 0.664650
219.691 0.832141
219.920 1.11018
220.034 1.38877
220.148 1.88374
220.263 2.88106
220.320 3.80428
220.377 5.34540
220.434 8.20679
220.463 10.6448
220.491 14.3714
220.520 20.4851
220.548 31.3259
220.577 52.4765
220.591 70.5632
220.606 96.5365
220.628 154.381
220.650 192.732
220.672 154.131
220.695 96.5480
220.709 70.4120
220.723 52.3655
220.752 31.2596
220.780 20.4381
220.809 14.3495
220.837 10.6102
220.866 8.18041
220.923 5.31817
220.980 3.77094
221.037 2.84340
221.151 1.83565
221.266 1.32869
221.380 1.03844
221.608 0.734699
221.837 0.586514
222.065 0.503011
222.522 0.417365
223.436 0.359988
224.349 0.359408
225.263 0.405733
225.720 0.460629
226.177 0.563333
226.634 0.781482
226.862 0.995172
227.091 1.37727
227.319 2.16743
227.433 2.92551
227.547 4.25028
227.662 6.88556
227.719 9.30814
227.776 13.3412
227.833 20.7756
227.862 27.0891
227.890 36.6972
227.919 52.3653
227.947 79.7768
227.961 101.661
227.976 132.665
227.990 177.297
228.004 240.706
228.016 308.367
228.027 384.996
228.050 481.045
228.062 452.395
228.073 384.661
228.096 240.427
228.117 151.982
228.139 100.828
228.161 70.5803
228.182 51.8191
228.225 31.0110
228.268 20.5430
228.311 14.6018
228.355 10.9246
228.441 6.81397
228.527 4.69611
228.613 3.46646
228.786 2.17125
228.958 1.54100
229.130 1.18997
229.475 0.837480
229.820 0.678618
230.165 0.599785
230.855 0.545018
232.234 0.603854
233.613 0.819214
234.303 1.01531
234.993 1.31899
235.683 1.81677
236.372 2.70848
236.717 3.44412
237.062 4.54265
237.407 6.28864
237.752 9.30688
237.924 11.7182
238.097 15.2091
238.269 20.5310
238.441 29.2076
238.614 44.7168
238.700 57.4324
238.786 76.2264
238.872 105.416
238.959 153.469
239.045 237.550
239.131 389.315
239.216 622.369
239.300 777.579
239.385 622.304
239.469 389.163
239.549 246.233
239.628 163.387
239.708 114.329
239.787 83.7889
239.946 49.9707
240.105 32.9728
240.264 23.3219
240.423 17.3548
240.741 10.6858
241.059 7.25501
241.376 5.26867
241.694 4.02279
242.012 3.19702
242.648 2.23627
243.284 1.82093
243.602 1.81754
243.920 2.14114
244.079 2.67203
244.158 3.19457
244.238 4.10204
244.317 5.86694
244.357 7.43732
244.396 9.95852
244.436 14.3710
244.476 22.9859
244.496 30.6655
244.516 42.7069
244.536 62.6535
244.555 95.8725
244.567 122.420
244.578 152.733
244.600 190.254
244.622 152.182
244.645 95.6572
244.671 54.5484
244.698 33.9201
244.724 22.8956
244.751 16.5464
244.778 12.5851
244.804 9.98549
244.857 6.90310
244.910 5.23014
244.963 4.23692
245.069 3.20111
245.176 2.75080
245.282 2.58468
245.494 2.77455
245.706 3.74665
245.812 4.79953
245.918 6.69242
246.025 10.4954
246.078 13.9835
246.131 19.7364
246.184 30.2182
246.210 38.9514
246.237 52.0751
246.263 73.0201
246.290 108.507
246.316 173.473
246.330 226.000
246.343 297.930
246.355 381.247
246.367 476.375
246.390 594.344
246.414 475.160
246.437 297.575
246.452 219.337
246.466 164.868
246.495 99.8525
246.524 65.7129
246.553 46.2629
246.582 34.2172
246.611 26.3420
246.670 17.0101
246.728 11.9364
246.786 8.88289
246.902 5.55498
247.018 3.87395
247.134 2.90828
247.367 1.89679
247.599 1.40454
247.831 1.13080
248.296 0.870326
248.761 0.813057
248.993 0.859019
249.225 0.993614
249.458 1.32540
249.574 1.66259
249.690 2.26473
249.806 3.48106
249.864 4.60787
249.922 6.48897
249.980 9.98016
250.010 12.9593
250.039 17.5141
250.068 24.9871
250.097 38.1776
250.126 63.8380
250.140 85.7231
250.155 117.353
250.166 150.285
250.177 187.582
250.200 234.310
250.223 187.356
250.245 117.165
250.260 85.0416
250.275 63.1147
250.304 37.5042
250.334 24.4437
250.363 17.1198
250.393 12.6328
250.422 9.71329
250.481 6.29309
250.540 4.44396
250.599 3.33841
250.717 2.13685
250.835 1.53302
250.953 1.18695
251.189 0.825054
251.424 0.649460
251.660 0.551747
252.131 0.457723
252.602 0.429122
253.073 0.446393
253.544 0.529815
253.779 0.621991
254.015 0.789254
254.250 1.12792
254.368 1.44260
254.486 1.97300
254.603 2.98117
254.662 3.87251
254.721 5.30770
254.780 7.87245
254.809 9.99571
254.839 13.1971
254.868 18.3797
254.898 27.4665
254.927 45.2350
254.942 60.5945
254.956 83.1223
254.978 130.777
255.000 163.120
255.022 133.649
255.044 89.4359
255.058 70.3997
255.072 58.6496
255.100 50.6303
255.128 59.5771
255.142 71.9467
255.156 91.8027
255.178 137.686
255.200 168.209
255.222 134.855
255.244 85.6593
255.262 57.5680
255.281 40.3002
255.299 29.5295
255.318 22.5530
255.355 14.3995
255.392 10.0679
255.429 7.48413
255.467 5.82386
255.541 3.87485
255.615 2.80977
255.689 2.16221
255.838 1.44519
255.986 1.07700
256.135 0.864577
256.432 0.646913
256.729 0.552938
257.026 0.517303
257.620 0.550936
258.214 0.740810
258.511 0.951848
258.808 1.34294
258.957 1.67163
259.106 2.16839
259.254 2.96878
259.403 4.37814
259.551 7.21176
259.625 9.84304
259.700 14.2624
259.774 22.5474
259.811 29.6728
259.848 40.7318
259.885 59.1778
259.922 92.6145
259.941 120.224
259.960 160.344
259.978 220.643
259.997 310.198
260.023 495.892
260.050 619.108
260.077 495.001
260.103 309.477
260.126 206.494
260.148 142.756
260.170 102.916
260.192 77.1584
260.236 47.3694
260.280 31.8470
260.324 22.8043
260.368 17.1295
260.457 10.6786
260.545 7.30620
260.633 5.32893
260.722 4.07275
260.810 3.22597
260.986 2.19182
261.163 1.60947
261.516 1.01482
261.869 0.737496
262.223 0.592097
262.929 0.476245
263.635 0.494182
263.989 0.559784
264.342 0.697496
264.695 0.999013
264.871 1.29386
265.048 1.81588
265.225 2.87728
265.313 3.87930
265.401 5.60122
265.490 8.94253
265.534 11.9401
265.578 16.7843
265.622 25.3772
265.666 42.5471
265.688 58.2360
265.710 83.5001
265.732 126.849
265.743 159.471
265.754 202.360
265.766 259.305
265.777 323.785
265.800 404.206
265.823 323.118
265.846 202.280
265.862 141.372
265.879 101.662
265.896 75.5388
265.912 57.8963
265.946 36.7132
265.979 25.2559
266.012 18.4120
266.045 14.0497
266.112 9.02249
266.178 6.36177
266.245 4.80191
266.377 3.16444
266.510 2.40747
266.643 2.04586
266.909 1.93183
267.175 2.49565
267.308 3.19679
267.441 4.50484
267.574 7.20205
267.640 9.73093
267.707 13.9929
267.773 22.0022
267.806 28.8972
267.839 39.6049
267.873 57.4824
267.906 89.9018
267.923 116.600
267.939 155.627
267.956 213.997
267.972 301.225
267.984 385.952
267.996 481.849
268.020 601.191
268.032 565.295
268.044 480.499
268.068 300.771
268.093 180.511
268.118 115.266
268.143 78.5700
268.168 56.5985
268.194 42.4980
268.219 33.0471
268.269 21.5593
268.319 15.1608
268.370 11.2492
268.470 6.92385
268.571 4.71531
268.671 3.43831
268.772 2.63378
268.873 2.09410
269.074 1.43650
269.275 1.06586
269.678 0.683354
270.080 0.499425
270.482 0.397230
271.287 0.295343
272.092 0.251917
272.897 0.235082
274.507 0.247637
276.116 0.325693
276.921 0.411961
277.726 0.571201
278.531 0.908214
278.933 1.23853
279.336 1.83008
279.537 2.32029
279.738 3.05656
279.940 4.23720
280.141 6.30811
280.342 10.4524
280.443 14.2873
280.543 20.7179
280.644 32.7041
280.694 42.9803
280.744 58.8629
280.795 85.1064
280.845 132.345
280.870 170.966
280.895 226.695
280.920 309.474
280.946 431.210
280.983 690.211
281.020 862.474
281.057 689.822
281.095 431.444
281.120 308.810
281.145 226.225
281.170 170.444
281.195 131.964
281.246 84.7507
281.296 58.6048
281.347 42.7623
281.397 32.5396
281.498 20.6193
281.599 14.2227
281.700 10.4124
281.902 6.30371
282.103 4.25640
282.305 3.09560
282.507 2.37657
282.709 1.90323
283.112 1.34487
283.516 1.05110
284.323 0.811308
285.130 0.823826
285.533 0.927208
285.937 1.14806
286.340 1.63095
286.542 2.10201
286.744 2.93473
286.945 4.62984
287.046 6.23368
287.147 8.99461
287.248 14.3832
287.298 19.2316
287.349 27.1278
287.399 41.2537
287.424 52.8149
287.450 69.8922
287.475 96.3945
287.487 115.335
287.500 139.979
287.513 172.541
287.525 216.131
287.538 274.871
287.550 353.329
287.563 451.989
287.575 564.665
287.600 705.155
287.612 663.543
287.625 564.062
287.650 352.852
287.674 220.319
287.698 145.115
287.722 101.124
287.746 73.9510
287.770 56.1835
287.794 44.1151
287.842 29.2700
287.890 20.8779
287.938 15.7207
288.034 9.98635
288.130 7.06510
288.226 5.39642
288.418 3.70876
288.611 2.98449
288.803 2.69634
289.187 2.84459
289.572 3.94727
289.764 5.15296
289.956 7.32491
290.148 11.7031
290.244 15.7478
290.340 22.5004
290.437 34.9909
290.485 45.6249
290.533 61.8879
290.581 88.4995
290.629 135.468
290.653 173.285
290.677 226.992
290.701 304.879
290.725 417.414
290.762 667.772
290.800 835.942
290.838 669.854
290.875 419.013
290.918 241.719
290.961 150.199
291.004 100.621
291.047 71.6127
291.090 53.4296
291.133 41.3703
291.219 26.9699
291.305 19.0835
291.391 14.3323
291.563 9.19898
291.735 6.70268
291.907 5.39449
292.251 4.50950
292.595 5.22376
292.767 6.41068
292.939 8.72014
293.111 13.5264
293.197 17.9989
293.283 25.4543
293.369 39.1409
293.412 50.6611
293.455 68.1173
293.498 96.1517
293.541 144.518
293.562 182.333
293.584 235.009
293.605 309.310
293.627 412.811
293.663 659.342
293.700 819.908
293.737 652.591
293.773 407.476
293.801 281.625
293.828 200.350
293.856 147.631
293.884 112.518
293.939 70.7311
293.994 48.3082
294.049 35.0011
294.104 26.5331
294.214 16.7866
294.325 11.6154
294.435 8.55306
294.655 5.26021
294.876 3.61679
295.097 2.67932
295.538 1.70428
295.979 1.23832
296.420 0.989460
297.302 0.794562
298.184 0.863465
298.625 1.03018
299.066 1.38033
299.508 2.16165
299.728 2.93681
299.949 4.31833
300.059 5.45131
300.169 7.13204
300.280 9.77551
300.390 14.2709
300.500 22.8467
300.555 30.3811
300.610 42.2885
300.666 62.6915
300.693 78.7119
300.721 101.310
300.748 134.582
300.776 185.099
300.803 265.022
300.831 391.342
300.865 625.535
300.900 778.676
300.935 620.177
300.969 387.124
300.990 286.509
301.011 215.984
301.053 131.140
301.096 86.4543
301.138 60.7879
301.180 44.8982
301.222 34.4499
301.306 22.0793
301.390 15.3313
301.474 11.2677
301.643 6.83900
301.811 4.60648
301.979 3.32816
302.148 2.52796
302.316 1.99467
302.653 1.34991
302.989 0.990658
303.326 0.771728
303.663 0.631005
304.336 0.482180
305.009 0.470013
305.346 0.556878
305.515 0.661367
305.683 0.860568
305.851 1.28441
305.935 1.69253
306.020 2.39925
306.104 3.78007
306.146 5.02025
306.188 7.02473
306.230 10.5779
306.272 17.6850
306.293 24.1721
306.314 34.6001
306.335 52.3437
306.356 83.2523
306.378 133.200
306.400 166.277
306.422 132.917
306.444 83.2135
306.463 53.9997
306.483 36.5529
306.502 25.9663
306.522 19.2485
306.561 11.6884
306.600 7.82207
306.600 30.0924
316.228 29.5192
350.000 27.5086
398.107 25.2025
400.000 25.1117
500.000 21.5351
501.187 21.5046
600.000 18.9724
630.957 18.3859
720.000 16.6989
794.328 15.6452
850.000 14.8560
1000.00 13.2412
1250.00 11.2978
1258.93 11.2486
1500.00 9.91981
1584.89 9.55985
1700.00 9.07179
1995.26 8.09430
2000.00 8.07861
2500.00 6.89340
2511.89 6.87360
3000.00 6.06066
3162.28 5.85945
3500.00 5.44070
3981.07 4.97785
4000.00 4.95964
5000.00 4.25874
5011.87 4.25294
6000.00 3.77004
6309.57 3.65795
7000.00 3.40796
7200.00 3.34639
7943.28 3.15392
8500.00 3.00977
10000.0 2.71946
12500.0 2.37466
12589.3 2.36599
15000.0 2.13178
15848.9 2.06825
17000.0 1.98210
19952.6 1.80844
20000.0 1.80565
25000.0 1.59158
25118.9 1.58792
30000.0 1.43737
31622.8 1.39916
35000.0 1.31966
39810.7 1.22989
40000.0 1.22636
50000.0 1.08704
50118.7 1.08577
54880.5 1.03478
54880.5 1.03478
54881.1 1.03478
54881.1 1.08080
60000.0 0.982534
63095.7 0.928287
64330.9 0.906643
70000.0 0.807302
79432.8 0.689059
80000.0 0.681949
90000.0 0.596978
100000 0.558171
116464 0.504516
120000 0.492992
125893 0.473789
130000 0.460403
132295 0.452924
150000 0.395224
158489 0.384236
181388 0.354595
181389 0.354595
199526 0.331117
200000 0.330504
228771 0.315850
228771 0.315850
250000 0.305037
251189 0.304432
270000 0.294850
277774 0.290891
277774 0.290891
300000 0.279570
316228 0.270809
317025 0.270379
320000 0.268773
349482 0.252857
349482 0.252857
350000 0.252577
362314 0.247752
362314 0.247752
370000 0.244741
374391 0.243021
374391 0.243021
398107 0.233729
400000 0.232987
420000 0.226954
428738 0.224318
428738 0.224318
437222 0.221759
437223 0.221759
450000 0.217904
470000 0.211871
477681 0.209554
481948 0.208267
481948 0.208267
500000 0.202821
501187 0.202521
516297 0.198707
516298 0.198707
517978 0.198282
517978 0.198282
520000 0.197772
528224 0.195696
550000 0.190198
569638 0.185240
569638 0.185240
570000 0.185149
584735 0.181429
600000 0.177575
611495 0.175656
611496 0.175656
620000 0.174237
621972 0.173908
621972 0.173908
630957 0.172408
644677 0.170118
644677 0.170118
650000 0.169230
659915 0.167575
661938 0.167237
669275 0.166012
670000 0.165891
687622 0.162950
689403 0.162653
689403 0.162653
691084 0.162372
694435 0.161813
700000 0.160884
700474 0.160822
706613 0.160012
720000 0.158246
727547 0.157250
733706 0.156438
740000 0.155607
743750 0.155113
743750 0.155113
751802 0.154051
756260 0.153462
756260 0.153462
760000 0.152969
762872 0.152590
767562 0.151971
767562 0.151971
776278 0.150822
780000 0.150331
783866 0.149821
791052 0.148873
791052 0.148873
794328 0.148441
798500 0.147890
799104 0.147811
800000 0.147692
849657 0.141142
882637 0.136791
900000 0.134501
936984 0.129622
981599 0.123736
1.00000E+06 0.121309
1.04115E+06 0.116969
1.04467E+06 0.116598
1.10000E+06 0.110763
1.12720E+06 0.107894
1.17249E+06 0.103117
1.20000E+06 0.100216
1.23388E+06 0.0971158
1.25946E+06 0.0947752
1.30000E+06 0.0910656
1.30565E+06 0.0905486
1.31339E+06 0.0898404
1.40000E+06 0.0819152
1.50000E+06 0.0727648
1.56297E+06 0.0672865
1.57947E+06 0.0658510
1.60000E+06 0.0640650
1.61257E+06 0.0629714
1.64853E+06 0.0598429
1.66463E+06 0.0584422
1.68979E+06 0.0562534
1.70000E+06 0.0553651
1.73709E+06 0.0537967
1.80000E+06 0.0511364
1.83975E+06 0.0494555
1.89309E+06 0.0471998
1.90000E+06 0.0469076
1.91523E+06 0.0462636
1.95440E+06 0.0446072
1.96253E+06 0.0442634
1.97091E+06 0.0439090
1.97656E+06 0.0436701
1.99776E+06 0.0427736
2.00000E+06 0.0426789
2.01232E+06 0.0422842
2.05726E+06 0.0408443
2.15677E+06 0.0376561
2.19804E+06 0.0363339
2.20000E+06 0.0362711
2.23024E+06 0.0353022
2.40000E+06 0.0298632
2.50000E+06 0.0266593
2.60000E+06 0.0248122
2.80000E+06 0.0211179
3.00000E+06 0.0174236
3.50000E+06 0.0116126
4.00000E+06 0.00756874
4.50000E+06 0.00504421
5.00000E+06 0.00345434
5.50000E+06 0.00251891
6.00000E+06 0.00158347
6.40088E+06 0.00147791
6.40088E+06 0.00147791
6.50000E+06 0.00145181
6.59915E+06 0.00144455
7.00000E+06 0.00141520
7.50000E+06 0.00144043
7.80000E+06 0.00148133
8.00000E+06 0.00150860
8.08061E+06 0.00152370
8.50000E+06 0.00160225
9.00000E+06 0.00170839
9.50000E+06 0.00171803
1.00000E+07 0.00169266
1.05000E+07 0.00162217
1.10000E+07 0.00161737
1.15000E+07 0.00158645
1.20000E+07 0.00142966
1.25000E+07 0.00135480
1.30000E+07 0.00122384
1.35000E+07 0.00114378
1.40000E+07 0.00107406
1.44583E+07 0.000967142
1.45000E+07 0.000957414
1.49917E+07 0.000839833
1.49918E+07 0.000839818
1.50000E+07 0.000837848
1.55000E+07 0.000722030
1.60000E+07 0.000601481
1.65000E+07 0.000494157
1.70000E+07 0.000423970
1.75000E+07 0.000353782
1.80000E+07 0.000310822
1.85000E+07 0.000262318
1.90000E+07 0.000235251
1.91000E+07 0.000229838
1.95000E+07 0.000206605
1.99000E+07 0.000185772
2.00000E+07 0.000182258