Au-197(n,tot) ENDF/B-VII.1
Energy(eV) XS(b)
1.00000E-05 4922.36
1.25000E-05 4403.54
1.50000E-05 4020.56
2.00000E-05 3482.97
2.75000E-05 2971.46
3.50000E-05 2634.83
4.25000E-05 2391.81
5.00000E-05 2205.76
6.25000E-05 1973.74
7.50000E-05 1802.47
0.000100000 1562.06
0.000125000 1398.00
0.000150000 1276.90
0.000200000 1106.91
0.000275000 945.169
0.000350000 838.727
0.000425000 761.888
0.000500000 703.064
0.000625000 629.707
0.000750000 575.559
0.00100000 499.558
0.00125000 447.697
0.00150000 409.419
0.00200000 355.695
0.00275000 304.590
0.00350000 270.966
0.00425000 246.699
0.00500000 228.127
0.00625000 204.973
0.00750000 187.890
0.0100000 163.927
0.0125000 147.590
0.0150000 135.542
0.0200000 118.654
0.0253000 106.572
0.0314750 96.5729
0.0376500 89.1662
0.0500000 78.7497
0.0625000 71.5695
0.0750000 66.2963
0.100000 58.9500
0.125000 53.9910
0.150000 50.3718
0.200000 45.3795
0.275000 40.7818
0.350000 37.8934
0.500000 34.5046
0.750000 31.9543
1.00000 31.1368
1.50000 32.1992
2.00000 36.2787
2.70510 50.2210
3.05765 64.8458
3.41020 91.7138
3.58648 114.245
3.76275 148.317
3.93903 203.212
4.02716 244.134
4.11530 299.780
4.20344 378.086
4.29158 493.108
4.37971 671.657
4.46785 969.990
4.51192 1200.07
4.55599 1522.35
4.60006 1992.22
4.64413 2712.27
4.68819 3887.33
4.73226 5962.76
4.75430 7623.51
4.77633 9986.41
4.79837 13405.8
4.82040 18333.0
4.85520 29360.3
4.89000 36725.1
4.92480 29405.6
4.95960 18406.6
5.00000 10548.4
5.03906 6620.48
5.07813 4465.22
5.11719 3191.39
5.15625 2386.59
5.23438 1474.36
5.31250 1000.31
5.39063 724.107
5.46875 549.550
5.62500 349.912
5.78125 244.473
5.93750 182.085
6.09375 142.119
6.25000 114.969
6.56250 81.4610
6.87500 62.3073
7.18750 50.3088
7.50000 42.2778
8.12500 32.4865
8.75000 26.9304
9.37500 23.4471
10.0000 21.1014
11.2500 18.1967
12.5000 16.4974
13.7500 15.3909
15.0000 14.6125
17.5000 13.5793
20.0000 12.9065
23.2982 12.2824
26.5965 11.8111
33.1930 11.0659
39.7894 10.3835
43.0877 10.0134
44.7368 9.82301
45.1491 9.78677
45.5614 9.78442
45.7675 9.82951
45.9736 9.99577
46.0767 10.2229
46.1282 10.4313
46.1798 10.7695
46.2313 11.3607
46.2828 12.5039
46.3086 13.5005
46.3344 15.0344
46.3601 17.4810
46.3859 21.4140
46.4180 28.7647
46.4500 33.8799
46.4821 29.2697
46.5141 22.0384
46.5413 17.8848
46.5686 15.3261
46.5958 13.7310
46.6230 12.6969
46.6775 11.5034
46.7320 10.8743
46.8409 10.2650
46.9498 9.98483
47.1677 9.72814
47.3856 9.60402
48.2571 9.36630
50.0000 9.04216
51.9657 8.67513
52.9486 8.49699
53.9314 8.35393
54.9143 8.32539
55.8971 8.66862
56.3885 9.25013
56.8800 10.7007
57.1257 12.3742
57.3714 16.2684
57.4942 20.8182
57.5557 24.8501
57.6171 31.3907
57.6785 43.1056
57.7400 67.2093
57.7707 89.8963
57.7860 106.310
57.8014 127.874
57.8167 156.736
57.8321 195.905
57.8475 249.599
57.8628 322.574
57.8774 412.124
57.8919 515.554
57.9210 650.624
57.9356 617.739
57.9501 531.129
57.9792 342.459
58.0110 211.688
58.0427 141.538
58.0744 102.458
58.1062 79.2026
58.1697 54.7457
58.2332 43.2913
58.3601 34.3296
58.4871 32.5005
58.7411 37.6939
58.9950 53.3460
59.1220 67.5115
59.2490 89.3512
59.3759 124.691
59.5029 186.149
59.5664 234.994
59.6299 305.019
59.6934 409.823
59.7569 575.463
59.8203 856.527
59.8838 1379.60
59.9156 1819.27
59.9473 2473.07
59.9791 3471.19
60.0108 4998.16
60.0549 8118.51
60.0990 10304.1
60.1431 8372.73
60.1872 5317.59
60.2224 3643.73
60.2576 2579.62
60.2928 1899.22
60.3280 1449.52
60.3983 921.027
60.4687 638.443
60.5391 470.979
60.6095 363.864
60.7502 239.647
60.8909 172.876
61.0317 132.713
61.1724 106.565
61.3132 88.5189
61.5947 65.7460
61.8762 52.3282
62.1577 43.6754
62.4391 37.7217
63.0021 30.1917
63.5651 25.7117
64.1281 22.7828
64.6911 20.7355
65.8171 18.0826
66.9430 16.4464
68.0690 15.3352
69.1950 14.5262
71.4469 13.4060
72.5729 12.9928
73.6988 12.6470
74.8248 12.3847
75.3878 12.3197
75.9508 12.3728
76.2323 12.4967
76.5138 12.7561
76.7953 13.2799
77.0767 14.3796
77.2175 15.3748
77.3582 16.9502
77.4990 19.5913
77.6397 24.3921
77.7805 34.2336
77.8508 43.3974
77.9212 58.6787
77.9916 86.6090
78.0268 109.903
78.0620 144.746
78.0972 199.587
78.1323 291.145
78.1675 454.057
78.1851 581.562
78.2027 753.875
78.2369 1219.89
78.2710 1548.20
78.3052 1262.59
78.3393 807.306
78.3605 603.972
78.3816 460.419
78.4239 287.797
78.4662 196.529
78.5085 143.825
78.5508 110.963
78.5931 89.1923
78.6778 63.0850
78.7624 48.6115
78.8470 39.7370
79.0162 29.8080
79.1854 24.6177
79.3547 21.5335
79.5239 19.5324
79.6931 18.1489
80.0316 16.3871
80.3700 15.3280
80.7085 14.6268
81.0469 14.1293
81.7238 13.4677
82.4007 13.0421
83.7545 12.5087
85.1083 12.1693
86.4621 11.9209
89.1697 11.5562
91.8772 11.2788
94.5848 11.0431
97.2924 10.8252
100.000 10.6049
101.735 10.4515
102.603 10.3696
103.471 10.2884
103.904 10.2533
104.338 10.2307
104.772 10.2394
105.206 10.3301
105.423 10.4471
105.640 10.6662
105.857 11.0866
106.073 11.9479
106.182 12.7203
106.290 13.9359
106.399 15.9660
106.507 19.6310
106.616 27.0811
106.670 33.9412
106.724 45.2455
106.778 65.5811
106.833 106.615
106.860 144.071
106.887 204.484
106.900 248.906
106.914 306.888
106.928 384.028
106.941 484.304
106.956 624.661
106.971 786.631
107.000 1002.64
107.015 953.279
107.030 819.645
107.059 525.497
107.088 334.322
107.118 225.431
107.147 161.745
107.176 122.418
107.205 96.5716
107.235 78.8796
107.293 56.8490
107.352 44.2116
107.410 36.2867
107.527 27.2418
107.644 22.4322
107.761 19.5472
107.878 17.6666
107.995 16.3638
108.229 14.7064
108.463 13.7168
108.697 13.0686
108.931 12.6151
109.399 12.0264
109.867 11.6624
110.335 11.4143
110.803 11.2331
111.739 10.9816
112.675 10.8099
114.548 10.5754
116.420 10.4068
118.292 10.2678
119.228 10.2067
119.696 10.1803
120.164 10.1615
120.632 10.1640
120.866 10.1870
121.100 10.2478
121.334 10.4056
121.451 10.5735
121.568 10.8824
121.685 11.5166
121.744 12.1038
121.802 13.0734
121.861 14.8148
121.919 18.3296
121.948 21.5379
121.978 26.6795
122.007 35.3839
122.036 50.2994
122.068 75.6372
122.100 93.6289
122.132 78.5331
122.164 53.9304
122.186 41.9752
122.207 33.7746
122.229 28.1741
122.251 24.2882
122.294 19.4504
122.337 16.7182
122.381 15.0388
122.424 13.9357
122.511 12.6218
122.597 11.8958
122.684 11.4498
122.857 10.9469
123.030 10.6789
123.203 10.5156
123.550 10.3276
123.896 10.2208
124.243 10.1495
124.936 10.0539
126.321 9.93005
127.707 9.83455
130.479 9.66377
133.250 9.49225
136.022 9.30313
138.793 9.07797
140.179 8.94543
140.872 8.87577
141.565 8.81146
142.257 8.78029
142.604 8.80779
142.950 8.92031
143.297 9.26947
143.470 9.67534
143.643 10.4684
143.816 12.2101
143.903 13.9177
143.990 16.8934
144.076 22.6475
144.120 27.7053
144.163 35.6593
144.206 49.0303
144.249 73.5172
144.271 93.7932
144.293 123.290
144.314 167.533
144.336 233.184
144.368 374.557
144.400 474.909
144.432 390.643
144.464 253.364
144.491 174.043
144.518 124.489
144.545 93.2938
144.572 72.9731
144.625 49.2575
144.679 36.7090
144.733 29.2880
144.787 24.5548
144.894 19.0559
145.001 16.0819
145.109 14.2809
145.324 12.2705
145.539 11.2086
145.754 10.5633
146.183 9.82021
146.613 9.39493
147.043 9.10600
147.903 8.70560
148.332 8.55521
148.762 8.43958
149.192 8.38852
149.622 8.49717
149.837 8.69143
150.052 9.08746
150.267 9.88613
150.481 11.5757
150.589 13.1163
150.696 15.5642
150.804 19.6856
150.911 27.1791
151.019 42.5022
151.072 56.6599
151.126 80.0349
151.153 97.7787
151.180 122.143
151.207 156.655
151.234 207.150
151.261 284.891
151.287 409.679
151.314 621.669
151.341 986.862
151.371 1617.47
151.400 2072.50
151.430 1694.55
151.459 1082.92
151.481 762.351
151.503 552.811
151.526 415.508
151.548 323.272
151.592 212.017
151.636 151.323
151.681 114.694
151.725 91.0249
151.814 63.1644
151.903 47.9593
151.991 38.6994
152.080 32.6070
152.169 28.3664
152.346 22.9431
152.523 19.6994
152.701 17.5761
152.878 16.0960
153.233 14.1871
153.587 13.0210
154.297 11.6726
155.006 10.9057
155.716 10.3955
157.135 9.71552
158.553 9.24692
159.263 9.08167
159.972 9.02238
160.327 9.08451
160.682 9.28083
161.037 9.74921
161.391 10.8293
161.569 11.8528
161.746 13.5138
161.923 16.3596
162.101 21.6208
162.278 32.5591
162.367 42.8160
162.455 59.9435
162.544 91.2713
162.588 117.370
162.633 156.182
162.677 217.002
162.721 317.310
162.766 492.853
162.810 809.160
162.855 1321.16
162.900 1689.25
162.945 1385.42
162.990 889.564
163.019 659.390
163.048 499.141
163.106 308.947
163.164 209.490
163.221 152.562
163.279 117.152
163.337 93.7778
163.453 65.7584
163.569 50.2528
163.684 40.7919
163.916 30.5087
164.147 26.0738
164.263 25.5031
164.378 26.4534
164.494 30.3451
164.552 34.6207
164.610 42.1604
164.668 56.4036
164.725 86.3512
164.754 114.514
164.783 161.106
164.812 242.596
164.827 305.593
164.841 389.072
164.856 499.485
164.871 626.855
164.900 797.956
164.930 657.787
164.959 427.566
164.984 294.946
165.008 211.899
165.033 159.473
165.058 125.231
165.107 85.1322
165.156 63.7132
165.206 50.9448
165.255 42.7292
165.354 33.0433
165.452 27.6764
165.551 24.3367
165.748 20.4483
165.946 18.2644
166.143 16.8589
166.537 15.1329
166.932 14.0915
167.326 13.3821
168.116 12.4590
168.905 11.8713
169.694 11.4563
171.272 10.8938
172.850 10.5148
174.429 10.2289
177.585 9.78949
180.742 9.41346
182.320 9.22187
183.898 9.01514
185.476 8.78940
186.265 8.67949
187.055 8.60487
187.449 8.60940
187.844 8.68361
188.238 8.90934
188.633 9.49451
188.830 10.0813
189.027 11.0672
189.225 12.8088
189.422 16.1271
189.619 23.2473
189.718 30.0965
189.817 41.7884
189.915 63.7790
189.965 82.5284
190.014 111.136
190.063 157.241
190.112 236.646
190.162 383.835
190.186 503.648
190.211 669.551
190.256 1095.78
190.300 1405.03
190.345 1156.06
190.389 744.946
190.427 506.535
190.464 358.278
190.502 264.766
190.539 203.829
190.614 132.837
190.689 95.1294
190.765 72.8188
190.840 58.5252
190.990 41.8775
191.140 32.8379
191.290 27.3420
191.440 23.7241
191.590 21.2004
191.891 17.9627
192.191 16.0138
192.492 14.7302
192.792 13.8294
193.393 12.6581
193.993 11.9348
194.594 11.4445
195.195 11.0893
196.396 10.6049
197.597 10.2840
200.000 9.86728
202.526 9.57724
205.051 9.35553
210.102 8.99980
215.153 8.68331
220.204 8.35815
225.255 7.98165
227.781 7.75387
230.306 7.47997
232.832 7.13336
234.094 6.92220
235.357 6.68670
235.988 6.56849
236.620 6.46802
237.251 6.42753
237.883 6.56767
238.198 6.80554
238.514 7.29085
238.830 8.27513
239.145 10.3704
239.303 12.2876
239.461 15.3403
239.619 20.4835
239.777 29.8316
239.856 37.5369
239.935 48.8808
240.014 66.4020
240.092 95.1592
240.171 146.340
240.211 187.882
240.250 248.107
240.290 339.425
240.329 483.387
240.369 721.276
240.408 1118.13
240.454 1832.22
240.500 2348.52
240.546 1930.17
240.592 1240.75
240.634 812.960
240.677 558.158
240.719 403.141
240.761 304.759
240.846 193.097
240.931 135.198
241.016 101.447
241.100 80.0346
241.270 55.3145
241.439 41.9953
241.608 33.9362
241.778 28.6407
241.947 24.9519
242.286 20.2240
242.624 17.3777
242.963 15.5012
243.302 14.1812
243.979 12.4575
244.657 11.3841
245.334 10.6477
246.012 10.1059
247.366 9.34380
248.721 8.80790
251.431 8.01752
254.141 7.34299
255.496 7.00429
256.851 6.66662
257.528 6.51461
258.205 6.40481
258.883 6.40548
259.560 6.70375
259.899 7.11524
260.238 7.90064
260.577 9.42125
260.915 12.5355
261.085 15.3109
261.254 19.6413
261.423 26.7673
261.593 39.3451
261.677 49.4318
261.762 63.9470
261.847 85.6953
261.931 119.924
262.016 177.522
262.101 282.659
262.143 369.153
262.185 494.553
262.228 680.317
262.270 955.117
262.335 1573.60
262.400 2027.57
262.465 1673.68
262.530 1080.37
262.574 792.058
262.618 593.984
262.662 458.127
262.705 363.108
262.793 244.603
262.881 177.274
262.968 135.663
263.056 108.196
263.231 75.2771
263.406 56.9516
263.581 45.6305
263.932 32.8020
264.282 25.9633
264.633 21.8183
264.983 19.0774
265.333 17.1471
266.034 14.6275
266.735 13.0620
268.137 11.2091
269.538 10.1172
270.940 9.36502
271.641 9.07130
272.341 8.86473
272.692 8.86565
272.867 8.94906
273.042 9.17210
273.217 9.74249
273.305 10.3395
273.393 11.4185
273.480 13.5789
273.524 15.5301
273.568 18.6722
273.612 24.1196
273.655 34.5426
273.677 43.5289
273.699 57.2116
273.721 78.7096
273.743 112.700
273.772 179.314
273.800 226.784
273.829 186.873
273.857 122.441
273.876 91.8518
273.895 70.8221
273.933 46.1245
273.970 33.4048
274.008 26.1723
274.046 21.7049
274.083 18.7594
274.159 15.2359
274.234 13.2786
274.310 12.0701
274.460 10.6966
274.611 9.95566
274.762 9.49658
275.064 8.95360
275.365 8.63160
275.667 8.40683
276.270 8.08744
277.476 7.64099
278.682 7.27995
281.095 6.63268
283.508 6.04104
284.714 5.79940
285.920 5.66626
287.127 5.80099
288.333 6.63650
288.936 7.66292
289.539 9.54922
290.142 13.1158
290.745 20.2987
291.047 26.6386
291.349 36.4762
291.650 52.5548
291.952 80.7437
292.103 103.212
292.253 135.384
292.404 183.292
292.555 258.217
292.706 382.870
292.857 607.036
292.932 788.549
293.007 1048.87
293.083 1428.57
293.158 1979.93
293.279 3267.58
293.400 4212.97
293.521 3476.86
293.642 2242.30
293.781 1336.70
293.920 858.594
294.059 594.178
294.198 436.673
294.337 336.077
294.476 268.225
294.754 185.163
295.031 138.031
295.309 108.598
295.865 74.9841
296.421 56.9834
296.977 46.0789
297.532 38.8899
298.088 33.8517
299.199 27.3378
300.311 23.3605
301.422 20.7013
302.534 18.8047
304.757 16.2794
306.980 14.6620
309.202 13.5181
311.425 12.6450
315.871 11.3162
318.094 10.7437
320.317 10.1701
322.540 9.53727
323.651 9.17252
324.763 8.75769
325.874 8.29218
326.430 8.06508
326.986 7.91221
327.542 8.06593
327.819 8.49969
328.097 9.59433
328.375 12.4301
328.514 15.4644
328.653 21.0567
328.722 25.6835
328.792 32.5023
328.861 42.9987
328.896 50.4306
328.931 60.0560
328.966 72.8069
329.000 89.9791
329.035 113.767
329.070 147.707
329.105 197.949
329.139 274.556
329.174 395.338
329.209 587.053
329.254 970.397
329.300 1256.75
329.346 1044.28
329.391 679.584
329.433 455.357
329.474 319.335
329.515 235.517
329.556 181.586
329.638 119.846
329.720 87.6968
329.802 69.1535
329.884 57.8484
330.048 46.8924
330.212 46.3315
330.294 50.5073
330.376 59.7307
330.458 78.4375
330.540 117.973
330.581 154.246
330.622 212.184
330.663 308.382
330.704 470.213
330.752 765.686
330.800 984.845
330.848 818.302
330.896 535.283
330.944 348.344
330.991 240.411
331.039 176.411
331.086 136.290
331.181 91.2645
331.276 67.9629
331.371 54.2824
331.466 45.4951
331.656 35.1069
331.846 29.2937
332.036 25.6252
332.416 21.2885
332.796 18.8164
333.176 17.2168
333.936 15.2556
334.697 14.0836
335.457 13.2923
336.977 12.2649
338.497 11.5985
340.017 11.1070
343.057 10.3682
346.097 9.75239
347.617 9.44469
349.137 9.11352
350.657 8.73628
351.417 8.52477
352.177 8.30647
352.558 8.20757
352.938 8.13793
353.318 8.14581
353.698 8.36205
353.888 8.65272
354.078 9.20217
354.268 10.2570
354.458 12.3976
354.648 17.2232
354.743 22.0035
354.838 30.3407
354.933 46.3365
354.980 60.2068
355.028 81.6465
355.075 116.729
355.123 178.299
355.146 227.096
355.170 295.281
355.194 392.615
355.218 529.702
355.259 873.428
355.300 1127.60
355.341 934.448
355.383 607.072
355.412 438.122
355.442 325.027
355.472 248.941
355.502 196.861
355.561 132.984
355.620 97.3705
355.680 75.5496
355.739 61.2429
355.858 44.1974
355.977 34.7295
356.096 28.8868
356.215 24.9911
356.334 22.2481
356.572 18.6899
356.810 16.5181
357.048 15.0706
357.286 14.0424
357.762 12.6819
358.237 11.8184
359.189 10.7597
360.141 10.0984
361.092 9.60892
362.995 8.82818
364.899 8.08623
365.850 7.67995
366.802 7.23831
367.278 7.01322
367.753 6.80860
368.229 6.68202
368.705 6.80106
368.943 7.09225
369.181 7.72665
369.419 9.05206
369.657 11.9050
369.776 14.5146
369.894 18.6468
370.013 25.5369
370.132 37.8315
370.192 47.7626
370.251 62.1177
370.311 83.7138
370.370 117.805
370.430 175.371
370.489 280.697
370.519 367.498
370.549 493.268
370.578 679.570
370.608 955.164
370.654 1582.64
370.700 2048.80
370.746 1699.07
370.792 1102.53
370.825 794.212
370.858 587.607
370.891 448.922
370.924 353.573
370.991 236.580
371.057 171.293
371.123 131.269
371.189 105.040
371.322 73.7193
371.454 56.2954
371.587 45.5268
371.852 33.2698
372.117 26.6836
372.382 22.6579
372.646 19.9710
372.911 18.0618
373.441 15.5574
373.706 14.7253
373.971 14.1301
374.236 13.8729
374.368 13.9951
374.501 14.4939
374.633 15.8650
374.700 17.2848
374.766 19.7645
374.832 24.4373
374.898 34.2687
374.931 43.5091
374.964 58.7622
374.998 85.3214
375.031 132.783
375.065 212.445
375.100 271.715
375.135 227.114
375.169 151.045
375.194 112.538
375.218 86.5174
375.243 68.8957
375.267 56.6904
375.316 41.5831
375.365 33.0777
375.414 27.8179
375.463 24.3451
375.560 20.1453
375.658 17.7584
375.755 16.2448
375.951 14.4400
376.146 13.3879
376.341 12.6799
376.732 11.7360
377.513 10.5578
378.295 9.68821
379.076 8.94462
379.467 8.66116
379.857 8.58567
380.053 8.74485
380.248 9.19944
380.443 10.2555
380.639 12.6536
380.834 18.4937
380.932 24.5308
381.029 35.3438
381.078 44.0942
381.127 56.6993
381.176 75.5942
381.225 105.298
381.273 155.013
381.322 244.364
381.347 316.616
381.371 419.993
381.395 570.274
381.420 788.077
381.460 1311.64
381.500 1708.38
381.540 1425.90
381.580 930.912
381.616 625.943
381.652 439.864
381.688 324.297
381.724 249.784
381.795 163.656
381.867 118.084
381.939 91.0829
382.010 73.7142
382.154 53.3101
382.297 42.0905
382.441 35.1715
382.584 30.5517
382.727 27.2840
383.014 23.0107
383.301 20.3721
383.588 18.5923
383.874 17.3152
384.448 15.6044
385.021 14.5073
386.168 13.1632
387.316 12.3485
388.463 11.7831
390.757 11.0064
393.051 10.4442
395.345 9.95251
396.492 9.70076
397.065 9.56809
397.639 9.43151
398.212 9.30270
398.499 9.25684
398.786 9.25399
399.073 9.37844
399.216 9.56811
399.359 9.97213
399.503 10.8997
399.574 11.8195
399.646 13.4164
399.718 16.4512
399.754 19.0591
399.790 23.0344
399.825 29.4573
399.861 40.4480
399.897 60.6338
399.915 76.8684
399.933 99.2792
399.950 126.918
399.966 159.410
400.000 204.797
400.034 172.166
400.067 115.278
400.103 75.2049
400.139 53.0539
400.175 40.3722
400.211 32.6405
400.283 24.2601
400.355 20.1705
400.426 17.9912
400.498 16.8457
400.642 16.4479
400.786 18.4647
400.857 20.9495
400.929 25.3682
401.001 33.5890
401.073 50.3757
401.109 65.6144
401.145 89.8858
401.180 130.177
401.216 198.069
401.258 321.493
401.300 412.872
401.342 343.668
401.384 226.086
401.421 154.117
401.458 110.325
401.496 83.2478
401.533 65.7639
401.608 45.6225
401.682 34.9844
401.757 28.6816
401.832 24.6351
401.981 19.8773
402.130 17.2515
402.279 15.6253
402.578 13.7523
402.876 12.7207
403.175 12.0709
403.772 11.2947
404.369 10.8390
404.966 10.5313
406.160 10.1240
407.354 9.84803
408.547 9.63469
410.935 9.29753
415.711 8.75429
420.487 8.23394
425.263 7.64199
427.651 7.28878
430.039 6.87838
431.233 6.65024
432.426 6.41379
433.620 6.19370
434.814 6.07287
435.411 6.12376
436.008 6.35367
436.605 6.96203
437.202 8.44076
437.799 12.2170
438.098 16.2384
438.396 23.6199
438.545 29.7031
438.695 38.6253
438.844 52.2886
438.993 74.3291
439.142 112.488
439.292 184.734
439.366 246.137
439.441 338.134
439.515 479.556
439.590 697.578
439.695 1157.81
439.800 1503.38
439.905 1251.50
440.010 814.878
440.091 575.537
440.173 419.084
440.254 316.670
440.335 247.630
440.498 164.665
440.660 119.117
440.823 91.5322
440.986 73.5436
441.311 52.1727
441.636 40.3236
441.961 32.9904
442.286 28.0868
442.612 24.6145
443.262 20.0692
443.912 17.2487
444.563 15.3264
445.213 13.9205
446.514 11.9481
447.164 11.2084
447.814 10.5967
448.465 10.2024
448.790 10.2154
449.115 10.6183
449.278 11.1384
449.440 12.0915
449.603 13.8654
449.766 17.3513
449.928 24.9303
450.009 32.2160
450.091 44.5794
450.172 67.4502
450.213 86.6366
450.253 115.266
450.294 160.241
450.335 234.440
450.375 364.061
450.416 596.841
450.458 983.925
450.500 1271.49
450.542 1054.74
450.584 685.355
450.610 520.857
450.635 402.756
450.686 257.946
450.737 179.641
450.788 133.603
450.839 104.477
450.890 84.9249
450.992 61.1132
451.094 47.6212
451.196 39.1913
451.400 29.5317
451.604 24.3141
451.808 21.1200
452.012 18.9864
452.216 17.4705
452.624 15.4650
453.032 14.1962
453.847 12.6595
454.663 11.7329
455.479 11.0877
457.110 10.1937
458.742 9.54805
460.374 9.01476
463.637 8.06943
466.900 7.10791
468.531 6.58510
470.163 6.05572
470.979 5.82691
471.794 5.68907
472.610 5.78604
473.426 6.50416
473.834 7.40191
474.242 9.05607
474.650 12.1732
475.058 18.3924
475.262 23.8193
475.465 32.1323
475.669 45.4910
475.873 68.3230
476.077 110.899
476.179 146.752
476.281 200.516
476.383 285.134
476.485 425.409
476.587 671.692
476.689 1115.34
476.795 1854.84
476.900 2411.69
477.006 2007.75
477.112 1305.54
477.206 878.618
477.299 616.433
477.393 453.537
477.487 348.050
477.674 225.911
477.861 161.200
478.049 122.806
478.236 98.1150
478.611 69.1077
478.985 53.1604
479.360 43.3349
479.735 36.7762
480.109 32.1371
480.859 26.0719
481.608 22.3161
482.357 19.7678
483.107 17.9172
484.605 15.3588
485.355 14.4070
486.104 13.5902
486.853 12.9106
487.228 12.6684
487.602 12.5981
487.977 13.0089
488.164 13.6909
488.352 15.1736
488.539 18.5976
488.633 21.9812
488.726 27.7967
488.820 38.6747
488.914 61.5247
488.961 83.0578
489.007 118.548
489.054 180.327
489.101 290.682
489.151 478.412
489.200 620.947
489.250 520.101
489.299 342.761
489.330 261.368
489.361 203.422
489.422 132.716
489.484 94.7136
489.545 72.4553
489.606 58.3485
489.668 48.8801
489.791 37.2846
489.914 30.6687
490.037 26.4992
490.282 21.6392
490.528 18.9366
490.774 17.2206
491.266 15.1304
491.758 13.8757
492.003 13.4562
492.249 13.2409
492.495 13.5136
492.618 14.1203
492.741 15.5169
492.864 18.8333
492.925 22.1507
492.987 27.8756
493.048 38.6057
493.110 61.0575
493.140 82.1031
493.171 116.461
493.187 141.964
493.202 175.503
493.217 220.391
493.233 279.233
493.249 363.157
493.266 462.446
493.300 603.728
493.317 582.793
493.334 508.998
493.368 338.090
493.394 243.695
493.419 181.693
493.445 140.771
493.471 112.989
493.523 79.3193
493.575 60.6443
493.627 49.2161
493.679 41.7203
493.782 32.7190
493.886 27.6525
493.989 24.4776
494.197 20.7833
494.404 18.7283
494.611 17.4262
495.026 15.8612
495.440 14.9367
495.855 14.3113
496.684 13.4886
497.513 12.9448
498.342 12.5414
500.000 11.9535
502.083 11.4283
504.165 11.0263
508.330 10.4119
512.495 9.92798
516.660 9.50425
520.825 9.09606
524.990 8.64994
527.072 8.37822
528.113 8.21639
529.155 8.02679
530.196 7.80034
530.716 7.67584
531.237 7.56226
531.497 7.52758
531.758 7.53523
532.018 7.64062
532.278 7.98601
532.408 8.35788
532.539 8.99992
532.669 10.1524
532.799 12.3539
532.929 17.0171
532.994 21.3983
533.059 28.6521
533.124 41.6560
533.157 52.2208
533.189 67.4901
533.222 90.5220
533.254 126.446
533.287 184.703
533.319 280.231
533.360 463.398
533.400 602.253
533.420 579.003
533.440 503.581
533.481 330.461
533.509 243.387
533.537 183.768
533.565 143.119
533.593 114.814
533.649 79.6436
533.705 59.7260
533.761 47.3806
533.817 39.2145
533.928 29.3901
534.040 23.8735
534.152 20.4404
534.376 16.5022
534.600 14.3684
534.824 13.0552
535.048 12.1741
535.272 11.5450
535.720 10.7081
536.167 10.1749
537.063 9.52204
537.959 9.11982
538.854 8.83020
540.645 8.39641
542.436 8.02825
543.332 7.84360
544.228 7.65135
545.123 7.46073
545.571 7.38713
546.019 7.37733
546.243 7.43386
546.467 7.58246
546.690 7.91778
546.914 8.66798
547.138 10.4773
547.250 12.3406
547.362 15.6725
547.474 22.2492
547.530 28.0799
547.586 37.2439
547.642 52.6128
547.698 80.3545
547.726 102.936
547.754 135.408
547.782 182.900
547.810 251.882
547.855 415.098
547.900 537.940
547.945 448.672
547.990 293.842
548.042 178.611
548.095 117.728
548.147 83.9457
548.199 63.7953
548.251 50.8721
548.303 42.1386
548.407 31.3949
548.512 25.2532
548.616 21.3951
548.824 16.9434
549.033 14.5274
549.241 13.0434
549.450 12.0513
549.658 11.3460
550.075 10.4139
550.492 9.82560
551.326 9.11505
552.160 8.68626
552.994 8.38504
554.662 7.95540
556.331 7.62568
557.999 7.33145
558.833 7.18774
559.667 7.04843
560.084 6.99277
560.292 6.98013
560.501 6.99661
560.709 7.09180
560.813 7.21403
560.918 7.45594
561.022 7.97594
561.074 8.46502
561.126 9.27450
561.178 10.7209
561.230 13.5695
561.257 16.0922
561.283 19.9979
561.309 26.3094
561.335 36.5269
561.367 56.2437
561.400 71.0052
561.433 60.1385
561.465 41.3896
561.499 28.6893
561.532 21.4636
561.565 17.2167
561.598 14.5862
561.632 12.8508
561.665 11.6561
561.731 10.1565
561.798 9.28131
561.864 8.72283
561.997 8.06732
562.130 7.70153
562.263 7.46979
562.529 7.18913
562.795 7.01841
563.061 6.89682
563.592 6.71923
564.656 6.45645
565.719 6.22626
567.846 5.76054
569.973 5.23127
572.100 4.59531
573.164 4.23137
574.227 3.85472
575.291 3.55248
575.823 3.52774
576.354 3.76465
576.886 4.72448
577.152 5.89746
577.219 6.33223
577.285 6.84774
577.352 7.46419
577.418 8.20378
577.484 9.10041
577.551 10.1952
577.617 11.5453
577.684 13.2263
577.750 15.3537
577.817 18.0843
577.883 21.6527
577.950 26.4083
578.016 32.9281
578.083 42.1315
578.149 55.6138
578.216 76.2448
578.282 109.740
578.349 167.782
578.382 213.374
578.415 276.663
578.448 365.782
578.481 490.615
578.541 810.391
578.600 1048.76
578.659 871.358
578.719 567.555
578.771 384.132
578.823 271.712
578.875 202.156
578.927 157.403
579.032 106.600
579.136 80.9971
579.241 67.3399
579.345 60.3760
579.554 59.0146
579.763 72.9450
579.867 88.2036
579.971 112.899
580.076 153.476
580.180 222.808
580.285 347.309
580.389 576.913
580.495 955.850
580.600 1244.12
580.706 1040.06
580.811 681.236
580.897 475.228
580.983 343.575
581.069 258.895
581.156 202.524
581.328 135.493
581.500 98.9881
581.672 76.8942
581.845 62.4605
582.189 45.1873
582.533 35.4729
582.878 29.3630
583.567 22.2125
584.256 18.2091
584.945 15.7670
585.289 15.0955
585.462 15.0279
585.634 15.3596
585.806 16.6373
585.892 18.0975
585.978 20.7847
586.064 26.1021
586.107 30.7742
586.150 38.0042
586.194 49.8578
586.237 70.5061
586.280 109.399
586.301 141.233
586.323 185.821
586.361 301.255
586.400 388.170
586.439 325.085
586.477 215.521
586.509 152.840
586.541 112.919
586.572 87.2639
586.604 70.2045
586.667 49.9401
586.730 38.9460
586.793 32.3002
586.856 27.9692
586.982 22.7818
587.108 19.8527
587.234 17.9923
587.486 15.7646
587.738 14.4544
587.990 13.5675
588.495 12.3872
588.999 11.5867
589.503 10.9750
590.512 10.0448
592.529 8.71529
594.547 7.67207
596.564 6.74622
597.572 6.34308
598.581 6.08153
599.085 6.09078
599.590 6.31698
600.094 6.99513
600.598 8.70385
600.851 10.3738
601.103 13.1133
601.355 17.8137
601.607 26.4226
601.733 33.4949
601.859 43.8442
601.985 59.6187
602.111 84.9156
602.237 128.359
602.363 209.684
602.427 278.051
602.490 379.168
602.553 532.398
602.616 764.866
602.708 1272.75
602.800 1655.27
602.892 1378.87
602.985 898.289
603.040 684.292
603.095 530.138
603.206 339.854
603.317 236.115
603.428 174.842
603.539 135.867
603.650 109.629
603.871 77.4991
604.093 59.2068
604.315 47.7282
604.758 34.4915
605.201 27.2962
605.644 22.8623
606.088 19.8849
606.531 17.7558
607.418 14.9119
608.304 13.0804
610.078 10.7690
611.851 9.23073
612.737 8.58882
613.624 8.00458
614.511 7.53115
614.954 7.42042
615.397 7.56404
615.841 8.43404
616.062 9.58551
616.284 11.9242
616.506 17.0944
616.616 22.0722
616.727 30.4733
616.838 45.8247
616.894 58.4654
616.949 77.0428
617.004 105.443
617.060 150.814
617.115 226.419
617.171 354.436
617.235 589.801
617.300 769.106
617.365 643.961
617.430 422.590
617.482 296.330
617.534 215.225
617.586 162.733
617.639 127.761
617.743 86.0645
617.847 63.3499
617.952 49.6147
618.056 40.6670
618.265 30.0027
618.474 24.0469
618.683 20.3274
619.101 16.0027
619.519 13.5805
619.937 12.0177
620.772 10.0437
621.608 8.73418
622.026 8.19653
622.444 7.72573
622.861 7.39907
623.070 7.39117
623.279 7.67728
623.488 8.75590
623.593 10.0398
623.697 12.4952
623.802 17.5897
623.854 22.2269
623.906 29.6477
623.958 42.2754
623.984 51.9717
624.010 65.3463
624.037 84.2233
624.063 111.469
624.089 151.451
624.115 209.991
624.157 351.782
624.200 463.459
624.221 448.717
624.243 392.819
624.285 261.245
624.313 197.779
624.341 153.038
624.396 99.1681
624.451 70.4708
624.506 53.7532
624.562 43.1722
624.617 36.0673
624.727 27.3452
624.838 22.3367
624.948 19.1592
625.169 15.4230
625.390 13.3313
625.611 12.0062
626.053 10.4526
626.494 9.70183
626.715 9.60782
626.936 9.83716
627.157 10.7819
627.268 11.8712
627.378 13.8923
627.489 17.9730
627.544 21.6371
627.599 27.4759
627.654 37.4397
627.709 55.9122
627.737 71.3375
627.765 94.0978
627.792 128.463
627.820 180.379
627.860 291.584
627.900 372.214
627.940 307.129
627.980 199.761
628.019 130.117
628.059 89.9131
628.098 66.0379
628.137 51.1462
628.215 34.4967
628.293 25.9633
628.372 21.0081
628.450 17.8613
628.607 14.1995
628.763 12.1858
628.920 10.9309
629.233 9.45160
629.546 8.59242
629.859 8.01299
630.485 7.24220
631.738 6.36289
632.990 6.07460
633.616 6.28264
634.243 6.96784
634.869 8.59231
635.495 12.2645
635.808 15.6683
636.121 21.0674
636.435 30.0136
636.748 45.7755
636.904 58.2980
637.061 76.0857
637.217 102.258
637.374 142.346
637.530 207.031
637.687 317.791
637.844 520.571
638.000 905.963
638.150 1519.26
638.300 1990.68
638.450 1669.53
638.600 1093.99
638.754 697.441
638.909 471.216
639.063 338.691
639.217 256.313
639.372 202.085
639.526 164.597
639.834 117.512
640.143 90.0587
640.452 72.5487
641.069 52.0808
641.686 40.8253
642.303 33.8548
642.920 29.1701
643.537 25.8289
644.772 21.4047
646.006 18.6156
647.241 16.6911
648.475 15.2740
650.944 13.2932
653.412 11.9227
655.881 10.8378
656.498 10.5805
657.115 10.3206
657.424 10.1998
657.578 10.1550
657.733 10.1450
657.887 10.2376
657.964 10.3860
658.041 10.7033
658.118 11.4213
658.157 12.1152
658.195 13.2766
658.234 15.3724
658.273 19.5121
658.292 23.1735
658.311 28.8423
658.330 37.9029
658.350 52.4031
658.375 81.7887
658.400 104.765
658.425 89.9259
658.450 62.5656
658.477 43.2571
658.503 32.3533
658.530 25.9694
658.556 22.0248
658.583 19.4192
658.609 17.6233
658.662 15.3564
658.715 14.0265
658.768 13.1713
658.874 12.1564
658.979 11.5832
659.085 11.2162
659.297 10.7684
659.508 10.4959
659.720 10.3039
660.143 10.0318
660.989 9.66061
661.835 9.37206
665.220 8.43681
671.990 6.76173
675.375 5.87246
678.760 4.88406
680.452 4.34011
682.145 3.76536
682.991 3.47854
683.837 3.23398
684.260 3.18394
684.683 3.35087
684.895 3.72380
685.001 4.12250
685.106 4.84377
685.212 6.28172
685.265 7.57115
685.318 9.63255
685.371 13.1728
685.424 19.8610
685.450 25.5734
685.477 34.1462
685.503 47.4299
685.529 68.0983
685.565 109.198
685.600 137.922
685.635 112.459
685.671 72.3086
685.707 45.6928
685.743 30.8225
685.779 22.2134
685.815 16.9479
685.887 11.1762
685.959 8.28145
686.031 6.62244
686.103 5.58068
686.247 4.38207
686.392 3.72913
686.536 3.32341
686.824 2.84322
687.400 2.36957
687.977 2.12777
688.553 2.01248
689.130 2.02420
689.706 2.20726
689.995 2.38875
690.283 2.65128
690.571 3.01782
690.860 3.51925
691.148 4.19816
691.436 5.11383
691.724 6.35212
692.013 8.03689
692.301 10.3573
692.589 13.6045
692.877 18.2555
693.166 25.1141
693.454 35.6395
693.742 52.6360
694.030 82.0512
694.319 137.785
694.463 185.260
694.607 256.492
694.751 366.348
694.895 536.543
695.098 898.783
695.300 1180.04
695.503 997.169
695.705 664.661
695.847 496.645
695.989 383.538
696.273 259.775
696.556 209.198
696.840 200.314
697.124 228.616
697.408 311.339
697.549 388.236
697.691 505.752
697.833 686.601
697.975 962.443
698.188 1585.17
698.400 2067.30
698.613 1740.47
698.826 1150.57
699.080 696.142
699.334 457.261
699.588 325.192
699.842 246.006
700.096 194.940
700.350 160.043
700.858 116.468
701.366 90.9760
701.874 74.5483
702.890 54.9346
703.905 43.7738
704.921 36.6042
706.953 27.8557
708.985 22.4680
710.001 20.3259
711.017 18.3244
712.032 16.3125
712.540 15.2666
713.048 14.2220
713.556 13.3948
713.810 13.3380
714.064 14.0454
714.318 16.9104
714.445 20.3976
714.572 27.1150
714.636 32.7422
714.699 41.0068
714.763 53.5322
714.826 73.2835
714.890 106.018
714.953 163.664
714.985 209.116
715.017 272.208
715.048 360.880
715.080 484.867
715.140 830.735
715.200 1115.45
715.260 961.333
715.320 648.808
715.364 478.413
715.409 362.432
715.453 283.866
715.497 229.486
715.585 161.828
715.674 123.356
715.762 99.3457
715.850 83.3216
716.027 63.7137
716.204 52.4416
716.380 45.2503
716.734 36.7281
717.087 31.8926
717.440 28.7844
718.147 24.9936
718.854 22.7239
719.560 21.1749
720.973 19.1189
722.387 17.7467
723.800 16.7198
726.627 15.2033
729.453 14.0630
732.280 13.1111
733.693 12.6687
735.107 12.2271
735.813 12.0006
736.167 11.8875
736.520 11.7818
736.873 11.7103
737.050 11.7167
737.227 11.8034
737.403 12.1060
737.492 12.4589
737.580 13.1301
737.668 14.5221
737.713 15.7959
737.757 17.8434
737.801 21.3680
737.845 27.9276
737.889 41.5015
737.911 53.6596
737.933 71.8459
737.967 113.036
738.000 144.582
738.033 122.944
738.067 84.3749
738.087 66.6159
738.108 53.9036
738.149 38.4078
738.191 30.0419
738.232 25.1173
738.273 21.9860
738.315 19.8810
738.397 17.2958
738.480 15.8127
738.563 14.8738
738.728 13.7720
738.893 13.1535
739.058 12.7576
739.389 12.2705
739.719 11.9688
740.050 11.7511
740.711 11.4314
742.033 10.9660
743.355 10.5770
745.999 9.85254
748.643 9.12163
751.287 8.36417
752.609 8.00604
753.931 7.75081
755.253 7.88745
755.914 8.39907
756.575 9.71593
757.236 13.1047
757.567 16.6750
757.897 23.1207
758.228 35.8619
758.393 47.1310
758.558 64.7792
758.723 94.0936
758.889 146.341
759.054 247.601
759.136 332.972
759.219 455.276
759.360 758.539
759.500 989.828
759.641 828.122
759.781 542.247
759.885 390.440
759.989 289.087
760.093 221.504
760.197 175.301
760.406 118.834
760.614 87.3382
760.822 68.0265
761.030 55.3201
761.446 40.0498
761.863 31.4589
762.279 26.0623
763.111 19.7456
763.944 16.1628
764.776 13.8061
766.442 10.7038
768.107 8.53583
768.939 7.69870
769.772 7.20452
770.604 7.72667
771.021 9.04586
771.437 12.1782
771.645 15.0975
771.853 19.6813
772.061 27.1137
772.270 39.7066
772.478 62.4393
772.582 80.7870
772.686 107.065
772.790 145.866
772.894 204.764
772.998 296.603
773.102 440.041
773.251 757.936
773.400 1020.58
773.549 880.265
773.698 593.066
773.854 385.952
774.010 266.561
774.166 195.953
774.322 151.701
774.478 122.285
774.634 101.775
774.946 75.6707
775.257 60.1626
775.569 50.0922
776.193 38.0217
776.817 31.1429
777.441 26.7238
778.688 21.3335
779.936 18.0710
780.559 16.8602
781.183 15.8904
781.807 15.3244
782.119 15.4020
782.431 16.1015
782.742 18.4018
782.898 21.0196
783.054 25.9192
783.210 35.9231
783.288 44.9737
783.366 59.4042
783.444 83.9472
783.522 129.016
783.561 166.202
783.600 220.304
783.639 300.506
783.678 418.866
783.739 693.422
783.800 903.379
783.861 757.982
783.922 499.509
783.967 362.509
784.012 270.791
784.057 209.493
784.102 167.476
784.192 116.079
784.282 87.3375
784.372 69.6970
784.462 58.0706
784.642 44.0906
784.822 36.2126
785.002 31.2652
785.362 25.4950
785.722 22.2631
786.082 20.1912
786.802 17.6351
787.522 16.0464
788.241 14.8974
789.681 13.1916
791.121 11.8268
791.841 11.2292
792.561 10.7624
793.281 10.7395
793.641 11.2330
794.001 12.6591
794.361 16.5203
794.541 20.6745
794.720 28.2448
794.900 43.3079
794.990 56.6456
795.080 77.4906
795.170 111.981
795.260 172.980
795.305 221.380
795.350 289.395
795.395 386.146
795.440 522.773
795.520 877.162
795.600 1153.76
795.680 973.957
795.760 643.764
795.827 448.019
795.894 323.718
795.961 244.348
796.028 191.870
796.162 129.753
796.296 96.0575
796.430 75.7387
796.565 62.4899
796.833 46.6872
797.101 37.8426
797.369 32.3045
797.906 25.8628
798.442 22.2753
798.978 19.9937
800.051 17.2270
801.124 15.5594
802.197 14.3944
804.342 12.7474
806.488 11.4831
808.634 10.3155
809.707 9.70367
810.779 9.02589
811.316 8.64853
811.584 8.45482
811.852 8.27738
812.120 8.18602
812.254 8.24662
812.389 8.50648
812.523 9.28090
812.590 10.1288
812.657 11.6610
812.724 14.6367
812.791 21.0360
812.824 27.1199
812.858 37.1305
812.891 54.4277
812.908 67.6143
812.925 84.9542
812.944 110.350
812.963 140.806
813.000 186.205
813.019 181.572
813.038 160.518
813.075 109.750
813.120 69.5323
813.165 48.2639
813.210 36.4445
813.255 29.3327
813.300 24.7309
813.345 21.5905
813.435 17.6640
813.525 15.3626
813.615 13.8784
813.796 12.0965
813.976 11.0702
814.156 10.4002
814.516 9.56649
815.236 8.74316
815.957 8.53641
816.677 9.24892
817.037 10.4111
817.397 12.8811
817.758 18.4850
817.938 23.9873
818.118 33.4701
818.298 51.3741
818.388 66.6926
818.478 90.0603
818.568 127.788
818.658 192.730
818.748 313.147
818.838 546.973
818.919 894.288
819.000 1144.63
819.081 939.338
819.162 603.211
819.241 386.028
819.320 260.436
819.399 186.112
819.478 139.676
819.636 87.9148
819.794 61.4604
819.952 46.1312
820.110 36.4324
820.426 25.2323
820.742 19.2044
821.058 15.6267
821.690 12.3342
822.006 12.2080
822.321 13.3874
822.637 16.6965
822.795 19.6823
822.953 24.0891
823.111 30.6379
823.269 40.5287
823.427 55.8760
823.585 80.5905
823.743 122.498
823.901 198.152
823.980 259.025
824.059 345.325
824.138 469.150
824.217 645.836
824.359 1117.58
824.500 1510.27
824.642 1305.79
824.783 881.152
824.935 567.933
825.087 389.592
825.239 285.221
825.391 220.189
825.544 177.171
825.696 147.243
826.000 109.263
826.304 86.7506
826.608 72.1607
827.216 54.7165
827.825 44.8398
828.433 38.5641
829.041 34.2497
829.650 31.1109
830.866 26.8572
832.083 24.1080
834.516 20.7464
836.950 18.7427
839.383 17.3898
844.249 15.6268
849.116 14.4673
853.983 13.5754
856.416 13.1658
858.849 12.7329
860.066 12.4809
860.674 12.3357
861.283 12.1717
861.891 11.9880
862.195 11.8975
862.499 11.8340
862.651 11.8336
862.803 11.8838
862.956 12.0406
863.108 12.4375
863.260 13.4464
863.336 14.4938
863.412 16.3444
863.488 19.8838
863.564 27.4272
863.602 34.5485
863.640 46.2850
863.678 66.5801
863.697 82.0193
863.716 102.462
863.737 131.969
863.758 167.044
863.800 218.960
863.842 188.306
863.884 129.034
863.913 98.6106
863.943 77.5263
863.972 63.0056
864.001 52.8061
864.059 39.9920
864.118 32.6333
864.176 28.0152
864.234 24.9294
864.351 21.1527
864.468 18.9912
864.585 17.6196
864.818 16.0081
865.051 15.1057
865.285 14.5323
865.518 14.1353
865.752 13.8427
866.218 13.4350
866.685 13.1577
867.619 12.7844
868.553 12.5229
869.486 12.3115
871.353 11.9470
873.221 11.5845
874.154 11.3793
875.088 11.1382
876.022 10.8348
876.488 10.6484
876.955 10.4362
877.189 10.3260
877.422 10.2259
877.655 10.1669
877.889 10.2372
878.006 10.3924
878.122 10.7218
878.239 11.3928
878.356 12.7905
878.472 15.9292
878.531 18.9681
878.589 24.0712
878.647 33.2952
878.706 51.5593
878.735 67.6960
878.764 92.6417
878.793 132.408
878.822 195.993
878.842 255.986
878.861 327.547
878.900 432.726
878.919 420.294
878.939 369.488
878.978 248.417
879.003 188.941
879.029 146.985
879.080 96.7923
879.131 70.1531
879.182 54.6670
879.233 44.8731
879.285 38.3008
879.387 30.2364
879.489 25.6105
879.591 22.6821
879.796 19.2561
880.000 17.3576
880.205 16.1681
880.409 15.3585
880.614 14.7734
881.023 13.9849
881.432 13.4762
881.841 13.1179
882.250 12.8492
883.068 12.4659
883.886 12.1973
885.522 11.8238
887.158 11.5549
888.794 11.3363
892.066 10.9704
898.611 10.3356
905.155 9.69158
911.699 8.92534
914.971 8.44512
918.243 7.84922
919.880 7.48758
921.516 7.06874
923.152 6.58227
924.788 6.03485
925.606 5.76098
926.424 5.53297
927.242 5.45558
928.060 5.81906
928.469 6.39892
928.878 7.54704
929.287 9.79962
929.696 14.3845
929.900 18.3989
930.105 24.5277
930.309 34.2690
930.514 50.6005
930.718 80.0098
930.821 103.877
930.923 138.345
931.025 189.914
931.127 269.710
931.230 397.429
931.332 603.105
931.466 1021.64
931.600 1352.22
931.734 1145.81
931.868 758.793
931.959 565.005
932.050 429.981
932.141 336.514
932.232 270.663
932.413 187.532
932.595 139.634
932.777 109.605
932.959 89.5334
933.322 65.0521
933.686 51.1030
934.049 42.3029
934.776 32.0616
935.503 26.4129
936.230 22.8865
936.957 20.4920
937.684 18.7651
939.138 16.4405
940.592 14.9390
942.045 13.8760
943.499 13.0708
946.407 11.8892
949.315 10.9944
950.769 10.5878
952.223 10.1704
952.950 9.94295
953.313 9.82202
953.677 9.69968
954.040 9.59600
954.222 9.57628
954.404 9.62617
954.585 9.87568
954.676 10.1942
954.767 10.8251
954.858 12.1749
954.903 13.4301
954.949 15.4732
954.994 19.0220
955.040 25.6745
955.085 39.4598
955.108 51.8099
955.130 70.3838
955.148 89.9424
955.165 113.228
955.200 147.227
955.235 126.266
955.270 86.6700
955.309 56.9451
955.349 40.7809
955.388 31.6425
955.428 26.1012
955.467 22.4936
955.506 20.0261
955.585 16.9384
955.664 15.1385
955.743 13.9848
955.901 12.6183
956.059 11.8476
956.217 11.3545
956.532 10.7535
956.848 10.3884
957.163 10.1306
957.795 9.76027
958.426 9.47618
958.742 9.35432
959.057 9.25512
959.373 9.22071
959.531 9.27253
959.688 9.44739
959.846 9.93412
959.925 10.4551
960.004 11.3918
960.083 13.2113
960.122 14.7854
960.162 17.1831
960.201 21.0282
960.241 27.5072
960.280 39.1293
960.320 60.5175
960.340 77.0368
960.360 96.5770
960.400 124.937
960.440 107.026
960.481 73.6779
960.525 49.1970
960.569 35.7047
960.614 27.9823
960.658 23.2515
960.702 20.1581
960.747 18.0350
960.835 15.3729
960.924 13.8146
961.012 12.8147
961.190 11.6264
961.367 10.9533
961.544 10.5206
961.899 9.98924
962.253 9.66295
962.608 9.43094
963.317 9.09729
964.735 8.62668
966.154 8.23908
968.990 7.50333
971.827 6.71567
974.663 5.82062
976.081 5.34005
977.500 4.89307
978.918 4.68859
979.627 4.90278
980.336 5.72853
980.691 6.63416
981.045 8.19353
981.400 10.9617
981.754 16.1673
981.932 20.5158
982.109 26.9584
982.286 36.9195
982.463 53.1889
982.641 81.8314
982.729 104.739
982.818 137.514
982.907 186.157
982.995 260.894
983.084 379.667
983.172 569.905
983.286 941.092
983.400 1214.36
983.514 1002.96
983.628 647.147
983.747 401.880
983.867 265.349
983.987 186.750
984.107 138.609
984.226 107.233
984.346 85.7451
984.586 58.9845
984.825 43.5081
985.065 33.6755
985.544 22.2200
986.023 16.2288
986.262 14.6653
986.502 14.3811
986.741 16.6391
986.861 19.8455
986.981 26.0324
987.041 31.1030
987.100 38.3584
987.160 48.9801
987.220 64.9613
987.280 89.9738
987.340 130.730
987.400 199.903
987.460 318.956
987.530 544.401
987.600 728.683
987.635 710.357
987.670 625.671
987.740 420.186
987.791 310.886
987.841 235.846
987.892 184.599
987.942 148.879
988.043 104.112
988.143 78.4301
988.244 62.2803
988.345 51.4160
988.546 37.9582
988.748 30.0633
988.949 24.9057
989.352 18.5387
989.755 14.6921
990.158 12.0660
990.964 8.78743
991.770 7.80955
992.173 8.90831
992.374 10.2669
992.575 12.5259
992.777 16.1876
992.978 22.1149
993.180 31.8968
993.381 48.6006
993.583 78.7134
993.683 102.834
993.784 137.100
993.885 187.040
993.986 261.493
994.086 374.779
994.187 547.259
994.344 961.536
994.500 1316.85
994.657 1151.37
994.813 784.495
994.975 517.864
995.137 361.677
995.299 268.257
995.461 209.107
995.624 169.503
995.786 141.685
996.110 105.999
996.434 84.6102
996.758 70.6201
997.407 53.7309
998.055 44.0584
998.703 37.8536
1000.00 30.4026
1001.20 26.3478
1002.40 23.6279
1004.80 20.1824
1007.20 18.0557
1009.61 16.5827
1014.41 14.6018
1019.21 13.2339
1024.01 12.1186
1028.81 11.0563
1031.21 10.4926
1033.62 9.89343
1034.82 9.60444
1036.02 9.41307
1036.62 9.45963
1036.92 9.58662
1037.22 9.87186
1037.52 10.5194
1037.67 11.1507
1037.82 12.2407
1037.97 14.3419
1038.04 16.2039
1038.12 19.1844
1038.19 24.3721
1038.27 34.5113
1038.31 43.6792
1038.34 57.7710
1038.38 81.7180
1038.42 120.870
1038.46 187.740
1038.50 230.113
1038.54 184.555
1038.58 119.034
1038.61 88.6980
1038.64 67.8635
1038.69 43.9866
1038.74 31.5602
1038.80 24.7239
1038.85 20.4950
1038.90 17.8186
1039.01 14.7274
1039.12 13.1219
1039.22 12.2530
1039.44 11.5536
1039.86 12.0965
1040.29 14.6509
1040.72 20.8432
1040.93 26.8203
1041.14 36.7658
1041.35 54.3949
1041.57 88.4366
1041.67 117.842
1041.78 161.731
1041.89 230.159
1041.99 335.152
1042.15 568.455
1042.30 754.274
1042.45 642.550
1042.61 429.665
1042.77 274.351
1042.94 187.267
1043.11 136.892
1043.27 105.797
1043.44 85.3910
1043.60 71.2930
1043.93 53.5923
1044.27 43.1772
1044.60 36.5049
1045.26 28.5979
1045.92 24.1690
1046.59 21.3821
1047.25 19.4751
1047.91 18.0896
1049.24 16.2033
1050.57 14.9654
1053.22 13.3803
1055.87 12.3307
1058.53 11.4992
1059.85 11.1132
1061.18 10.7209
1061.84 10.5131
1062.17 10.4050
1062.51 10.2971
1062.84 10.2016
1063.00 10.1743
1063.17 10.1901
1063.33 10.3270
1063.42 10.5115
1063.50 10.8808
1063.58 11.6676
1063.63 12.4045
1063.67 13.5626
1063.71 15.5865
1063.75 19.2035
1063.79 26.3519
1063.83 41.3332
1063.87 63.7309
1063.90 80.9269
1063.94 70.1105
1063.97 50.1357
1064.00 38.9647
1064.02 31.4640
1064.05 26.4433
1064.07 23.1069
1064.12 18.8827
1064.17 16.4874
1064.23 14.9981
1064.28 14.0044
1064.38 12.7884
1064.48 12.0811
1064.58 11.6304
1064.79 11.0826
1064.99 10.7540
1065.20 10.5290
1065.61 10.2186
1066.42 9.80689
1067.24 9.48110
1068.88 8.87171
1070.51 8.22093
1072.15 7.49065
1072.97 7.11932
1073.79 6.83216
1074.60 6.93422
1075.01 7.44874
1075.42 8.81484
1075.83 12.3448
1076.04 16.0280
1076.24 22.4915
1076.44 34.7972
1076.55 45.1209
1076.65 60.4911
1076.75 84.2514
1076.85 122.556
1076.95 186.837
1077.06 296.389
1077.18 506.726
1077.30 678.832
1077.42 583.237
1077.54 392.025
1077.66 265.498
1077.77 188.653
1077.89 141.359
1078.00 110.851
1078.23 75.5763
1078.46 56.7506
1078.69 45.4598
1078.92 38.0949
1079.38 29.2703
1079.84 24.2471
1080.30 21.0441
1081.22 17.2015
1082.14 14.9348
1083.06 13.3874
1084.90 11.2338
1086.74 9.57979
1087.66 8.85274
1088.58 8.27963
1089.04 8.14714
1089.50 8.26217
1089.96 8.90283
1090.42 10.7435
1090.65 12.6115
1090.88 15.7035
1091.11 20.9855
1091.34 30.4260
1091.57 48.8018
1091.68 64.6383
1091.80 88.7354
1091.91 127.045
1092.03 191.128
1092.14 304.037
1092.25 505.795
1092.38 862.801
1092.50 1151.59
1092.62 984.700
1092.75 658.192
1092.85 454.786
1092.96 327.239
1093.07 246.670
1093.18 194.121
1093.39 131.660
1093.61 98.0054
1093.82 77.5855
1094.04 64.2939
1094.47 48.3112
1094.90 39.2949
1095.33 33.6080
1095.76 29.7324
1096.19 26.9374
1097.06 23.1927
1097.92 20.8037
1098.78 19.1435
1099.64 17.9169
1101.37 16.2062
1103.09 15.0443
1106.54 13.4893
1109.99 12.3958
1113.43 11.4689
1115.16 11.0090
1116.88 10.5105
1117.74 10.2278
1118.18 10.0726
1118.61 9.90705
1119.04 9.73969
1119.25 9.66957
1119.47 9.64016
1119.68 9.74250
1119.79 9.93134
1119.90 10.3492
1120.01 11.3307
1120.06 12.2965
1120.11 13.8978
1120.17 16.8513
1120.22 22.7605
1120.25 28.0106
1120.28 36.1745
1120.30 49.2777
1120.33 69.4921
1120.35 89.2803
1120.37 112.942
1120.40 146.540
1120.44 125.129
1120.47 86.2099
1120.50 64.5131
1120.52 50.5184
1120.55 40.7872
1120.58 34.3539
1120.63 26.2744
1120.68 21.7938
1120.74 18.9596
1120.79 17.0797
1120.89 14.8119
1121.00 13.5005
1121.10 12.6710
1121.32 11.6730
1121.53 11.0920
1121.74 10.7028
1122.16 10.1883
1123.00 9.54011
1123.85 9.03673
1124.69 8.55135
1125.11 8.30538
1125.53 8.07004
1125.95 7.90434
1126.17 7.91642
1126.38 8.11539
1126.59 8.82675
1126.69 9.67039
1126.80 11.2679
1126.90 14.6220
1126.96 17.7028
1127.01 22.5603
1127.06 31.0331
1127.11 46.4200
1127.14 59.6969
1127.17 78.4400
1127.19 106.258
1127.22 147.518
1127.26 244.555
1127.30 320.188
1127.34 269.976
1127.38 179.171
1127.41 135.311
1127.44 105.539
1127.49 69.0075
1127.54 49.6487
1127.59 38.3794
1127.65 31.2750
1127.70 26.5040
1127.81 20.6595
1127.91 17.3106
1128.02 15.1826
1128.23 12.6693
1128.44 11.2399
1128.65 10.3076
1129.08 9.12259
1129.50 8.34857
1129.93 7.76387
1130.77 6.91896
1131.20 6.67424
1131.62 6.65997
1132.05 7.12350
1132.47 8.68249
1132.68 10.3327
1132.89 13.1124
1133.10 17.9159
1133.32 26.6109
1133.42 33.5887
1133.53 43.5233
1133.63 58.0762
1133.74 80.1411
1133.85 114.999
1133.95 172.720
1134.06 272.895
1134.16 448.293
1134.28 773.232
1134.40 1038.55
1134.52 893.733
1134.64 602.443
1134.72 447.872
1134.81 341.045
1134.89 267.698
1134.97 216.807
1135.14 152.371
1135.31 115.242
1135.47 91.8127
1135.64 76.1969
1135.98 57.0219
1136.31 45.9612
1136.64 38.9363
1137.31 30.6450
1137.98 25.9840
1138.65 23.0291
1139.32 20.9954
1139.99 19.5128
1141.33 17.4842
1142.66 16.1534
1145.34 14.4755
1148.01 13.4167
1150.69 12.6483
1156.04 11.5045
1161.39 10.5514
1166.73 9.56332
1169.41 8.98094
1172.08 8.26938
1173.42 7.83339
1174.76 7.31708
1175.43 7.02184
1176.10 6.71402
1176.43 6.58493
1176.60 6.55283
1176.76 6.58198
1176.93 6.77158
1177.02 7.01495
1177.10 7.48072
1177.18 8.45631
1177.22 9.34267
1177.27 10.7144
1177.31 13.0761
1177.35 17.3770
1177.39 25.9371
1177.43 43.4956
1177.45 55.0446
1177.47 68.6400
1177.50 87.7013
1177.53 74.1334
1177.57 50.3341
1177.61 33.3280
1177.64 24.1476
1177.68 18.8356
1177.71 15.5576
1177.79 11.9235
1177.86 10.0553
1177.93 8.94433
1178.00 8.23645
1178.15 7.38024
1178.44 6.53837
1178.72 6.09826
1179.30 5.63863
1179.88 5.65316
1180.45 6.78548
1180.74 8.46752
1181.03 11.9984
1181.18 15.1478
1181.32 19.9342
1181.46 27.5114
1181.61 40.0836
1181.75 62.4957
1181.83 80.2086
1181.90 105.291
1181.97 141.777
1182.04 196.324
1182.11 279.710
1182.19 407.418
1182.29 700.636
1182.40 937.647
1182.51 803.193
1182.62 539.008
1182.71 376.441
1182.80 273.068
1182.89 207.006
1182.98 163.201
1183.17 111.225
1183.35 82.8569
1183.54 65.6327
1183.72 54.3234
1184.09 40.7067
1184.46 32.9924
1184.82 28.1111
1185.19 24.7755
1185.56 22.3637
1186.30 19.1193
1187.03 17.0347
1187.77 15.5717
1188.50 14.4775
1189.97 12.9058
1191.45 11.7766
1194.39 10.0599
1197.33 8.49338
1198.81 7.62562
1200.28 6.62775
1201.75 5.45963
1202.48 4.84831
1203.22 4.36272
1203.96 4.50863
1204.32 5.35024
1204.51 6.21926
1204.69 7.61175
1204.88 9.84295
1205.06 13.4720
1205.24 19.5503
1205.43 30.2066
1205.52 38.5435
1205.61 50.1684
1205.70 66.7852
1205.80 91.2392
1205.89 128.451
1205.98 187.167
1206.07 282.919
1206.16 438.403
1206.28 760.821
1206.40 1030.38
1206.52 891.883
1206.64 602.241
1206.72 447.466
1206.81 341.585
1206.89 268.622
1206.98 217.317
1207.14 152.419
1207.31 115.209
1207.48 91.6640
1207.65 75.9285
1207.99 56.4951
1208.32 45.2711
1208.66 38.0875
1209.33 29.5516
1210.01 24.6993
1210.68 21.5696
1212.03 17.7065
1213.38 15.2855
1214.73 13.4281
1215.40 12.5479
1215.74 12.0902
1216.07 11.6106
1216.41 11.1258
1216.58 10.9192
1216.75 10.8261
1216.92 11.1043
1217.00 11.6237
1217.09 12.7719
1217.17 15.4079
1217.21 17.8790
1217.25 21.8872
1217.30 28.7049
1217.32 33.9111
1217.34 41.0155
1217.36 50.8796
1217.38 64.7961
1217.40 84.6326
1217.42 112.774
1217.44 149.090
1217.46 190.943
1217.50 258.267
1217.52 254.434
1217.54 228.147
1217.58 159.402
1217.61 113.276
1217.65 84.4691
1217.69 66.3572
1217.72 54.4787
1217.79 40.4966
1217.87 32.9706
1217.94 28.3145
1218.01 25.2836
1218.15 21.5768
1218.30 19.4540
1218.44 18.1292
1218.72 16.6347
1219.30 15.7228
1219.87 16.5392
1220.44 19.9327
1220.73 23.6623
1221.02 30.2519
1221.30 42.7315
1221.59 68.6267
1221.73 92.4380
1221.87 130.674
1222.02 194.598
1222.16 303.104
1222.33 508.290
1222.50 671.637
1222.67 571.966
1222.84 382.635
1223.00 258.336
1223.16 183.891
1223.32 138.047
1223.48 108.800
1223.80 75.0409
1224.12 57.1372
1224.45 46.4515
1224.77 39.5076
1225.41 31.2168
1226.05 26.5197
1226.69 23.5372
1227.97 19.9691
1229.26 17.8915
1230.54 16.5025
1233.11 14.6716
1235.67 13.3836
1236.95 12.8096
1238.24 12.2297
1239.52 11.5972
1240.16 11.2440
1240.80 10.8647
1241.45 10.4996
1241.77 10.3872
1242.09 10.4561
1242.41 11.0850
1242.57 11.9666
1242.73 13.7678
1242.89 17.7361
1242.97 21.4465
1243.05 27.4979
1243.13 37.9496
1243.21 57.3813
1243.25 73.4543
1243.29 96.8304
1243.33 131.405
1243.37 182.473
1243.44 309.779
1243.50 412.749
1243.57 355.032
1243.63 241.387
1243.70 160.741
1243.77 113.817
1243.83 85.8873
1243.90 68.2867
1243.97 56.5577
1244.03 48.3582
1244.17 37.9078
1244.30 31.6978
1244.44 27.6671
1244.70 22.8446
1244.97 20.1089
1245.24 18.3620
1245.78 16.2587
1246.31 15.0163
1246.85 14.1678
1247.92 12.9932
1248.99 12.0765
1249.53 11.6276
1250.06 11.1517
1250.60 10.6427
1250.87 10.4019
1251.14 10.2473
1251.40 10.4289
1251.54 10.8973
1251.67 12.0347
1251.81 14.8161
1251.87 17.6106
1251.94 22.4001
1252.01 31.1497
1252.04 38.4097
1252.07 48.5958
1252.11 64.2414
1252.14 87.5813
1252.17 125.598
1252.21 184.159
1252.23 244.492
1252.25 314.065
1252.30 419.278
1252.32 409.511
1252.35 362.652
1252.39 248.455
1252.45 156.957
1252.50 108.292
1252.56 80.3049
1252.61 63.6048
1252.67 52.5342
1252.72 45.0614
1252.83 35.6426
1252.94 30.0535
1253.05 26.4527
1253.26 22.1812
1253.48 19.7528
1253.70 18.2125
1253.92 17.1472
1254.13 16.3660
1254.57 15.2902
1255.00 14.5794
1255.87 13.6706
1256.74 13.0882
1257.61 12.6633
1259.35 12.0415
1262.82 11.1571
1266.30 10.4089
1269.78 9.63075
1271.52 9.19262
1273.25 8.70624
1274.99 8.19436
1275.86 7.98463
1276.73 7.93602
1277.60 8.43986
1278.04 9.28146
1278.47 11.1327
1278.90 15.4395
1279.12 19.6580
1279.34 26.8017
1279.56 39.8246
1279.77 65.6144
1279.88 88.4732
1279.99 123.397
1280.10 179.383
1280.21 268.029
1280.35 455.414
1280.50 605.806
1280.65 518.462
1280.79 348.514
1280.91 251.886
1281.02 187.826
1281.14 145.413
1281.25 116.740
1281.48 81.5778
1281.70 61.8949
1281.93 49.7150
1282.16 41.6756
1282.61 31.8869
1283.07 26.2526
1283.52 22.6775
1283.75 21.4401
1283.86 21.0045
1283.97 20.8042
1284.09 21.1134
1284.15 21.6934
1284.20 22.8521
1284.26 25.2401
1284.32 30.3917
1284.34 35.2723
1284.37 42.8100
1284.40 55.1655
1284.43 75.6084
1284.46 117.488
1284.50 152.094
1284.54 132.902
1284.57 94.6274
1284.60 74.8920
1284.62 61.1829
1284.67 45.2544
1284.72 36.6895
1284.77 31.7808
1284.82 28.5793
1284.87 26.4321
1284.97 23.6964
1285.07 22.0127
1285.16 20.8791
1285.36 19.3872
1285.56 18.4063
1285.76 17.6863
1286.15 16.6391
1286.94 15.2643
1287.73 14.3312
1289.30 13.0576
1290.88 12.1752
1294.04 10.9052
1297.19 9.87326
1300.35 8.82119
1301.92 8.21559
1303.50 7.50200
1305.08 6.62086
1305.87 6.10576
1306.65 5.57452
1307.05 5.34466
1307.44 5.20987
1307.84 5.31396
1308.23 6.02840
1308.43 6.90109
1308.63 8.45893
1308.82 11.2872
1309.02 16.6385
1309.12 21.0972
1309.22 27.5325
1309.32 37.3161
1309.41 52.4658
1309.51 77.6047
1309.61 120.912
1309.71 202.070
1309.76 266.986
1309.81 356.728
1309.90 614.135
1310.00 826.483
1310.10 711.679
1310.19 478.618
1310.26 355.703
1310.33 271.819
1310.39 213.930
1310.46 173.180
1310.60 121.537
1310.73 91.9798
1310.87 73.2660
1311.00 60.7945
1311.27 45.4530
1311.54 36.5799
1311.81 30.9210
1312.34 24.2382
1312.88 20.4575
1313.42 18.0428
1314.49 15.1082
1315.57 13.3484
1316.64 12.1287
1318.79 10.4318
1320.94 9.23336
1322.02 8.82522
1323.09 8.71697
1324.17 9.44809
1324.71 10.6424
1325.24 13.1933
1325.78 18.9185
1326.05 24.3784
1326.32 33.3532
1326.59 49.1475
1326.85 79.0214
1326.99 104.445
1327.12 141.873
1327.26 198.455
1327.39 284.023
1327.60 482.343
1327.80 641.449
1328.01 548.435
1328.21 367.099
1328.42 240.507
1328.63 167.248
1328.84 123.600
1329.04 96.0762
1329.25 77.6517
1329.46 64.8338
1329.88 48.4632
1330.29 38.6655
1330.71 32.2644
1331.54 24.4126
1332.37 19.6678
1332.79 17.8935
1333.21 16.4413
1333.62 15.4955
1333.83 15.4760
1334.04 16.2312
1334.25 18.9264
1334.35 21.9783
1334.46 27.5325
1334.56 38.2387
1334.61 47.3167
1334.66 60.8591
1334.72 81.7835
1334.77 115.406
1334.82 171.473
1334.87 266.220
1334.94 453.825
1335.00 610.555
1335.06 529.444
1335.13 360.572
1335.20 235.779
1335.27 165.614
1335.33 123.827
1335.40 98.1153
1335.47 80.8136
1335.54 68.9262
1335.68 53.6538
1335.81 44.5539
1335.95 38.6148
1336.22 31.4498
1336.50 27.2900
1336.77 24.5883
1337.32 21.2348
1337.87 19.1858
1338.41 17.7661
1339.51 15.8370
1340.60 14.5029
1341.70 13.4626
1343.88 11.7920
1346.07 10.3394
1347.17 9.65696
1348.26 9.06928
1349.36 8.86175
1349.90 9.20967
1350.45 10.3899
1351.00 13.6890
1351.27 17.1925
1351.55 23.3609
1351.82 35.0006
1351.96 44.7004
1352.09 58.8412
1352.23 80.4477
1352.37 114.432
1352.50 169.594
1352.64 259.076
1352.82 446.930
1353.00 605.085
1353.18 525.895
1353.36 357.740
1353.55 234.853
1353.74 164.259
1353.93 122.251
1354.12 95.9981
1354.31 78.4243
1354.50 66.1970
1354.88 50.5225
1355.26 41.1494
1355.63 35.0104
1356.39 27.5277
1357.15 23.1037
1357.91 20.0749
1358.29 18.8683
1358.48 18.3496
1358.67 17.9495
1358.86 17.8483
1358.95 18.0882
1359.05 18.7917
1359.14 20.5936
1359.19 22.3624
1359.23 25.3103
1359.28 30.6209
1359.33 40.4403
1359.38 60.4936
1359.40 78.5612
1359.42 104.128
1359.44 134.604
1359.46 169.400
1359.50 221.767
1359.54 192.941
1359.58 135.620
1359.61 104.118
1359.63 82.4985
1359.66 67.7471
1359.69 57.4542
1359.75 44.5838
1359.80 37.2883
1359.86 32.5949
1359.91 29.4283
1360.02 25.5149
1360.14 23.1747
1360.25 21.6397
1360.47 19.6994
1360.69 18.4743
1360.91 17.5935
1361.36 16.3253
1362.25 14.5532
1363.14 13.1055
1364.03 11.7174
1364.48 11.0497
1364.92 10.5095
1365.37 10.4846
1365.59 11.0631
1365.81 12.6733
1366.04 16.7871
1366.15 20.8867
1366.26 27.7662
1366.37 39.9984
1366.48 62.7064
1366.54 81.5969
1366.59 108.330
1366.65 148.057
1366.70 204.795
1366.80 360.835
1366.90 497.917
1367.00 442.678
1367.10 309.120
1367.21 205.167
1367.31 145.399
1367.42 110.168
1367.53 88.2189
1367.64 73.4294
1367.74 63.1481
1367.96 49.8721
1368.17 41.8841
1368.39 36.6312
1368.82 30.2325
1369.25 26.5182
1369.68 24.1008
1370.54 21.1339
1371.40 19.3609
1372.26 18.1614
1373.98 16.5973
1375.70 15.5799
1377.42 14.8338
1380.86 13.7482
1384.30 12.9230
1387.74 12.1862
1389.46 11.7999
1390.32 11.5858
1391.18 11.3441
1392.04 11.0558
1392.47 10.8861
1392.90 10.6984
1393.11 10.6024
1393.33 10.5151
1393.54 10.4603
1393.76 10.5042
1393.97 10.8580
1394.08 11.3529
1394.19 12.3650
1394.30 14.6218
1394.35 16.7714
1394.40 20.2435
1394.46 26.4400
1394.51 38.2701
1394.54 48.3093
1394.57 63.2549
1394.59 85.9798
1394.62 119.006
1394.64 155.875
1394.66 198.028
1394.70 262.679
1394.74 226.072
1394.78 153.950
1394.81 114.173
1394.84 88.2346
1394.87 70.2048
1394.90 58.1791
1394.97 43.0558
1395.03 34.5048
1395.09 29.2011
1395.15 25.6716
1395.27 21.3996
1395.39 18.9340
1395.51 17.3798
1395.76 15.5374
1396.00 14.4957
1396.24 13.8327
1396.49 13.3706
1396.73 13.0278
1397.22 12.5456
1397.70 12.2148
1398.67 11.7646
1399.65 11.4463
1400.62 11.1901
1402.56 10.7612
1406.45 10.0023
1410.34 9.20431
1414.24 8.22740
1416.18 7.61032
1418.13 6.84837
1420.07 5.86170
1421.04 5.24676
1422.02 4.53191
1422.99 3.73781
1423.47 3.36896
1423.96 3.15091
1424.45 3.47174
1424.57 3.75976
1424.69 4.20234
1424.81 4.88022
1424.93 5.89700
1425.06 7.45953
1425.18 9.86375
1425.30 13.7356
1425.42 20.1244
1425.48 24.9526
1425.54 31.4658
1425.60 40.4263
1425.66 52.7835
1425.72 70.8224
1425.78 97.4146
1425.85 137.337
1425.91 196.060
1426.00 342.711
1426.10 465.891
1426.20 405.391
1426.30 276.566
1426.37 206.825
1426.44 158.735
1426.51 125.853
1426.57 103.216
1426.71 74.7403
1426.85 59.0614
1427.13 44.7614
1427.41 42.3163
1427.69 49.8370
1427.83 59.0923
1427.97 74.7026
1428.11 101.418
1428.25 148.106
1428.39 234.292
1428.52 397.996
1428.66 670.962
1428.80 891.538
1428.94 763.555
1429.08 513.031
1429.23 324.392
1429.39 220.350
1429.54 160.855
1429.70 124.360
1429.85 100.472
1430.01 83.9699
1430.32 63.1448
1430.63 50.8481
1430.94 42.8739
1431.56 33.2990
1432.18 27.8207
1432.80 24.2902
1434.04 19.9939
1435.28 17.4342
1436.52 15.6845
1439.00 13.2849
1441.48 11.4453
1442.72 10.5494
1443.95 9.58966
1445.19 8.51422
1445.81 7.94785
1446.43 7.45284
1447.05 7.37481
1447.36 7.86540
1447.67 9.36016
1447.98 13.4546
1448.14 17.8178
1448.29 25.6100
1448.45 40.5124
1448.53 53.2362
1448.60 72.0056
1448.68 101.502
1448.76 148.551
1448.84 227.367
1448.91 361.340
1449.01 625.136
1449.10 842.086
1449.19 726.998
1449.29 492.172
1449.36 355.206
1449.43 265.569
1449.51 206.024
1449.58 165.340
1449.73 115.331
1449.87 87.4676
1450.02 70.1223
1450.17 58.6703
1450.46 44.6926
1450.75 36.6489
1451.04 31.5220
1451.63 25.4525
1452.22 21.9997
1452.80 19.7797
1453.97 17.0613
1455.14 15.4157
1456.31 14.2712
1458.65 12.6731
1461.00 11.4627
1463.34 10.3352
1464.51 9.72175
1465.09 9.38194
1465.68 9.00719
1466.26 8.58887
1466.56 8.36967
1466.85 8.17024
1467.14 8.08259
1467.29 8.17990
1467.43 8.54227
1467.58 9.60101
1467.65 10.7446
1467.73 12.8071
1467.80 16.7972
1467.87 25.3777
1467.91 33.6425
1467.95 46.8987
1467.96 57.3197
1467.98 70.4699
1468.00 87.9302
1468.02 110.954
1468.04 146.003
1468.06 186.074
1468.10 247.506
1468.12 240.666
1468.14 212.649
1468.18 144.040
1468.22 103.271
1468.25 77.6576
1468.28 60.5060
1468.32 49.3312
1468.38 35.6581
1468.45 28.1018
1468.52 23.4727
1468.58 20.4103
1468.72 16.7049
1468.85 14.5506
1468.98 13.1682
1469.25 11.4671
1469.52 10.4337
1469.79 9.70636
1470.32 8.67834
1470.85 7.99160
1471.12 7.84037
1471.39 8.01777
1471.66 9.07401
1471.79 10.4250
1471.92 13.0197
1472.06 18.3644
1472.12 23.1111
1472.19 30.3291
1472.26 42.1238
1472.32 62.1296
1472.39 97.8284
1472.46 161.869
1472.53 278.337
1472.60 376.957
1472.67 328.638
1472.74 224.698
1472.81 159.661
1472.87 118.566
1472.93 91.9940
1472.99 74.1986
1473.11 52.7080
1473.23 40.9335
1473.36 33.6442
1473.48 28.8479
1473.72 22.9602
1473.97 19.5545
1474.21 17.3518
1474.70 14.6688
1475.19 13.0713
1475.68 11.9826
1476.66 10.5213
1478.62 8.69110
1480.58 7.39708
1482.54 6.62362
1483.52 6.77003
1484.50 7.94261
1484.99 9.35762
1485.48 11.8599
1485.97 16.3204
1486.46 24.5512
1486.71 31.2098
1486.95 40.7143
1487.20 54.6364
1487.44 75.6777
1487.69 108.681
1487.93 162.658
1488.18 254.573
1488.42 412.727
1488.71 718.550
1489.00 977.956
1489.29 854.624
1489.58 583.398
1489.91 371.464
1490.24 253.798
1490.57 185.889
1490.90 144.164
1491.23 116.662
1491.56 97.6638
1492.22 73.5701
1492.88 59.3049
1493.53 50.0432
1494.85 38.9239
1496.17 32.5431
1497.49 28.3777
1498.15 26.7503
1498.80 25.3064
1499.13 24.6550
1499.30 24.3746
1499.46 24.1806
1499.63 24.2223
1499.71 24.4691
1499.79 25.0737
1499.88 26.5009
1499.92 27.8378
1499.96 29.9903
1500.00 33.6070
1500.04 40.0261
1500.08 52.1396
1500.12 75.8663
1500.16 115.825
1500.20 148.506
1500.24 131.701
1500.28 96.9256
1500.31 78.0803
1500.34 64.9640
1500.36 55.9043
1500.39 49.5191
1500.45 41.4461
1500.50 36.7502
1500.56 33.7670
1500.62 31.7371
1500.73 29.1862
1500.84 27.6586
1500.95 26.6373
1501.17 25.3363
1501.40 24.5020
1501.62 23.8955
1502.07 23.0178
1502.96 21.8264
1503.86 20.9547
1505.65 19.6425
1507.44 18.6496
1511.02 17.1835
1514.60 16.1099
1518.18 15.2468
1521.75 14.4782
1523.54 14.0860
1524.44 13.8731
1525.33 13.6364
1526.23 13.3563
1526.68 13.1903
1527.12 13.0022
1527.57 12.7989
1527.80 12.7114
1528.02 12.6806
1528.24 12.8474
1528.35 13.1418
1528.47 13.7883
1528.58 15.2891
1528.63 16.7438
1528.69 19.1683
1528.75 23.4519
1528.80 31.6227
1528.86 48.7382
1528.89 64.1346
1528.91 86.3264
1528.96 141.230
1529.00 187.268
1529.04 163.867
1529.09 114.614
1529.13 80.7371
1529.17 60.7732
1529.22 48.2463
1529.26 40.3776
1529.30 34.9247
1529.34 31.1597
1529.43 26.2813
1529.51 23.3069
1529.60 21.3633
1529.77 19.0344
1529.94 17.6981
1530.11 16.8489
1530.44 15.8295
1530.78 15.2348
1531.12 14.8413
1531.80 14.3345
1532.48 14.0037
1533.15 13.7561
1534.51 13.3772
1537.22 12.7854
1539.92 12.2246
1542.63 11.5739
1543.99 11.1663
1545.34 10.6543
1546.02 10.3372
1546.70 9.96191
1547.37 9.50891
1548.05 8.95844
1548.39 8.64623
1548.73 8.32490
1549.07 8.03717
1549.40 7.92402
1549.74 8.45889
1549.91 9.42663
1550.08 11.5920
1550.25 16.6311
1550.34 21.5096
1550.42 29.4834
1550.50 43.5695
1550.55 54.4572
1550.59 69.5865
1550.63 91.6691
1550.67 123.048
1550.72 169.198
1550.76 236.937
1550.83 413.906
1550.90 563.446
1550.94 554.365
1550.97 492.134
1551.04 337.686
1551.12 226.116
1551.19 161.033
1551.26 121.661
1551.33 96.5290
1551.41 79.4123
1551.48 67.5348
1551.62 52.2364
1551.77 42.9892
1551.91 36.9849
1552.20 29.7202
1552.49 25.5791
1552.78 22.9366
1553.07 21.1151
1553.36 19.7871
1553.93 17.9823
1554.51 16.8097
1555.09 15.9810
1555.67 15.3597
1556.82 14.4709
1557.98 13.8466
1560.29 12.9617
1562.60 12.2814
1564.91 11.6482
1566.07 11.3127
1567.22 10.9356
1567.80 10.7162
1568.38 10.4622
1568.67 10.3252
1568.81 10.2638
1568.96 10.2281
1569.10 10.2767
1569.17 10.3871
1569.24 10.6389
1569.32 11.2134
1569.35 11.7566
1569.39 12.6363
1569.42 14.1279
1569.46 16.8091
1569.50 21.9585
1569.53 32.2888
1569.57 49.4740
1569.60 64.3211
1569.63 57.3785
1569.67 42.1108
1569.70 32.8973
1569.72 26.8808
1569.75 22.9472
1569.78 20.2892
1569.84 17.0667
1569.89 15.2877
1569.95 14.1597
1570.00 13.4047
1570.11 12.4761
1570.23 11.9213
1570.34 11.5563
1570.56 11.0908
1571.01 10.5714
1571.45 10.2428
1572.34 9.76500
1573.23 9.44071
1574.12 9.48663
1574.57 9.92122
1575.01 11.0953
1575.46 14.1273
1575.68 17.2494
1575.91 22.6480
1576.13 32.6804
1576.35 52.9764
1576.46 71.1571
1576.57 99.1246
1576.69 143.707
1576.80 215.237
1576.95 369.437
1577.10 499.285
1577.25 434.346
1577.40 296.371
1577.51 222.741
1577.62 171.695
1577.73 136.560
1577.84 111.879
1578.05 80.8259
1578.27 62.9649
1578.48 51.6589
1578.70 44.0516
1579.13 34.6928
1579.56 29.2600
1579.99 25.7816
1580.86 21.6291
1581.72 19.2497
1582.58 17.7029
1583.44 16.6022
1584.31 15.7624
1586.03 14.4915
1586.90 13.9514
1587.76 13.4170
1588.62 12.8352
1589.05 12.5048
1589.48 12.1384
1589.92 11.7528
1590.13 11.5956
1590.35 11.5607
1590.56 11.9374
1590.67 12.5568
1590.78 13.8825
1590.89 16.8957
1590.94 19.7683
1590.99 24.4857
1591.05 32.6604
1591.10 47.8374
1591.13 60.3318
1591.16 78.3920
1591.18 104.871
1591.21 141.867
1591.23 186.344
1591.25 240.235
1591.30 323.664
1591.32 318.023
1591.35 283.065
1591.39 195.390
1591.44 135.768
1591.48 100.124
1591.52 77.5271
1591.57 63.2096
1591.65 46.3091
1591.74 37.2941
1591.83 31.7717
1591.91 28.1848
1592.09 23.8150
1592.26 21.3039
1592.43 19.7079
1592.61 18.6040
1592.78 17.7961
1593.13 16.6885
1593.47 15.9638
1594.16 15.0516
1594.86 14.4794
1595.55 14.0704
1596.93 13.4888
1598.32 13.0582
1599.71 12.6977
1602.48 12.0508
1605.25 11.3669
1606.63 10.9558
1608.02 10.4476
1608.71 10.1355
1609.40 9.76722
1610.10 9.32437
1610.79 8.79029
1611.13 8.48965
1611.48 8.18441
1611.83 7.92187
1612.17 7.84989
1612.52 8.46851
1612.69 9.51724
1612.87 11.8273
1613.04 17.1186
1613.13 22.2500
1613.21 30.6432
1613.30 45.4979
1613.34 57.0146
1613.38 73.0647
1613.43 96.5658
1613.47 130.137
1613.51 179.792
1613.56 253.103
1613.63 439.789
1613.70 595.740
1613.77 519.127
1613.84 355.623
1613.90 265.530
1613.95 204.436
1614.00 162.342
1614.05 132.738
1614.15 95.4316
1614.25 73.8525
1614.35 60.2467
1614.46 51.0778
1614.66 39.7629
1614.87 33.1838
1615.07 28.9909
1615.27 26.1034
1615.48 24.0075
1615.89 21.1819
1616.29 19.3840
1616.70 18.1403
1617.11 17.2289
1617.93 15.9774
1618.74 15.1526
1619.56 14.5607
1620.38 14.1095
1622.01 13.4480
1623.64 12.9658
1626.91 12.2394
1630.18 11.6137
1631.81 11.2852
1633.44 10.9124
1635.08 10.4499
1635.89 10.1600
1636.71 9.80868
1637.53 9.37295
1637.94 9.12419
1638.34 8.88007
1638.75 8.75005
1638.96 8.85123
1639.16 9.28149
1639.36 10.5818
1639.47 12.0152
1639.57 14.6149
1639.67 19.6402
1639.77 30.3327
1639.82 40.2933
1639.87 56.4016
1639.93 83.4724
1639.98 129.631
1640.04 220.500
1640.10 297.196
1640.16 259.154
1640.22 177.919
1640.29 116.096
1640.36 81.8347
1640.43 61.8799
1640.50 49.4731
1640.57 41.1713
1640.63 35.4894
1640.77 28.2546
1640.91 23.9163
1641.04 21.1047
1641.32 17.6858
1641.59 15.6770
1641.86 14.3372
1642.41 12.5765
1642.95 11.3658
1643.23 10.9048
1643.50 10.6297
1643.77 10.8807
1643.91 11.5492
1644.04 13.1203
1644.18 16.8641
1644.25 20.4891
1644.32 26.5159
1644.38 37.0903
1644.42 45.3946
1644.45 57.0055
1644.49 73.6042
1644.52 97.8563
1644.55 133.874
1644.59 187.288
1644.64 321.333
1644.70 435.351
1644.73 427.911
1644.76 380.478
1644.81 261.187
1644.87 170.418
1644.94 119.919
1645.00 90.3743
1645.06 71.9471
1645.12 59.7377
1645.18 51.2264
1645.30 40.3889
1645.42 33.9384
1645.55 29.7378
1645.79 24.6849
1646.03 21.7992
1646.28 19.9490
1646.52 18.6659
1646.77 17.7239
1647.25 16.4287
1647.74 15.5781
1648.72 14.5106
1649.70 13.8509
1650.67 13.3911
1652.62 12.7657
1654.58 12.3330
1656.53 11.9894
1657.51 11.8314
1658.48 11.6705
1658.97 11.5836
1659.46 11.4913
1659.70 11.4517
1659.95 11.4586
1660.07 11.5400
1660.19 11.8391
1660.25 12.2386
1660.31 13.1329
1660.34 14.0199
1660.37 15.4617
1660.40 18.0922
1660.43 22.6821
1660.47 31.3044
1660.50 38.3213
1660.53 34.6797
1660.57 27.2179
1660.60 22.2004
1660.63 19.0961
1660.66 17.1572
1660.69 15.9251
1660.75 14.4429
1660.81 13.6346
1660.93 12.8150
1661.06 12.4154
1661.30 12.0285
1661.55 11.8381
1662.03 11.6351
1662.52 11.5145
1663.50 11.3495
1664.48 11.2214
1668.39 10.8005
1672.30 10.4054
1676.21 9.98174
1680.13 9.47827
1682.08 9.16921
1684.04 8.79289
1685.99 8.30283
1686.97 7.98878
1687.95 7.60550
1688.44 7.38173
1688.93 7.13634
1689.42 6.87968
1689.90 6.65664
1690.15 6.60138
1690.39 6.64757
1690.64 6.91838
1690.88 7.70950
1691.13 9.86620
1691.25 12.1560
1691.37 16.2532
1691.49 24.1270
1691.55 30.8363
1691.62 40.9237
1691.68 56.6972
1691.74 82.4820
1691.80 126.502
1691.86 203.039
1691.93 347.647
1692.00 464.676
1692.07 400.015
1692.14 271.127
1692.19 202.468
1692.24 155.794
1692.29 122.969
1692.34 100.363
1692.44 71.5821
1692.54 54.9892
1692.64 44.5654
1692.74 37.5664
1692.93 29.0016
1693.13 24.0365
1693.33 20.8669
1693.72 17.1174
1694.12 14.9839
1694.51 13.6119
1695.31 11.9166
1696.10 10.8639
1696.89 10.0956
1698.47 8.89579
1700.05 7.78077
1700.84 7.18256
1701.63 6.55526
1702.03 6.25572
1702.42 6.01608
1702.82 5.94398
1703.22 6.32762
1703.61 8.03734
1703.81 10.1667
1704.01 14.2753
1704.11 17.7318
1704.20 22.7995
1704.30 30.4462
1704.40 42.4092
1704.50 61.9806
1704.60 95.7530
1704.70 157.410
1704.75 205.856
1704.80 271.928
1704.90 473.601
1705.00 642.540
1705.10 559.226
1705.20 381.505
1705.32 243.289
1705.43 166.492
1705.55 122.363
1705.66 95.1883
1705.78 77.3458
1705.89 64.9904
1706.12 49.3640
1706.35 40.1247
1706.58 34.1356
1707.04 26.9644
1707.50 22.8874
1707.96 20.2810
1708.42 18.4758
1708.88 17.1529
1709.80 15.3251
1710.72 14.1063
1712.56 12.5153
1714.40 11.4193
1716.24 10.4754
1717.16 9.97639
1717.62 9.69872
1718.08 9.39032
1718.54 9.04474
1718.77 8.86884
1719.00 8.72657
1719.23 8.73918
1719.34 8.92791
1719.46 9.44667
1719.57 10.7855
1719.63 12.1743
1719.69 14.5351
1719.75 18.9537
1719.80 27.6290
1719.83 35.3903
1719.86 46.8347
1719.89 65.4200
1719.92 93.6444
1719.94 123.605
1719.96 158.217
1720.00 213.120
1720.02 208.882
1720.04 186.090
1720.08 128.364
1720.11 101.350
1720.13 81.5851
1720.18 56.8214
1720.23 43.0663
1720.28 34.7787
1720.33 29.4136
1720.38 25.7327
1720.48 21.1133
1720.58 18.3954
1720.68 16.6339
1720.88 14.5138
1721.08 13.2914
1721.28 12.4937
1721.68 11.4977
1722.08 10.8758
1722.48 10.4279
1723.28 9.77227
1724.88 8.79022
1726.48 7.86528
1728.08 6.80583
1728.88 6.19024
1729.68 5.53436
1730.08 5.22609
1730.48 4.99439
1730.88 4.97321
1731.28 5.51100
1731.48 6.25333
1731.68 7.63552
1731.88 10.1951
1732.08 15.0712
1732.18 19.1012
1732.28 24.9435
1732.38 33.6447
1732.48 47.0436
1732.58 68.5292
1732.68 104.642
1732.78 168.301
1732.88 281.602
1732.99 493.188
1733.10 674.621
1733.21 589.398
1733.32 401.722
1733.40 301.953
1733.48 232.304
1733.56 184.074
1733.63 150.023
1733.79 106.934
1733.95 81.9030
1734.10 66.0709
1734.26 55.3742
1734.57 42.1317
1734.88 34.4281
1735.19 29.4676
1735.82 23.5374
1736.44 20.1313
1737.06 17.9240
1738.31 15.1864
1739.56 13.4905
1740.81 12.2650
1743.30 10.3908
1745.79 8.66905
1747.04 7.71055
1748.29 6.59936
1749.54 5.26645
1750.16 4.52093
1750.78 3.80705
1751.41 3.45871
1751.72 3.78770
1751.87 4.25638
1752.03 5.07803
1752.19 6.48178
1752.26 7.51133
1752.34 8.85096
1752.42 10.6023
1752.50 12.9083
1752.58 15.9734
1752.65 20.0971
1752.73 25.7278
1752.81 33.5549
1752.89 44.6680
1752.97 60.8417
1753.04 85.0451
1753.12 122.339
1753.20 181.248
1753.28 273.212
1753.39 484.718
1753.50 670.667
1753.61 592.809
1753.72 408.668
1753.79 318.919
1753.86 253.252
1754.00 171.711
1754.14 126.658
1754.28 99.8848
1754.42 82.9611
1754.56 72.1131
1754.84 61.1600
1755.12 60.5933
1755.40 72.4545
1755.54 86.5897
1755.67 110.615
1755.81 151.720
1755.95 221.604
1756.13 362.330
1756.30 478.533
1756.47 414.350
1756.65 284.777
1756.76 223.961
1756.86 179.600
1757.08 124.325
1757.29 93.4184
1757.50 74.7925
1757.72 62.5856
1757.93 54.1729
1758.36 43.4237
1758.78 36.9514
1759.21 32.6588
1760.06 27.3397
1760.92 24.1616
1761.77 22.0405
1763.48 19.3636
1765.19 17.7184
1766.89 16.5887
1770.31 15.1034
1773.72 14.1385
1777.14 13.4360
1783.97 12.4239
1790.80 11.6595
1797.63 10.9789
1801.04 10.6266
1802.75 10.4344
1804.46 10.2207
1806.17 9.96814
1807.02 9.81768
1807.87 9.64327
1808.73 9.44059
1809.15 9.33523
1809.58 9.25056
1809.80 9.23615
1810.01 9.26930
1810.22 9.40570
1810.44 9.77829
1810.65 10.7710
1810.76 11.8260
1810.86 13.7015
1810.97 17.3774
1811.08 25.3051
1811.13 33.0955
1811.18 45.9684
1811.24 68.7349
1811.29 110.112
1811.34 182.054
1811.40 239.940
1811.46 205.868
1811.51 139.873
1811.55 106.600
1811.59 83.8517
1811.66 56.5651
1811.74 41.9393
1811.81 33.5429
1811.89 28.1695
1811.96 24.6035
1812.11 20.2107
1812.26 17.6665
1812.41 16.0500
1812.70 14.1546
1813.00 13.0892
1813.30 12.4148
1813.89 11.6025
1814.49 11.1213
1815.08 10.7914
1816.27 10.3350
1817.46 9.98592
1818.65 9.64511
1819.25 9.44642
1819.54 9.33162
1819.84 9.20450
1820.14 9.07284
1820.29 9.02185
1820.44 9.01673
1820.58 9.15987
1820.66 9.38069
1820.73 9.84527
1820.81 10.8822
1820.84 11.8371
1820.88 13.3683
1820.92 15.9409
1820.96 20.5199
1820.99 29.2069
1821.01 36.5719
1821.03 46.3505
1821.05 59.4599
1821.07 75.3937
1821.10 99.5000
1821.14 87.9488
1821.17 63.0750
1821.21 44.9479
1821.24 34.4080
1821.28 27.9557
1821.31 23.8008
1821.35 20.9183
1821.38 18.9412
1821.45 16.3785
1821.52 14.8095
1821.59 13.7934
1821.74 12.5501
1821.88 11.8336
1822.02 11.3704
1822.30 10.8054
1822.58 10.4683
1822.86 10.2384
1823.43 9.92985
1824.56 9.54518
1825.68 9.25893
1826.81 8.99480
1827.37 8.86440
1827.94 8.74274
1828.50 8.66780
1828.78 8.69265
1829.07 8.84175
1829.35 9.33226
1829.49 9.90144
1829.63 10.9868
1829.77 13.2451
1829.84 15.3365
1829.91 18.6665
1829.98 24.4828
1830.05 35.1882
1830.12 57.1508
1830.16 76.6727
1830.19 105.850
1830.25 173.098
1830.30 225.569
1830.35 191.425
1830.41 128.751
1830.46 88.6492
1830.51 64.7413
1830.56 49.9280
1830.61 40.3343
1830.70 29.2243
1830.80 23.3086
1830.90 19.7507
1831.00 17.4728
1831.19 14.7656
1831.39 13.2455
1831.59 12.2969
1831.98 11.1846
1832.37 10.5535
1832.77 10.1438
1833.55 9.62859
1834.34 9.29827
1835.12 9.05300
1836.69 8.67825
1839.83 8.09762
1842.97 7.59979
1846.12 7.24279
1847.69 7.24741
1849.26 7.62575
1850.83 9.03450
1851.61 10.7058
1852.40 13.8758
1853.19 20.3406
1853.58 26.1078
1853.97 35.0964
1854.36 49.8745
1854.76 75.4944
1855.15 123.055
1855.54 214.208
1855.92 363.406
1856.30 484.278
1856.68 415.432
1857.06 279.198
1857.44 184.806
1857.82 129.110
1858.20 95.5502
1858.58 74.2150
1858.96 59.8555
1859.34 50.1865
1859.53 47.2677
1859.62 46.7023
1859.72 47.3314
1859.81 50.4119
1859.91 59.4114
1859.96 69.1235
1860.00 85.7940
1860.05 116.008
1860.10 171.766
1860.15 273.909
1860.20 361.470
1860.25 319.528
1860.30 227.829
1860.35 170.069
1860.39 132.918
1860.43 108.894
1860.48 92.7449
1860.57 73.1360
1860.65 62.0028
1860.74 54.9193
1860.83 50.0160
1861.01 43.5985
1861.18 39.4780
1861.36 36.5197
1861.71 32.3971
1862.06 29.5142
1862.41 27.3176
1863.12 24.1005
1864.52 20.0474
1865.93 17.5313
1867.34 15.7845
1868.74 14.4808
1871.56 12.5992
1874.37 11.1955
1875.78 10.5670
1877.18 9.94470
1878.59 9.29863
1879.29 8.96524
1880.00 8.64647
1880.70 8.43919
1881.05 8.48828
1881.40 8.83729
1881.76 9.99099
1881.93 11.3037
1882.11 13.7160
1882.28 18.5143
1882.46 29.0868
1882.55 39.2894
1882.63 56.3884
1882.72 86.5075
1882.81 140.025
1882.91 237.265
1883.00 316.588
1883.10 273.590
1883.19 186.735
1883.25 144.362
1883.31 114.309
1883.43 77.2032
1883.55 56.9132
1883.67 44.8231
1883.79 37.0600
1883.91 31.7673
1884.15 25.1689
1884.39 21.2993
1884.63 18.8142
1885.11 15.8297
1885.59 14.1017
1886.07 12.9663
1886.32 12.5296
1886.56 12.1800
1886.68 12.0679
1886.80 12.0934
1886.86 12.2579
1886.92 12.7211
1886.95 13.2085
1886.98 14.0570
1887.01 15.5918
1887.04 18.4152
1887.07 23.6367
1887.10 27.9074
1887.13 25.7235
1887.17 21.1777
1887.19 18.5172
1887.21 16.7729
1887.26 14.7050
1887.31 13.6318
1887.36 13.0108
1887.46 12.3050
1887.56 11.9185
1887.75 11.4682
1887.95 11.1827
1888.34 10.7824
1888.73 10.4781
1890.28 9.60713
1893.40 8.44061
1896.52 7.55376
1899.64 6.87918
1902.76 6.72019
1904.32 7.18933
1905.87 8.61844
1907.43 12.3678
1908.21 16.1810
1908.99 22.6550
1909.77 34.2310
1910.55 56.3129
1910.94 74.8959
1911.33 102.200
1911.72 142.968
1912.11 203.581
1912.76 358.372
1913.40 493.639
1914.05 434.730
1914.69 298.874
1915.42 192.564
1916.15 133.060
1916.88 98.6381
1917.61 77.2971
1918.35 63.1846
1919.08 53.3363
1920.54 40.7277
1922.00 33.0985
1923.46 28.0061
1926.38 21.4929
1929.31 17.1386
1930.77 15.2437
1932.23 13.3321
1933.69 11.2285
1934.42 10.0486
1935.15 8.78873
1935.88 7.61348
1936.25 7.28514
1936.62 7.55433
1936.98 9.46419
1937.16 11.8796
1937.35 16.3488
1937.53 24.8794
1937.62 31.8198
1937.71 41.7193
1937.80 56.2659
1937.89 77.5205
1937.99 109.225
1938.08 156.379
1938.24 289.787
1938.40 419.486
1938.48 424.467
1938.56 387.535
1938.72 278.475
1938.88 197.196
1939.04 146.362
1939.20 114.405
1939.36 93.3799
1939.52 78.8638
1939.68 68.4045
1940.00 54.5752
1940.31 45.9894
1940.63 40.2052
1941.27 32.9634
1941.90 28.6220
1942.54 25.7143
1943.81 22.0029
1945.08 19.6461
1946.36 17.9384
1948.90 15.4240
1951.44 13.4114
1952.71 12.4997
1953.99 11.7150
1955.26 11.3915
1955.89 11.7726
1956.53 13.1526
1957.16 17.0752
1957.48 21.2584
1957.80 28.6614
1958.12 42.5682
1958.28 54.1226
1958.44 71.0595
1958.60 96.6656
1958.75 136.683
1958.91 201.088
1959.07 304.669
1959.29 528.075
1959.50 717.215
1959.72 625.856
1959.93 428.176
1960.09 319.279
1960.24 244.467
1960.40 193.401
1960.56 157.951
1960.87 113.402
1961.18 87.7849
1961.50 71.6825
1961.81 60.8457
1962.43 47.4696
1963.06 39.6999
1963.69 34.6944
1964.94 28.6881
1966.19 25.2262
1967.44 22.9720
1969.95 20.1751
1972.45 18.4634
1974.96 17.2720
1979.97 15.6424
1984.97 14.4995
1989.98 13.5852
2000.00 12.0191
2005.26 11.1970
2010.51 10.2698
2013.14 9.72321
2015.77 9.07609
2017.09 8.69288
2018.40 8.24581
2019.06 7.98729
2019.71 7.70088
2020.04 7.55949
2020.21 7.50483
2020.37 7.48753
2020.54 7.58022
2020.62 7.73238
2020.70 8.05325
2020.78 8.75255
2020.82 9.40034
2020.86 10.4397
2020.90 12.1938
2020.95 15.3497
2020.99 21.4600
2021.03 33.8821
2021.06 53.3502
2021.10 68.6482
2021.14 59.6954
2021.17 42.4815
2021.20 33.5218
2021.22 27.2460
2021.27 19.9027
2021.32 15.9421
2021.37 13.6788
2021.42 12.2129
2021.47 11.2396
2021.57 10.0120
2021.67 9.28727
2021.77 8.80971
2021.97 8.20980
2022.16 7.83242
2022.36 7.55756
2022.76 7.14798
2023.55 6.52396
2024.34 5.98250
2025.13 5.55146
2025.53 5.47815
2025.92 5.69078
2026.32 6.67922
2026.52 7.88927
2026.71 10.1815
2026.91 14.8461
2027.01 18.9771
2027.11 25.3880
2027.21 35.8078
2027.31 53.7127
2027.41 86.3673
2027.50 147.097
2027.60 249.455
2027.70 330.534
2027.80 281.419
2027.90 188.235
2027.96 140.947
2028.03 108.330
2028.16 69.4255
2028.29 48.8677
2028.43 36.8668
2028.56 29.2470
2028.69 24.0748
2028.95 17.6037
2029.22 13.7474
2029.48 11.1760
2030.01 7.93687
2030.54 6.25255
2030.80 6.13808
2031.07 7.02445
2031.20 8.16859
2031.33 10.1388
2031.46 13.4577
2031.60 19.0797
2031.73 28.8399
2031.86 46.4632
2031.93 60.4143
2031.99 79.7953
2032.06 106.876
2032.12 144.500
2032.26 265.515
2032.40 378.643
2032.47 380.192
2032.54 344.406
2032.68 243.959
2032.84 158.390
2033.01 110.583
2033.17 82.9877
2033.34 65.8863
2033.67 46.7924
2034.00 37.2874
2034.33 33.1940
2034.49 33.2608
2034.66 35.6234
2034.82 42.3488
2034.99 59.1259
2035.07 76.0058
2035.15 104.174
2035.23 153.573
2035.32 241.732
2035.41 404.795
2035.50 540.921
2035.59 470.009
2035.68 322.563
2035.78 219.443
2035.87 158.239
2035.96 121.200
2036.05 97.7382
2036.23 70.4682
2036.42 55.8004
2036.60 46.8289
2036.78 40.8992
2037.15 33.5492
2037.52 29.1626
2037.88 26.2432
2038.62 22.5370
2039.35 20.2299
2040.08 18.6229
2041.55 16.4703
2043.01 15.0374
2044.48 13.9741
2047.41 12.4048
2050.34 11.1883
2053.27 10.1055
2054.73 9.57150
2056.20 9.01996
2056.93 8.72997
2057.66 8.43305
2058.03 8.29942
2058.21 8.25498
2058.40 8.25608
2058.58 8.38350
2058.67 8.56887
2058.76 8.94312
2058.86 9.76030
2058.90 10.5238
2058.95 11.7330
2058.99 13.8594
2059.04 17.8384
2059.08 26.0382
2059.11 33.3382
2059.13 43.6723
2059.17 68.7549
2059.20 87.6809
2059.24 74.9792
2059.27 52.3421
2059.30 39.3340
2059.33 30.8122
2059.36 25.2255
2059.38 21.5634
2059.44 17.0127
2059.49 14.4747
2059.55 12.8909
2059.60 11.8635
2059.71 10.6112
2059.82 9.88330
2059.93 9.41699
2060.15 8.84254
2060.38 8.48868
2060.60 8.23727
2061.04 7.87547
2061.92 7.35940
2062.80 6.93472
2064.57 6.18412
2066.33 5.60490
2068.10 5.61400
2068.98 6.28108
2069.87 8.11857
2070.31 9.92623
2070.75 12.8301
2071.19 17.6375
2071.63 25.8969
2072.07 41.0569
2072.29 53.4366
2072.51 71.2608
2072.74 97.9554
2072.96 138.857
2073.18 203.894
2073.40 306.918
2073.70 526.580
2074.00 705.227
2074.30 603.599
2074.60 402.831
2074.83 294.121
2075.05 220.224
2075.27 170.176
2075.49 135.573
2075.94 92.2732
2076.38 67.4529
2076.82 51.6866
2077.27 40.8964
2078.15 26.8388
2079.04 17.5941
2079.48 13.9403
2079.93 10.9799
2080.37 9.48716
2080.59 10.1164
2080.70 11.1393
2080.81 12.9033
2080.92 15.8057
2081.04 20.4201
2081.15 27.7090
2081.26 39.1759
2081.37 57.8673
2081.48 88.8419
2081.59 141.383
2081.70 229.921
2081.85 436.576
2082.00 640.333
2082.08 651.050
2082.15 596.485
2082.30 430.958
2082.47 291.697
2082.64 209.741
2082.81 160.572
2082.98 129.340
2083.15 108.031
2083.31 92.8510
2083.65 72.9745
2083.99 60.6047
2084.33 52.2565
2085.00 41.7379
2085.68 35.7479
2086.01 34.0638
2086.35 33.5755
2086.69 35.3212
2086.86 37.8793
2087.03 42.6099
2087.20 51.4269
2087.36 68.2259
2087.53 102.541
2087.62 131.996
2087.70 174.772
2087.85 291.310
2088.00 393.674
2088.15 349.675
2088.30 247.043
2088.39 197.389
2088.49 161.233
2088.67 115.493
2088.85 89.6290
2089.04 73.9179
2089.22 63.5314
2089.41 56.3227
2089.78 47.0189
2090.14 41.2953
2090.51 37.4203
2091.25 32.4546
2091.99 29.3266
2092.73 27.1231
2094.20 24.1114
2095.68 22.0610
2097.15 20.5147
2100.10 18.2143
2103.05 16.4335
2106.00 14.8039
2107.48 13.9187
2108.21 13.4132
2108.95 12.8277
2109.69 12.1010
2110.06 11.6544
2110.43 11.1340
2110.79 10.5496
2110.98 10.2800
2111.16 10.1423
2111.35 10.4781
2111.44 11.1415
2111.53 12.6209
2111.62 15.9381
2111.72 23.9383
2111.76 32.0600
2111.79 38.0909
2111.81 46.1172
2111.83 56.9307
2111.85 71.6514
2111.88 91.7984
2111.90 119.209
2111.93 159.014
2111.95 208.157
2112.00 288.741
2112.03 287.570
2112.05 259.222
2112.10 183.014
2112.13 142.512
2112.17 113.507
2112.24 78.6112
2112.30 59.6301
2112.37 48.3042
2112.44 40.9949
2112.50 35.9771
2112.64 29.6518
2112.77 25.8963
2112.91 23.4376
2113.17 20.4360
2113.44 18.6735
2113.71 17.5057
2114.25 16.0226
2114.78 15.0804
2115.32 14.3977
2116.39 13.3985
2118.54 11.9604
2120.68 10.7719
2122.83 9.79083
2123.90 9.53624
2124.97 9.76955
2126.04 11.3392
2126.58 13.3413
2127.12 17.1534
2127.65 24.6988
2127.92 31.1209
2128.19 40.6628
2128.46 55.2382
2128.72 78.1798
2128.99 115.255
2129.26 175.497
2129.63 309.244
2130.00 428.946
2130.37 383.744
2130.74 268.808
2130.97 211.292
2131.21 169.000
2131.68 115.953
2132.14 86.3328
2132.61 68.3560
2133.08 56.5889
2133.54 48.4461
2134.48 38.0275
2135.41 31.6794
2136.35 27.3827
2138.22 21.7140
2140.08 17.7277
2141.02 15.9690
2141.95 14.2859
2142.89 12.8007
2143.36 12.3514
2143.82 12.5303
2144.29 14.4605
2144.52 17.0533
2144.76 22.0719
2144.99 32.2067
2145.11 40.9708
2145.22 54.0095
2145.34 74.3405
2145.46 106.878
2145.57 160.544
2145.69 248.863
2145.85 441.105
2146.00 613.928
2146.16 547.614
2146.31 381.710
2146.41 297.145
2146.51 235.816
2146.71 160.009
2146.92 118.395
2147.12 93.4143
2147.32 77.2156
2147.52 66.0440
2147.93 51.8808
2148.33 43.3241
2148.73 37.6043
2149.54 30.2929
2150.35 25.5294
2150.75 23.6435
2151.16 22.0689
2151.56 21.0975
2151.76 21.1808
2151.96 22.1870
2152.16 25.3068
2152.37 33.8537
2152.47 42.9079
2152.57 58.8062
2152.67 87.7942
2152.77 140.863
2152.89 248.438
2153.00 350.810
2153.12 322.815
2153.23 234.648
2153.31 186.541
2153.39 151.917
2153.54 108.819
2153.70 84.8149
2153.85 70.3736
2154.00 60.8594
2154.16 54.2815
2154.47 45.7973
2154.78 40.6239
2155.09 37.1472
2155.70 32.7481
2156.32 30.0429
2156.94 28.1787
2158.18 25.7121
2159.41 24.0982
2160.65 22.9241
2163.12 21.2701
2165.59 20.1091
2168.06 19.2141
2173.00 17.8397
2177.95 16.7054
2180.42 16.1422
2182.89 15.5235
2185.36 14.7642
2186.60 14.2799
2187.83 13.6714
2188.45 13.2979
2189.07 12.8616
2189.69 12.3495
2190.31 11.7618
2190.92 11.1810
2191.23 11.0164
2191.54 11.1806
2191.85 12.3090
2192.01 13.7837
2192.16 16.6052
2192.31 22.2578
2192.47 34.1807
2192.55 45.0155
2192.62 61.9506
2192.70 89.0427
2192.78 132.561
2192.89 235.371
2193.00 331.393
2193.11 301.322
2193.22 214.992
2193.34 149.434
2193.46 110.040
2193.57 86.0313
2193.69 70.5948
2193.80 60.1226
2193.92 52.6820
2194.15 43.0002
2194.38 37.0981
2194.62 33.1829
2195.08 28.3785
2195.54 25.5767
2196.01 23.7533
2196.47 22.4743
2196.94 21.5289
2197.86 20.2146
2198.79 19.3389
2200.65 18.2225
2202.50 17.5144
2204.36 17.0044
2208.07 16.2694
2211.78 15.7033
2215.49 15.1711
2217.34 14.8678
2218.27 14.6873
2219.20 14.4689
2220.13 14.1795
2220.59 13.9877
2221.05 13.7434
2221.29 13.5928
2221.52 13.4177
2221.75 13.2148
2221.98 12.9899
2222.21 12.7919
2222.33 12.7665
2222.45 12.9088
2222.56 13.5139
2222.62 14.2344
2222.68 15.5651
2222.74 18.1163
2222.79 23.3261
2222.85 34.9173
2222.88 45.7757
2222.91 61.9255
2222.93 80.7431
2222.96 104.247
2223.00 142.819
2223.05 130.070
2223.09 95.2569
2223.12 75.2981
2223.16 61.2693
2223.19 51.5161
2223.22 44.6033
2223.29 35.7991
2223.35 30.6941
2223.42 27.3708
2223.49 25.1328
2223.62 22.2930
2223.75 20.5990
2223.88 19.5005
2224.14 18.1606
2224.40 17.3748
2224.67 16.8605
2225.19 16.2184
2225.72 15.8234
2226.24 15.5476
2227.29 15.1652
2228.34 14.8883
2229.39 14.6567
2231.48 14.2315
2233.58 13.7571
2234.63 13.4590
2235.68 13.0798
2236.21 12.8421
2236.73 12.5586
2237.25 12.2123
2237.78 11.7880
2238.04 11.5446
2238.30 11.2920
2238.57 11.0620
2238.83 10.9577
2239.09 11.3297
2239.22 12.0287
2239.35 13.5962
2239.48 17.1812
2239.55 20.6264
2239.61 26.1526
2239.68 35.7320
2239.75 52.7862
2239.78 66.6488
2239.81 86.2442
2239.84 114.222
2239.88 152.563
2239.94 264.219
2240.00 362.718
2240.03 359.224
2240.06 321.964
2240.12 224.742
2240.20 145.126
2240.27 101.724
2240.35 77.1204
2240.42 62.0816
2240.49 52.2418
2240.57 45.4360
2240.72 36.8665
2240.86 31.7435
2241.01 28.4125
2241.31 24.4163
2241.60 22.1240
2241.90 20.6594
2242.19 19.6442
2242.49 18.9003
2243.08 17.8817
2243.67 17.2161
2244.26 16.7444
2244.85 16.3906
2246.03 15.8871
2247.21 15.5392
2249.58 15.0687
2251.94 14.7445
2254.30 14.4912
2259.03 14.0838
2263.75 13.7253
2268.48 13.3533
2270.84 13.1367
2273.20 12.8674
2274.39 12.6916
2274.98 12.5843
2275.57 12.4561
2276.16 12.2951
2276.45 12.1971
2276.75 12.0852
2277.04 11.9667
2277.19 11.9198
2277.34 11.9136
2277.49 12.0396
2277.56 12.2377
2277.63 12.6494
2277.71 13.5623
2277.74 14.4114
2277.78 15.7733
2277.82 18.0606
2277.86 22.1263
2277.89 29.8169
2277.93 44.3551
2277.95 55.6561
2277.96 69.4243
2278.00 91.1073
2278.04 81.3456
2278.07 59.2479
2278.10 45.2872
2278.13 36.5356
2278.16 30.6625
2278.19 26.8466
2278.26 22.1586
2278.32 19.5537
2278.38 17.9474
2278.44 16.8777
2278.56 15.5652
2278.68 14.8020
2278.80 14.3060
2279.05 13.6996
2279.29 13.3323
2279.54 13.0780
2280.02 12.7246
2281.00 12.2266
2281.97 11.7581
2282.46 11.4924
2282.95 11.1879
2283.44 10.8290
2283.92 10.4085
2284.17 10.1807
2284.41 9.96137
2284.65 9.80061
2284.90 9.84054
2285.14 10.5306
2285.26 11.5326
2285.39 13.5984
2285.51 18.0430
2285.57 22.1121
2285.63 28.5482
2285.69 39.1655
2285.75 57.5865
2285.81 91.2916
2285.84 117.575
2285.87 153.344
2285.94 266.301
2286.00 365.761
2286.03 362.084
2286.06 324.273
2286.13 225.808
2286.17 172.693
2286.22 135.362
2286.26 109.378
2286.31 91.3024
2286.40 67.7188
2286.49 54.0729
2286.58 45.2906
2286.67 39.3962
2286.84 32.0434
2287.02 27.7153
2287.20 24.9219
2287.38 22.9881
2287.56 21.5850
2287.92 19.6757
2288.27 18.4542
2288.63 17.6060
2288.99 16.9829
2289.70 16.1265
2290.42 15.5643
2291.13 15.1628
2291.85 14.8598
2293.28 14.4248
2294.70 14.1201
2297.56 13.6997
2300.42 13.4003
2303.28 13.1575
2309.00 12.7404
2314.71 12.3288
2317.57 12.0959
2320.43 11.8191
2323.29 11.4539
2324.72 11.2087
2326.15 10.8868
2326.86 10.6807
2327.58 10.4299
2328.29 10.1168
2329.01 9.71728
2329.36 9.47597
2329.72 9.20747
2330.08 8.92377
2330.44 8.68025
2330.79 8.69731
2330.97 9.03724
2331.15 9.98573
2331.33 12.4792
2331.42 15.0326
2331.51 19.4366
2331.60 27.5841
2331.64 34.2105
2331.69 43.4832
2331.73 57.4103
2331.78 77.9143
2331.82 110.173
2331.86 158.733
2331.93 275.645
2332.00 377.703
2332.07 333.524
2332.14 231.081
2332.20 157.990
2332.27 114.163
2332.34 87.4755
2332.41 70.3614
2332.48 58.7969
2332.54 50.6193
2332.68 40.1171
2332.82 33.7276
2332.95 29.5367
2333.22 24.4842
2333.49 21.5817
2333.77 19.7323
2334.04 18.4513
2334.31 17.5208
2334.85 16.2554
2335.39 15.4371
2335.94 14.8630
2336.48 14.4361
2337.57 13.8381
2338.65 13.4316
2340.82 12.8930
2343.00 12.5282
2345.17 12.2439
2349.51 11.7763
2353.86 11.3365
2356.03 11.0969
2358.20 10.8215
2360.37 10.4742
2361.46 10.2502
2362.54 9.96585
2363.09 9.78900
2363.63 9.57856
2364.17 9.32291
2364.72 9.00828
2364.99 8.82629
2365.26 8.63373
2365.53 8.44870
2365.80 8.33761
2366.07 8.52981
2366.21 8.96871
2366.35 9.99686
2366.48 12.4654
2366.55 14.8927
2366.62 18.9603
2366.69 26.1545
2366.75 39.8121
2366.79 51.2598
2366.82 68.0517
2366.86 93.0834
2366.89 129.014
2366.94 221.996
2367.00 302.383
2367.03 298.220
2367.06 266.152
2367.11 184.205
2367.16 130.095
2367.21 96.7115
2367.26 75.4744
2367.31 61.4181
2367.41 44.7233
2367.51 35.5665
2367.61 29.9239
2367.71 26.2350
2367.91 21.7436
2368.12 19.1520
2368.32 17.5016
2368.52 16.3616
2368.72 15.5298
2369.12 14.3976
2369.52 13.6641
2369.92 13.1479
2370.32 12.7629
2371.12 12.2163
2371.92 11.8381
2373.52 11.3184
2375.13 10.9430
2376.73 10.6245
2377.53 10.4691
2378.33 10.3045
2378.73 10.2139
2379.13 10.1201
2379.33 10.0852
2379.53 10.1147
2379.63 10.2278
2379.73 10.5945
2379.78 11.0497
2379.83 11.9989
2379.86 12.8617
2379.88 14.2214
2379.91 16.4308
2379.93 20.1638
2379.97 28.0034
2380.00 34.6501
2380.03 31.6078
2380.07 24.6783
2380.09 20.9654
2380.11 18.4332
2380.16 15.3668
2380.21 13.7617
2380.25 12.8437
2380.35 11.8484
2380.44 11.3440
2380.63 10.8482
2380.81 10.6029
2381.18 10.3467
2381.56 10.1988
2382.30 10.0018
2383.04 9.84989
2386.02 9.33055
2389.00 8.80207
2391.97 8.20252
2394.95 7.47924
2396.44 7.04647
2397.92 6.54299
2399.41 5.93748
2400.16 5.58159
2400.90 5.18208
2401.64 4.74981
2402.02 4.54955
2402.39 4.42751
2402.76 4.58899
2402.95 4.97728
2403.13 5.89972
2403.32 8.12114
2403.41 10.3361
2403.50 14.1206
2403.60 21.0320
2403.64 26.7511
2403.69 34.8712
2403.74 47.3071
2403.78 66.1727
2403.83 96.9954
2403.88 145.543
2403.94 247.466
2404.00 330.257
2404.06 283.058
2404.12 189.996
2404.17 140.190
2404.21 106.825
2404.26 83.9791
2404.30 67.9967
2404.39 47.9842
2404.48 36.4974
2404.57 29.3004
2404.65 24.4747
2404.83 18.5481
2405.01 15.1091
2405.18 12.9141
2405.53 10.2722
2405.89 8.72215
2406.24 7.68390
2406.94 6.30383
2407.65 5.34684
2408.35 4.57893
2409.76 3.32381
2411.17 2.46735
2411.88 2.41646
2412.23 2.60700
2412.58 3.04605
2412.94 3.88139
2413.29 5.35768
2413.64 7.93612
2413.99 12.4675
2414.35 20.7668
2414.52 27.4007
2414.70 36.7702
2414.88 50.2653
2415.05 70.0839
2415.23 99.6131
2415.40 143.532
2415.70 259.495
2416.00 364.409
2416.30 327.042
2416.60 229.727
2416.95 151.178
2417.29 109.573
2417.64 88.9126
2417.99 81.6987
2418.34 86.4912
2418.68 107.585
2419.03 158.836
2419.20 205.222
2419.38 273.130
2419.69 461.933
2420.00 629.163
2420.31 557.961
2420.62 389.771
2420.93 272.083
2421.23 199.789
2421.53 154.523
2421.83 124.980
2422.43 89.9514
2423.03 70.6023
2423.63 58.5922
2424.23 50.4956
2425.43 40.3488
2426.63 34.2669
2427.84 30.2044
2430.24 25.0445
2432.64 21.7561
2435.05 19.2028
2436.25 17.9450
2436.85 17.2556
2437.45 16.4806
2438.05 15.5717
2438.35 15.0581
2438.65 14.5371
2438.96 14.1531
2439.11 14.1790
2439.26 14.6319
2439.41 16.1785
2439.48 17.8629
2439.56 20.7976
2439.63 26.0702
2439.71 35.9991
2439.78 55.8003
2439.82 72.8930
2439.86 96.8071
2439.93 169.056
2440.00 238.089
2440.07 219.098
2440.14 159.313
2440.23 108.512
2440.31 80.1153
2440.40 63.5184
2440.48 53.1277
2440.57 46.1936
2440.65 41.3152
2440.82 35.0093
2440.99 31.1517
2441.15 28.5985
2441.49 25.4220
2441.83 23.5153
2442.16 22.2377
2442.84 20.5907
2443.51 19.5308
2444.18 18.7577
2445.53 17.6317
2448.22 16.0435
2450.91 14.7015
2453.60 13.2697
2454.95 12.4251
2456.29 11.4311
2456.96 10.8636
2457.64 10.2535
2458.31 9.63623
2458.98 9.14572
2459.65 9.26796
2459.99 10.0470
2460.33 12.0792
2460.66 17.1021
2460.83 22.0203
2461.00 30.1448
2461.17 44.1315
2461.34 69.5235
2461.42 89.8601
2461.50 118.470
2461.59 159.073
2461.67 216.433
2461.84 386.818
2462.00 542.246
2462.16 487.216
2462.33 341.919
2462.47 248.920
2462.61 187.818
2462.75 147.761
2462.88 120.634
2463.16 87.6375
2463.44 69.0919
2463.72 57.5528
2464.00 49.8145
2464.55 40.2550
2465.11 34.6706
2465.66 31.0464
2466.22 28.5164
2466.78 26.6537
2467.89 24.0943
2469.00 22.4132
2470.11 21.2169
2471.22 20.3154
2473.45 19.0294
2475.67 18.1351
2480.12 16.9134
2484.57 16.0402
2489.01 15.2762
2491.24 14.8637
2492.35 14.6252
2493.46 14.3425
2494.57 13.9767
2495.13 13.7380
2495.69 13.4359
2495.96 13.2506
2496.24 13.0349
2496.52 12.7833
2496.80 12.4985
2497.08 12.2293
2497.22 12.1693
2497.35 12.2948
2497.49 12.9595
2497.56 13.8085
2497.63 15.4163
2497.70 18.6934
2497.77 25.7039
2497.81 32.3454
2497.84 42.6788
2497.88 60.2664
2497.91 88.7266
2497.93 116.836
2497.96 151.490
2498.00 206.615
2498.02 205.602
2498.05 185.421
2498.09 132.876
2498.13 101.554
2498.16 80.6433
2498.20 65.9586
2498.23 56.0076
2498.30 43.3312
2498.37 36.0213
2498.44 31.4057
2498.51 28.2833
2498.64 24.4212
2498.78 22.1355
2498.92 20.6601
2499.19 18.8629
2499.47 17.8122
2499.74 17.1229
2500.29 16.2528
2500.84 15.7006
2501.39 15.2949
2502.50 14.6602
2503.60 14.0614
2504.15 13.7178
2504.70 13.3063
2504.97 13.0604
2505.25 12.7808
2505.52 12.4628
2505.80 12.1184
2506.07 11.8342
2506.21 11.8261
2506.35 12.1099
2506.49 13.2014
2506.56 14.4793
2506.62 16.7911
2506.69 21.2954
2506.76 30.6260
2506.80 39.1422
2506.83 51.9542
2506.87 72.1320
2506.90 104.017
2506.93 139.065
2506.95 180.767
2507.00 249.153
2507.03 247.995
2507.05 223.825
2507.10 159.627
2507.16 109.277
2507.21 80.4885
2507.26 63.2609
2507.32 52.3244
2507.37 44.8608
2507.43 39.7057
2507.54 33.0419
2507.64 28.9777
2507.75 26.3243
2507.97 23.0724
2508.19 21.1894
2508.40 19.9703
2508.62 19.1188
2508.84 18.4929
2509.27 17.6244
2509.70 17.0492
2510.14 16.6360
2510.57 16.3220
2511.44 15.8661
2512.31 15.5422
2514.04 15.0866
2515.78 14.7547
2517.51 14.4802
2520.98 13.9932
2524.45 13.4823
2526.18 13.1740
2527.92 12.7879
2528.78 12.5456
2529.65 12.2522
2530.52 11.8834
2531.39 11.3996
2531.82 11.0954
2532.25 10.7368
2532.69 10.3155
2533.12 9.84272
2533.34 9.60908
2533.55 9.42051
2533.77 9.36912
2533.99 9.69096
2534.20 11.0787
2534.31 12.7737
2534.42 15.9415
2534.53 22.2637
2534.58 27.6342
2534.64 35.6479
2534.69 47.9635
2534.75 67.5060
2534.80 99.4193
2534.85 151.924
2534.93 267.061
2535.00 370.833
2535.04 368.860
2535.07 332.468
2535.15 233.815
2535.20 181.901
2535.24 145.170
2535.34 99.4881
2535.44 74.5940
2535.53 59.7396
2535.63 50.1620
2535.73 43.5969
2535.92 35.3777
2536.12 30.4935
2536.31 27.3324
2536.70 23.5068
2537.08 21.3042
2537.47 19.8883
2537.86 18.9017
2538.24 18.1748
2539.02 17.1725
2539.79 16.5114
2540.57 16.0377
2541.34 15.6778
2542.89 15.1569
2544.44 14.7864
2547.54 14.2575
2550.63 13.8506
2553.73 13.4658
2555.28 13.2473
2556.05 13.1189
2556.83 12.9655
2557.60 12.7669
2557.99 12.6386
2558.38 12.4791
2558.76 12.2763
2558.96 12.1576
2559.15 12.0403
2559.34 11.9767
2559.44 12.0256
2559.54 12.2295
2559.63 12.8404
2559.68 13.5083
2559.73 14.6626
2559.78 16.8486
2559.83 21.1028
2559.88 30.2787
2559.90 38.6910
2559.92 51.5507
2559.94 65.8733
2559.96 83.5198
2560.00 112.283
2560.04 101.397
2560.08 73.8922
2560.11 56.0636
2560.14 44.5191
2560.18 37.0405
2560.21 32.1482
2560.27 26.0402
2560.34 22.6839
2560.40 20.5724
2560.47 19.1829
2560.60 17.4568
2560.73 16.4516
2560.86 15.8004
2561.12 15.0111
2561.39 14.5497
2561.65 14.2444
2562.17 13.8567
2562.70 13.6104
2563.22 13.4309
2564.27 13.1657
2566.36 12.7667
2568.46 12.3871
2570.56 11.9318
2571.60 11.6390
2572.65 11.2663
2573.70 10.7599
2574.22 10.4298
2574.75 10.0330
2575.01 9.81185
2575.27 9.58810
2575.53 9.39643
2575.80 9.33867
2576.06 9.73854
2576.19 10.4052
2576.32 11.8224
2576.45 14.8871
2576.58 22.0000
2576.65 29.0487
2576.71 40.6736
2576.78 60.8165
2576.84 96.2516
2576.92 168.795
2577.00 234.461
2577.08 211.835
2577.16 151.241
2577.23 108.000
2577.31 81.0198
2577.38 64.0795
2577.46 53.0843
2577.61 39.9556
2577.75 32.7408
2577.90 28.2811
2578.05 25.3323
2578.35 21.6999
2578.65 19.5692
2578.95 18.1837
2579.55 16.4749
2580.14 15.4390
2580.74 14.7046
2581.04 14.3975
2581.34 14.1386
2581.49 14.0708
2581.63 14.1951
2581.71 14.5077
2581.78 15.3626
2581.82 16.3338
2581.86 18.0926
2581.90 21.5593
2581.93 28.6984
2581.97 40.4151
2582.00 50.7233
2582.03 46.3855
2582.07 36.1335
2582.10 29.6503
2582.13 25.4377
2582.16 22.6974
2582.18 20.8514
2582.24 18.6151
2582.30 17.3757
2582.41 16.0575
2582.53 15.3846
2582.76 14.6922
2582.99 14.3214
2583.45 13.8841
2583.91 13.5981
2584.83 13.1819
2585.75 12.8494
2587.60 12.2600
2589.44 11.6517
2591.28 10.9104
2592.20 10.4418
2593.12 9.87113
2593.58 9.53894
2594.04 9.17907
2594.50 8.81177
2594.96 8.52130
2595.42 8.61474
2595.65 9.11748
2595.88 10.4355
2596.12 13.7542
2596.23 17.0650
2596.35 22.6501
2596.46 32.5525
2596.58 51.3093
2596.63 67.1179
2596.69 89.7772
2596.75 123.916
2596.81 173.461
2596.90 304.105
2597.00 417.814
2597.10 370.304
2597.20 256.947
2597.30 170.192
2597.41 120.812
2597.52 91.4109
2597.62 73.1328
2597.73 60.8382
2597.84 52.3069
2598.05 41.3555
2598.26 34.7499
2598.47 30.4380
2598.90 25.1902
2599.32 22.1581
2599.75 20.1908
2600.60 17.7747
2601.45 16.3100
2602.30 15.2812
2604.00 13.7778
2605.70 12.4671
2606.55 11.7533
2607.40 10.9315
2607.82 10.4643
2608.25 9.95840
2608.67 9.43533
2609.10 8.98656
2609.52 8.96373
2609.74 9.47242
2609.95 10.9062
2610.16 14.5890
2610.27 18.2532
2610.37 24.3710
2610.48 35.1484
2610.59 54.8165
2610.64 70.7249
2610.69 93.2821
2610.75 125.572
2610.80 171.589
2610.90 305.524
2611.00 428.034
2611.05 427.192
2611.10 384.777
2611.20 271.107
2611.27 209.475
2611.34 166.023
2611.41 135.238
2611.48 113.084
2611.62 84.2743
2611.76 67.2846
2611.90 56.2687
2612.03 48.7755
2612.31 39.3096
2612.59 33.7056
2612.87 30.0494
2613.42 25.6220
2613.97 23.0518
2614.53 21.3828
2615.08 20.2070
2615.63 19.3343
2616.74 18.1137
2617.85 17.2899
2620.06 16.2109
2622.28 15.4767
2624.49 14.8440
2625.60 14.4911
2626.15 14.2794
2626.70 14.0222
2627.26 13.6849
2627.53 13.4697
2627.81 13.2149
2628.09 12.9311
2628.23 12.8097
2628.36 12.7758
2628.50 13.0374
2628.57 13.4666
2628.64 14.3739
2628.71 16.3282
2628.78 20.8461
2628.81 25.3485
2628.85 32.6532
2628.88 45.7160
2628.92 68.0615
2628.94 88.7747
2628.96 114.446
2629.00 155.817
2629.04 141.203
2629.08 102.908
2629.12 76.3428
2629.16 59.4279
2629.20 48.6313
2629.24 41.4622
2629.31 32.9011
2629.39 28.1644
2629.46 25.2423
2629.54 23.2920
2629.69 20.9019
2629.84 19.4961
2629.99 18.5884
2630.15 17.9490
2630.30 17.4799
2630.60 16.8282
2630.90 16.3983
2631.51 15.8533
2632.12 15.5075
2632.72 15.2522
2633.33 15.0372
2633.63 14.9830
2633.78 15.1793
2633.86 15.7431
2633.90 16.5301
2633.93 18.2370
2633.97 20.9853
2634.00 23.5650
2634.03 22.6825
2634.07 20.3394
2634.10 18.3784
2634.14 17.2696
2634.22 16.2344
2634.38 15.5451
2634.69 15.1555
2635.31 14.9037
2635.93 14.7690
2636.55 14.6673
2637.79 14.5068
2639.03 14.3763
2641.52 14.1629
2644.00 13.9859
2648.97 13.6859
2651.45 13.5416
2652.70 13.4544
2653.32 13.3952
2653.63 13.3885
2653.78 13.5313
2653.86 13.9312
2653.90 14.5082
2653.94 15.8364
2653.97 17.8553
2654.00 19.7792
2654.03 19.1144
2654.06 17.3948
2654.09 16.1690
2654.12 15.4200
2654.18 14.6243
2654.30 14.0292
2654.53 13.6989
2655.00 13.5287
2655.93 13.4188
2657.79 13.3019
2661.52 13.1147
2665.25 12.9305
2668.98 12.7302
2672.71 12.4888
2674.58 12.3369
2676.44 12.1448
2678.31 11.8769
2679.24 11.6905
2680.17 11.4407
2680.64 11.2786
2681.10 11.0804
2681.57 10.8320
2682.03 10.5145
2682.27 10.3240
2682.50 10.1129
2682.73 9.89325
2682.97 9.71314
2683.20 9.75558
2683.32 10.0493
2683.43 10.8270
2683.55 12.8060
2683.61 14.7735
2683.67 18.0818
2683.72 24.0467
2683.78 35.1050
2683.81 44.2419
2683.84 57.4503
2683.87 76.7892
2683.90 105.014
2683.92 139.891
2683.95 181.002
2684.00 248.821
2684.03 247.043
2684.05 221.626
2684.10 156.333
2684.15 112.181
2684.20 84.8132
2684.24 66.9998
2684.29 55.4488
2684.38 41.5147
2684.48 33.8389
2684.57 29.1246
2684.66 25.9921
2684.85 22.1736
2685.03 19.9505
2685.22 18.5199
2685.40 17.5286
2685.59 16.8073
2685.96 15.8201
2686.33 15.1823
2686.70 14.7334
2687.08 14.4008
2687.82 13.9351
2688.56 13.6200
2690.05 13.2055
2691.53 12.9270
2693.02 12.7104
2695.99 12.3490
2698.96 11.9897
2700.45 11.7805
2701.94 11.5261
2703.42 11.1858
2704.16 10.9576
2704.91 10.6630
2705.28 10.4789
2705.65 10.2621
2706.02 10.0037
2706.39 9.70229
2706.77 9.38998
2706.95 9.28611
2707.14 9.33265
2707.32 9.84106
2707.42 10.5422
2707.51 11.9143
2707.60 14.7515
2707.69 21.0096
2707.74 26.9866
2707.79 36.4376
2707.83 52.0947
2707.88 78.2514
2707.94 135.185
2708.00 187.426
2708.03 187.201
2708.06 169.140
2708.12 121.013
2708.18 89.0440
2708.23 68.3621
2708.29 54.9740
2708.34 46.1271
2708.45 35.2948
2708.55 29.2260
2708.66 25.4536
2708.77 22.9236
2708.98 19.7945
2709.20 17.9550
2709.41 16.7636
2709.84 15.3098
2710.27 14.4503
2710.69 13.8772
2711.55 13.1346
2712.41 12.6420
2713.26 12.2592
2714.98 11.6043
2715.83 11.2722
2716.69 10.9053
2717.55 10.4755
2718.40 9.94675
2718.83 9.63074
2719.26 9.27663
2719.69 8.89077
2720.12 8.52431
2720.55 8.39126
2720.76 8.64690
2720.98 9.51898
2721.19 11.9573
2721.30 14.5265
2721.40 19.0056
2721.51 27.2163
2721.56 33.9381
2721.62 43.3670
2721.67 57.4293
2721.72 78.1040
2721.78 110.271
2721.83 158.475
2721.92 279.434
2722.00 385.925
2722.04 382.745
2722.09 343.348
2722.17 240.131
2722.27 156.971
2722.36 110.402
2722.46 83.4809
2722.56 66.9420
2722.65 55.8837
2722.75 48.2532
2722.94 38.4578
2723.14 32.6036
2723.33 28.7746
2723.71 24.1429
2724.10 21.4817
2724.49 19.7693
2724.87 18.5793
2725.26 17.7053
2726.03 16.5048
2726.80 15.7169
2727.58 15.1548
2728.35 14.7291
2729.89 14.1143
2731.44 13.6758
2734.53 13.0339
2737.61 12.4929
2739.16 12.2060
2740.70 11.8716
2742.25 11.4353
2743.02 11.1457
2743.79 10.7729
2744.18 10.5404
2744.57 10.2674
2744.95 9.94527
2745.34 9.57553
2745.53 9.38529
2745.72 9.21745
2745.92 9.13052
2746.11 9.28096
2746.30 10.1359
2746.40 11.2450
2746.50 13.3799
2746.59 17.7751
2746.64 21.5929
2746.69 27.4014
2746.74 36.7801
2746.79 51.8707
2746.83 77.4568
2746.88 121.432
2746.94 212.416
2747.00 292.190
2747.03 290.105
2747.06 260.297
2747.12 183.160
2747.17 131.083
2747.23 98.0900
2747.28 77.0986
2747.33 63.4114
2747.44 46.7745
2747.55 37.6933
2747.66 32.0603
2747.76 28.3512
2747.98 23.7841
2748.19 21.1392
2748.41 19.4330
2748.62 18.2473
2748.84 17.3772
2749.27 16.1856
2749.70 15.4042
2750.13 14.8471
2750.56 14.4258
2751.42 13.8124
2752.28 13.3672
2754.00 12.6859
2755.72 12.0540
2756.58 11.6908
2757.44 11.2485
2757.87 10.9788
2758.30 10.6625
2758.73 10.2859
2759.16 9.84129
2759.37 9.59845
2759.59 9.36138
2759.80 9.17879
2760.02 9.18922
2760.23 9.82539
2760.34 10.7758
2760.45 12.7125
2760.55 16.8699
2760.61 20.6279
2760.66 26.3521
2760.71 35.7352
2760.77 51.1568
2760.82 78.5853
2760.87 126.361
2760.94 221.733
2761.00 308.096
2761.03 306.518
2761.06 276.404
2761.13 194.694
2761.18 144.500
2761.23 111.460
2761.28 89.2976
2761.33 74.0221
2761.43 55.1210
2761.53 44.3365
2761.63 37.5700
2761.73 33.0114
2761.93 27.3641
2762.13 24.0643
2762.33 21.9277
2762.53 20.4416
2762.73 19.3524
2763.13 17.8647
2763.53 16.9021
2763.93 16.2261
2764.33 15.7238
2765.13 15.0216
2765.93 14.5486
2767.53 13.9308
2769.13 13.5179
2770.73 13.1862
2771.53 13.0220
2772.33 12.8331
2772.73 12.7148
2773.13 12.5689
2773.33 12.4939
2773.53 12.4805
2773.63 12.5928
2773.73 13.0418
2773.78 13.6408
2773.83 14.9328
2773.86 16.1264
2773.88 18.0208
2773.91 21.1098
2773.93 26.1797
2773.97 37.7987
2774.00 48.1292
2774.04 44.4441
2774.07 34.8895
2774.10 28.3575
2774.13 24.1658
2774.16 21.4717
2774.19 19.6731
2774.26 17.5133
2774.32 16.3113
2774.44 15.0667
2774.57 14.4475
2774.81 13.8420
2775.06 13.5435
2775.56 13.2363
2776.05 13.0669
2777.04 12.8583
2778.03 12.7136
2780.02 12.4868
2782.00 12.2869
2783.98 12.0850
2785.96 11.8517
2786.95 11.7029
2787.45 11.6111
2787.94 11.4994
2788.44 11.3542
2788.94 11.1541
2789.18 11.0319
2789.43 10.9518
2789.56 11.0330
2789.62 11.1832
2789.68 11.5111
2789.74 12.2312
2789.80 13.9224
2789.83 15.5950
2789.87 18.4139
2789.90 23.3541
2789.93 31.9694
2789.96 49.3599
2790.00 65.6772
2790.04 60.1788
2790.07 45.4331
2790.10 36.5478
2790.13 30.3818
2790.16 26.2238
2790.19 23.3476
2790.25 19.7747
2790.30 17.7544
2790.36 16.4548
2790.42 15.5765
2790.54 14.4903
2790.77 13.4243
2791.00 12.9090
2791.23 12.6013
2791.46 12.3944
2791.92 12.1253
2792.38 11.9468
2792.84 11.8112
2793.77 11.5972
2795.61 11.2350
2797.46 10.8442
2798.38 10.6099
2799.30 10.3308
2800.23 9.98507
2801.15 9.53886
2801.61 9.26285
2802.07 8.94361
2802.53 8.57814
2803.00 8.19105
2803.23 8.01980
2803.46 7.91509
2803.69 7.98128
2803.92 8.47644
2804.15 10.1403
2804.26 12.0177
2804.38 15.4379
2804.50 22.0795
2804.55 27.6841
2804.61 35.8009
2804.67 48.3349
2804.73 67.5998
2804.78 99.1177
2804.84 149.188
2804.92 261.786
2805.00 362.017
2805.08 322.180
2805.16 224.677
2805.21 174.409
2805.27 138.793
2805.37 94.8043
2805.47 70.6953
2805.58 56.2622
2805.68 46.9408
2805.79 40.5470
2805.99 32.5111
2806.20 27.7694
2806.41 24.6896
2806.83 20.9818
2807.24 18.8557
2807.66 17.4862
2808.07 16.5320
2808.49 15.8284
2809.32 14.8558
2810.15 14.2080
2811.82 13.3744
2813.48 12.8293
2815.15 12.4145
2818.47 11.7310
2821.80 11.0370
2823.47 10.6173
2825.13 10.0922
2825.96 9.76664
2826.80 9.37982
2827.63 8.91142
2828.46 8.34055
2828.88 8.01651
2829.29 7.68100
2829.71 7.37839
2830.12 7.24611
2830.54 7.74034
2830.75 8.65378
2830.96 10.6786
2831.16 15.2411
2831.27 19.5231
2831.37 26.4032
2831.48 37.9268
2831.58 58.2390
2831.68 96.0705
2831.74 126.582
2831.79 168.775
2831.89 298.799
2832.00 413.759
2832.11 368.816
2832.21 256.981
2832.28 202.685
2832.35 163.134
2832.48 112.838
2832.61 84.2681
2832.74 66.9923
2832.87 55.6130
2833.00 47.8041
2833.26 37.8968
2833.52 31.9822
2833.78 28.1370
2834.30 23.4762
2834.82 20.7881
2835.34 19.0541
2835.86 17.8411
2836.38 16.9426
2837.43 15.6887
2838.47 14.8394
2840.55 13.6947
2842.64 12.8439
2843.68 12.4354
2844.72 11.9909
2845.77 11.4504
2846.29 11.1120
2846.81 10.6983
2847.07 10.4535
2847.33 10.1814
2847.59 9.88579
2847.85 9.60381
2848.11 9.48508
2848.24 9.65077
2848.37 10.2436
2848.50 11.9318
2848.57 13.6964
2848.63 16.7535
2848.70 22.3012
2848.76 33.0432
2848.80 42.3153
2848.83 55.5835
2848.86 76.1061
2848.89 105.876
2848.92 140.749
2848.95 183.664
2849.00 253.734
2849.03 252.122
2849.06 226.836
2849.11 160.346
2849.17 109.475
2849.23 79.7246
2849.28 61.9470
2849.34 50.8357
2849.40 43.2229
2849.46 37.9408
2849.57 31.0449
2849.69 26.8720
2849.80 24.1190
2850.03 20.7590
2850.26 18.8087
2850.49 17.5420
2850.72 16.6533
2850.95 15.9937
2851.41 15.0732
2851.87 14.4511
2852.79 13.6317
2853.71 13.0767
2854.63 12.6401
2856.47 11.8909
2858.31 11.1061
2859.23 10.6319
2860.15 10.0500
2860.61 9.69912
2861.07 9.29810
2861.53 8.84200
2861.99 8.35139
2862.45 7.96173
2862.68 7.97179
2862.91 8.42555
2863.14 10.0867
2863.26 12.0066
2863.37 15.5263
2863.49 22.2838
2863.55 28.0010
2863.60 36.2408
2863.66 48.8731
2863.72 68.0947
2863.78 99.1256
2863.83 147.670
2863.92 262.202
2864.00 364.395
2864.04 362.722
2864.08 326.017
2864.17 229.112
2864.26 152.836
2864.35 109.290
2864.44 83.2426
2864.53 67.0307
2864.63 56.0801
2864.72 48.4740
2864.90 38.6742
2865.08 32.7324
2865.26 28.8420
2865.63 24.0841
2865.99 21.3165
2866.36 19.5216
2866.72 18.2578
2867.09 17.3146
2867.82 15.9798
2868.55 15.0527
2870.01 13.7293
2871.47 12.6200
2872.20 12.0260
2872.93 11.3374
2873.30 10.9343
2873.66 10.4804
2874.03 9.97001
2874.39 9.42487
2874.76 8.98989
2874.94 8.99112
2875.12 9.45787
2875.31 11.1817
2875.40 13.1453
2875.49 16.6932
2875.58 23.4615
2875.63 29.0433
2875.67 36.9006
2875.72 48.7172
2875.76 66.0883
2875.81 93.2497
2875.85 133.858
2875.93 239.645
2876.00 336.311
2876.04 336.658
2876.07 304.316
2876.15 216.440
2876.23 148.213
2876.30 108.201
2876.38 83.6942
2876.46 68.2338
2876.54 57.6503
2876.61 50.2507
2876.77 40.6271
2876.92 34.7328
2877.08 30.8539
2877.38 26.0825
2877.69 23.2979
2878.00 21.4958
2878.31 20.2340
2878.62 19.3016
2879.24 18.0123
2879.86 17.1616
2880.48 16.5524
2881.10 16.0929
2882.33 15.4363
2883.57 14.9820
2886.04 14.3756
2888.52 13.9706
2890.99 13.6656
2893.46 13.4068
2894.70 13.2685
2895.32 13.1812
2895.63 13.1718
2895.78 13.3744
2895.86 13.9253
2895.90 14.7206
2895.94 16.5041
2895.97 19.2727
2896.00 21.8540
2896.03 20.9637
2896.06 18.6006
2896.09 16.9728
2896.12 15.9487
2896.18 14.8575
2896.30 14.0431
2896.53 13.5860
2896.99 13.3486
2897.92 13.1929
2899.78 13.0279
2903.50 12.7706
2905.35 12.6388
2907.21 12.4785
2908.14 12.3687
2909.07 12.2069
2909.53 12.0850
2910.00 11.9145
2910.23 11.8166
2910.46 11.7858
2910.58 11.9200
2910.64 12.1137
2910.69 12.5053
2910.75 13.3206
2910.81 15.1448
2910.84 16.8842
2910.87 19.7256
2910.90 24.5234
2910.93 32.7187
2910.96 50.0981
2911.00 66.0862
2911.04 60.6607
2911.07 45.9198
2911.10 36.7804
2911.13 30.8130
2911.16 26.7789
2911.19 23.9804
2911.25 20.4930
2911.31 18.4879
2911.37 17.2227
2911.42 16.3664
2911.54 15.3001
2911.77 14.2653
2912.00 13.7701
2912.24 13.4807
2912.47 13.2920
2912.93 13.0571
2913.40 12.9132
2913.86 12.8136
2914.79 12.6779
2915.72 12.5834
2916.65 12.5089
2918.51 12.3888
2922.22 12.1826
2923.15 12.1254
2924.08 12.0550
2924.54 12.0087
2925.01 11.9480
2925.24 11.9121
2925.47 11.8893
2925.59 11.9134
2925.70 12.0539
2925.76 12.2673
2925.82 12.7761
2925.88 14.1691
2925.91 15.7551
2925.94 18.6795
2925.97 24.2032
2926.00 29.1962
2926.03 27.3470
2926.06 22.6074
2926.10 19.2493
2926.13 17.2341
2926.19 15.1270
2926.25 14.1356
2926.31 13.5908
2926.43 13.0296
2926.55 12.7562
2926.79 12.4904
2927.03 12.3609
2927.51 12.2296
2927.99 12.1580
2928.96 12.0707
2929.92 12.0100
2931.85 11.9137
2933.78 11.8293
2941.49 11.5011
2945.34 11.3124
2947.27 11.2014
2949.20 11.0694
2951.12 10.8980
2952.09 10.7851
2953.05 10.6390
2954.01 10.4334
2954.50 10.2919
2954.98 10.1079
2955.46 9.86125
2955.70 9.70937
2955.94 9.54683
2956.18 9.42536
2956.30 9.44235
2956.42 9.62221
2956.55 10.2429
2956.61 10.9375
2956.67 12.1864
2956.73 14.5310
2956.79 19.2311
2956.85 29.4990
2956.88 38.9908
2956.91 53.5886
2956.93 70.1384
2956.95 90.6739
2957.00 123.923
2957.05 112.173
2957.10 81.4114
2957.15 55.9567
2957.20 41.8302
2957.26 33.5638
2957.31 28.3936
2957.37 24.8997
2957.42 22.5025
2957.53 19.4217
2957.64 17.5513
2957.75 16.3329
2957.96 14.8464
2958.18 13.9808
2958.40 13.4203
2958.61 13.0285
2958.83 12.7402
2959.26 12.3394
2959.70 12.0735
2960.56 11.7340
2961.43 11.5172
2962.30 11.3590
2964.03 11.1254
2967.50 10.7734
2970.96 10.4364
2974.43 10.0282
2976.16 9.76253
2977.90 9.41924
2978.76 9.20153
2979.63 8.93792
2980.50 8.61000
2981.36 8.19187
2981.80 7.93871
2982.23 7.65498
2982.67 7.34946
2983.10 7.07303
2983.53 7.02854
2983.75 7.31176
2983.97 8.16431
2984.18 10.4651
2984.29 12.8446
2984.40 16.9612
2984.51 24.5601
2984.56 30.6579
2984.62 39.3658
2984.67 52.1029
2984.72 71.1910
2984.78 100.354
2984.83 144.944
2984.92 254.657
2985.00 350.178
2985.09 310.053
2985.17 215.796
2985.25 153.170
2985.32 113.878
2985.40 88.4527
2985.47 71.8045
2985.62 51.8110
2985.77 40.8589
2985.92 34.0867
2986.07 29.6199
2986.37 24.1390
2986.68 20.9750
2986.98 18.9410
2987.28 17.5327
2987.58 16.5033
2988.18 15.1024
2988.78 14.1929
2989.38 13.5522
2989.99 13.0736
2991.19 12.3967
2992.40 11.9300
2994.80 11.2922
2997.21 10.8347
2999.62 10.4522
3004.44 9.74168
3009.25 8.94384
3011.66 8.45303
3014.07 7.85351
3016.48 7.08518
3017.68 6.61433
3018.89 6.08336
3020.09 5.55548
3020.69 5.38789
3021.30 5.47879
3021.90 6.35802
3022.20 7.57303
3022.50 10.0282
3022.80 15.2473
3022.95 20.0273
3023.10 27.5435
3023.25 40.0864
3023.40 61.9210
3023.55 102.871
3023.63 135.798
3023.70 181.403
3023.85 315.254
3024.00 427.936
3024.15 372.622
3024.30 254.185
3024.47 158.823
3024.65 107.620
3024.83 78.7361
3025.00 61.1491
3025.18 49.6240
3025.36 41.7223
3025.71 31.7321
3026.06 25.7824
3026.41 21.8972
3027.12 17.1244
3027.82 14.2528
3028.53 12.2630
3029.94 9.44738
3031.35 7.26338
3032.05 6.33422
3032.75 5.67831
3033.46 5.88727
3033.81 6.88595
3034.16 9.33600
3034.34 11.5990
3034.52 15.0330
3034.69 20.3398
3034.87 28.7231
3035.05 42.3667
3035.22 65.3835
3035.40 105.636
3035.57 177.067
3035.79 325.228
3036.00 464.385
3036.11 466.732
3036.21 423.035
3036.43 300.096
3036.61 220.847
3036.78 168.141
3036.96 132.883
3037.14 108.865
3037.49 79.1753
3037.85 62.2490
3038.20 51.5952
3038.56 44.3776
3039.27 35.3392
3039.98 29.9549
3040.69 26.3819
3042.11 21.8629
3043.53 18.9644
3044.24 17.7926
3044.95 16.7151
3045.66 15.7227
3046.01 15.3050
3046.37 15.0571
3046.72 15.3136
3046.90 15.9364
3047.08 17.3295
3047.26 20.4216
3047.43 27.5882
3047.52 34.6494
3047.61 46.4647
3047.70 66.9914
3047.79 102.653
3047.89 175.299
3048.00 240.634
3048.11 217.018
3048.21 155.106
3048.32 109.713
3048.43 82.4907
3048.54 65.7426
3048.64 54.8994
3048.75 47.4479
3048.86 42.1885
3049.07 35.3078
3049.29 31.0666
3049.50 28.2463
3049.93 24.7377
3050.36 22.6396
3050.79 21.2374
3051.64 19.4508
3052.50 18.3226
3053.36 17.5200
3055.07 16.3984
3056.79 15.6002
3058.50 14.9536
3059.36 14.6523
3060.22 14.3393
3060.65 14.1632
3061.08 13.9566
3061.29 13.8388
3061.51 13.7386
3061.61 13.7485
3061.72 13.9609
3061.77 14.3186
3061.83 15.1617
3061.85 16.0136
3061.88 17.4521
3061.91 19.9689
3061.93 24.3250
3061.97 33.3693
3062.00 42.0481
3062.03 39.4173
3062.07 31.8386
3062.10 26.2024
3062.13 22.7709
3062.16 20.5693
3062.20 19.1771
3062.26 17.5059
3062.33 16.5872
3062.46 15.6351
3062.59 15.1525
3062.85 14.6578
3063.10 14.3917
3063.62 14.0739
3064.14 13.8597
3065.18 13.5289
3066.22 13.2431
3068.30 12.6945
3070.38 12.0996
3072.45 11.3712
3073.49 10.9185
3074.53 10.3820
3075.57 9.76954
3076.09 9.48095
3076.61 9.32240
3077.13 9.64146
3077.39 10.3031
3077.65 11.7764
3077.91 15.0656
3078.17 22.7951
3078.30 30.4659
3078.43 43.3768
3078.56 65.9367
3078.69 105.565
3078.84 187.412
3079.00 263.331
3079.16 239.362
3079.31 171.129
3079.47 121.157
3079.62 90.4833
3079.77 71.3435
3079.93 58.8308
3080.08 50.2419
3080.23 44.0875
3080.54 36.0125
3080.84 31.0519
3081.15 27.7451
3081.76 23.6686
3082.38 21.2775
3082.99 19.7185
3083.60 18.6207
3084.21 17.8042
3085.44 16.6624
3086.66 15.8916
3089.11 14.8762
3091.56 14.1756
3094.01 13.5615
3095.23 13.2153
3095.84 13.0073
3096.46 12.7530
3097.07 12.4170
3097.37 12.1991
3097.68 11.9333
3097.99 11.6177
3098.14 11.4588
3098.29 11.3489
3098.45 11.4402
3098.52 11.7061
3098.60 12.3257
3098.68 13.7584
3098.75 17.1242
3098.79 20.5461
3098.83 26.1391
3098.87 35.7754
3098.90 52.5757
3098.93 68.5622
3098.95 88.6361
3099.00 123.193
3099.05 113.869
3099.10 84.1100
3099.13 68.1177
3099.16 56.4356
3099.22 41.9169
3099.29 33.8993
3099.35 29.0609
3099.42 25.9099
3099.48 23.7304
3099.61 20.9592
3099.74 19.2987
3099.86 18.2047
3100.12 16.8667
3100.38 16.0770
3100.63 15.5569
3100.89 15.1868
3101.14 14.9093
3101.65 14.5129
3102.17 14.2395
3103.19 13.8711
3104.21 13.6200
3105.23 13.4270
3107.28 13.1278
3111.37 12.6703
3115.46 12.2605
3119.56 11.8085
3121.60 11.5311
3123.65 11.1815
3124.67 10.9618
3125.69 10.6951
3126.72 10.3593
3127.74 9.91766
3128.25 9.63927
3128.76 9.31061
3129.27 8.92166
3129.79 8.47979
3130.04 8.25689
3130.30 8.06926
3130.55 7.99632
3130.81 8.24445
3131.06 9.42319
3131.19 10.8860
3131.32 13.6457
3131.45 19.1791
3131.51 23.9482
3131.58 31.1101
3131.64 42.1961
3131.70 59.9357
3131.77 89.1923
3131.83 136.890
3131.92 241.673
3132.00 336.505
3132.09 301.617
3132.17 211.819
3132.23 166.095
3132.28 133.298
3132.39 92.2416
3132.50 69.2627
3132.60 55.5304
3132.71 46.5279
3132.82 40.3846
3133.04 32.5870
3133.26 27.9652
3133.47 24.9536
3133.91 21.3229
3134.34 19.2299
3134.77 17.8833
3135.21 16.9432
3135.64 16.2526
3136.51 15.3002
3137.37 14.6729
3138.24 14.2241
3139.11 13.8839
3140.84 13.3931
3142.58 13.0456
3146.05 12.5541
3149.51 12.1824
3152.98 11.8402
3154.72 11.6518
3155.59 11.5431
3156.45 11.4150
3157.32 11.2509
3157.75 11.1444
3158.19 11.0106
3158.62 10.8329
3159.05 10.5947
3159.27 10.4707
3159.38 10.4369
3159.49 10.4755
3159.60 10.7260
3159.65 11.0457
3159.70 11.6566
3159.76 12.8623
3159.81 15.3991
3159.84 17.6910
3159.87 21.2554
3159.89 26.9258
3159.92 36.1927
3159.94 45.6843
3159.96 57.8137
3160.00 78.3105
3160.04 71.8182
3160.08 53.6284
3160.11 43.9255
3160.13 36.7690
3160.16 31.6778
3160.19 28.0039
3160.24 23.2388
3160.30 20.3948
3160.35 18.5578
3160.40 17.2952
3160.51 15.7006
3160.62 14.7518
3160.73 14.1298
3160.94 13.3702
3161.16 12.9253
3161.38 12.6322
3161.81 12.2655
3162.24 12.0377
3162.67 11.8771
3163.53 11.6503
3164.40 11.4822
3165.26 11.3387
3166.98 11.0704
3168.71 10.7700
3169.57 10.5828
3170.44 10.3465
3171.30 10.0219
3171.73 9.80369
3172.16 9.52888
3172.59 9.18097
3172.81 8.98660
3173.03 8.81462
3173.24 8.78972
3173.35 8.96133
3173.46 9.46315
3173.57 10.7517
3173.62 12.0326
3173.67 14.1546
3173.73 17.7985
3173.78 24.3548
3173.84 36.7740
3173.86 46.8939
3173.89 60.3779
3173.92 79.9819
3173.94 104.463
3174.00 145.963
3174.06 133.523
3174.11 96.6976
3174.16 72.1120
3174.21 56.3116
3174.26 45.7507
3174.31 38.7514
3174.40 30.1286
3174.50 25.2726
3174.60 22.2426
3174.69 20.2044
3174.89 17.6760
3175.08 16.1912
3175.28 15.2233
3175.47 14.5450
3175.66 14.0463
3176.05 13.3543
3176.44 12.8976
3177.21 12.3241
3177.99 11.9675
3178.77 11.7159
3180.32 11.3629
3181.87 11.1047
3183.42 10.8894
3186.52 10.5074
3189.62 10.1294
3192.72 9.70578
3194.28 9.45596
3195.83 9.15355
3196.60 8.96326
3197.38 8.71627
3197.77 8.55164
3198.15 8.34285
3198.35 8.23174
3198.54 8.19714
3198.64 8.33200
3198.74 8.89520
3198.78 9.65683
3198.83 11.2438
3198.88 14.9010
3198.90 18.4243
3198.93 24.0203
3198.96 37.6253
3199.00 50.4509
3199.04 46.6304
3199.07 35.2662
3199.10 28.1671
3199.13 23.4929
3199.16 20.3081
3199.19 18.0841
3199.24 15.2904
3199.30 13.6684
3199.41 11.9304
3199.52 11.0405
3199.75 10.1476
3199.97 9.69880
3200.42 9.21912
3200.87 8.93665
3201.77 8.54869
3202.66 8.23285
3204.46 7.62670
3206.26 6.98503
3207.15 6.66088
3208.05 6.37341
3208.95 6.21378
3209.85 6.42775
3210.75 7.75017
3211.19 9.47089
3211.64 12.8268
3212.09 19.6608
3212.32 25.6628
3212.54 34.7567
3212.77 49.1269
3212.99 72.4791
3213.21 111.919
3213.44 179.384
3213.72 319.180
3214.00 444.903
3214.28 397.243
3214.56 276.967
3214.88 181.955
3215.19 127.903
3215.51 96.2900
3215.82 76.5485
3216.14 63.4354
3216.45 54.2644
3217.08 42.5398
3217.71 35.4955
3218.34 30.8764
3219.60 25.2751
3220.86 22.0400
3222.12 19.9496
3223.38 18.4885
3224.64 17.4077
3227.16 15.9043
3229.68 14.8911
3232.19 14.1415
3234.71 13.5444
3239.75 12.5738
3242.27 12.1233
3244.79 11.6448
3247.31 11.0743
3248.57 10.7166
3249.82 10.2686
3251.08 9.66198
3251.71 9.26013
3252.34 8.75826
3252.97 8.12520
3253.29 7.76710
3253.60 7.43503
3253.92 7.32666
3254.08 7.56804
3254.23 8.35249
3254.39 10.4958
3254.47 12.7077
3254.55 16.4283
3254.63 23.1397
3254.67 28.3683
3254.70 35.6542
3254.74 46.3119
3254.78 61.3903
3254.82 83.4417
3254.86 115.583
3254.93 204.365
3255.00 283.294
3255.04 282.184
3255.07 253.975
3255.14 178.275
3255.18 141.474
3255.23 114.218
3255.31 79.6290
3255.40 60.1287
3255.48 48.3353
3255.57 40.4992
3255.66 35.0635
3255.83 28.1647
3256.00 23.9825
3256.17 21.2183
3256.51 17.7340
3256.86 15.5906
3257.03 14.8208
3257.20 14.2860
3257.37 14.2018
3257.46 14.5451
3257.54 15.4455
3257.63 17.5382
3257.71 22.3004
3257.76 26.8776
3257.80 34.2756
3257.84 46.5304
3257.88 66.3222
3257.94 112.010
3258.00 153.935
3258.06 140.839
3258.12 102.677
3258.19 70.9034
3258.26 53.0080
3258.33 42.5968
3258.39 36.1684
3258.46 31.8051
3258.53 28.7337
3258.67 24.7736
3258.81 22.3240
3258.94 20.6868
3259.22 18.6149
3259.49 17.3406
3259.77 16.4667
3260.32 15.3164
3260.87 14.5603
3261.42 14.0029
3262.51 13.1737
3263.61 12.4966
3264.16 12.1592
3264.71 11.7920
3265.26 11.3591
3265.54 11.1047
3265.81 10.8249
3266.09 10.5524
3266.22 10.4714
3266.36 10.5320
3266.50 11.0122
3266.57 11.6522
3266.64 12.8820
3266.71 15.4098
3266.77 20.8391
3266.81 26.0841
3266.84 34.3081
3266.88 47.9082
3266.91 70.6035
3266.93 93.1736
3266.96 119.817
3267.00 164.525
3267.05 148.362
3267.09 106.269
3267.13 78.8947
3267.17 61.4706
3267.21 50.0331
3267.24 42.2761
3267.32 32.7330
3267.40 27.4445
3267.47 24.1091
3267.55 21.9006
3267.70 19.1465
3267.86 17.5316
3268.01 16.4775
3268.31 15.1855
3268.62 14.4162
3268.93 13.8964
3269.54 13.2128
3270.15 12.7529
3270.76 12.3945
3271.99 11.7949
3273.21 11.1927
3273.82 10.8401
3274.43 10.4161
3274.74 10.1652
3275.05 9.88156
3275.35 9.56512
3275.66 9.23719
3275.96 9.01225
3276.12 9.07178
3276.27 9.48340
3276.42 10.8216
3276.50 12.3192
3276.58 14.9627
3276.65 19.9791
3276.73 29.8937
3276.77 38.5033
3276.80 51.4756
3276.84 71.3873
3276.88 101.971
3276.94 178.252
3277.00 247.783
3277.03 247.105
3277.06 223.068
3277.12 157.982
3277.17 120.316
3277.21 94.2825
3277.26 76.4479
3277.30 64.1918
3277.39 48.5133
3277.48 39.3978
3277.57 33.6100
3277.66 29.6795
3277.83 24.7738
3278.01 21.8749
3278.19 20.0017
3278.55 17.7325
3278.90 16.4135
3279.26 15.5557
3279.62 14.9485
3279.97 14.4961
3280.69 13.8580
3281.40 13.4226
3282.82 12.8468
3284.25 12.4625
3285.68 12.1723
3288.53 11.7302
3291.38 11.3741
3294.23 11.0477
3295.66 10.8808
3297.08 10.6954
3297.79 10.5841
3298.51 10.4417
3298.86 10.3469
3299.22 10.2275
3299.40 10.1661
3299.58 10.1574
3299.67 10.2522
3299.75 10.6189
3299.80 11.1022
3299.84 12.0888
3299.89 14.3889
3299.91 16.5362
3299.93 19.8995
3299.97 28.2709
3300.00 36.1622
3300.03 33.8119
3300.07 26.8208
3300.09 23.1895
3300.11 20.6231
3300.15 17.3402
3300.20 15.4371
3300.24 14.2989
3300.32 13.0110
3300.41 12.3345
3300.58 11.6555
3300.75 11.3196
3301.09 10.9822
3301.43 10.8048
3302.11 10.5994
3302.79 10.4646
3304.14 10.2597
3305.50 10.0818
3306.86 9.90780
3308.22 9.72511
3308.90 9.62477
3309.58 9.51176
3310.26 9.38624
3310.43 9.37163
3310.60 9.42583
3310.68 9.55024
3310.77 9.90953
3310.81 10.3342
3310.85 11.1517
3310.89 12.9091
3310.91 14.5229
3310.94 17.0692
3310.97 23.0787
3311.00 28.1587
3311.03 25.8490
3311.06 20.5421
3311.09 17.8507
3311.11 15.9674
3311.15 13.6578
3311.19 12.4007
3311.23 11.6513
3311.32 10.8372
3311.40 10.4198
3311.57 10.0053
3311.74 9.80132
3312.41 9.46540
3313.76 9.17205
3316.45 8.71244
3319.15 8.21747
3321.84 7.63414
3324.53 6.92382
3325.88 6.51911
3327.23 6.11332
3328.57 5.84702
3329.25 5.92605
3329.92 6.43155
3330.59 8.07900
3330.93 9.94051
3331.27 13.3504
3331.60 20.0520
3331.77 25.8090
3331.94 34.5178
3332.11 48.3152
3332.28 70.8929
3332.45 109.664
3332.61 177.509
3332.81 305.492
3333.00 411.515
3333.19 355.947
3333.39 241.347
3333.59 157.832
3333.80 109.759
3334.00 81.3800
3334.20 63.5818
3334.41 51.7474
3334.61 43.4766
3335.02 32.9117
3335.43 26.5902
3335.84 22.4417
3336.65 17.3615
3337.47 14.3396
3338.28 12.2776
3339.91 9.46015
3341.55 7.46320
3342.36 6.74714
3343.18 6.46116
3343.99 7.34474
3344.40 8.88401
3344.81 12.0987
3345.22 18.8266
3345.42 24.7412
3345.63 33.6954
3345.83 47.6131
3346.03 69.8907
3346.24 106.511
3346.44 166.723
3346.72 303.346
3347.00 431.114
3347.28 391.312
3347.56 276.587
3347.80 201.764
3348.04 152.409
3348.28 119.960
3348.52 97.9995
3348.99 71.0438
3349.47 55.8217
3349.95 46.2597
3350.43 39.8094
3351.38 31.7274
3352.34 26.9017
3353.29 23.6804
3355.20 19.5405
3357.11 16.7556
3358.06 15.5434
3359.02 14.3163
3359.97 12.9420
3360.45 12.1385
3360.93 11.2200
3361.41 10.1888
3361.65 9.69431
3361.88 9.37576
3362.12 9.70028
3362.24 10.5279
3362.36 12.4196
3362.48 16.6577
3362.54 20.5143
3362.60 26.3592
3362.66 35.7562
3362.72 50.7778
3362.78 76.2956
3362.84 118.467
3362.88 161.961
3362.92 215.382
3363.00 309.212
3363.04 312.359
3363.08 285.470
3363.16 206.030
3363.25 143.809
3363.33 106.237
3363.42 83.2606
3363.50 68.5778
3363.59 58.4391
3363.67 51.2827
3363.84 41.8379
3364.01 36.0238
3364.18 32.1304
3364.52 27.2883
3364.85 24.4031
3365.19 22.4945
3365.87 20.0934
3366.55 18.6104
3367.22 17.5777
3368.57 16.1694
3369.93 15.1898
3371.28 14.4184
3373.98 13.1507
3376.69 11.9662
3378.04 11.3205
3379.39 10.5792
3380.75 9.66261
3381.42 9.10150
3382.10 8.45117
3382.78 7.73858
3383.11 7.42961
3383.45 7.31214
3383.79 7.84260
3383.96 8.76742
3384.13 10.7540
3384.30 15.0793
3384.38 19.0505
3384.47 25.1910
3384.55 35.2608
3384.63 52.0513
3384.72 81.9401
3384.80 134.821
3384.90 240.291
3385.00 335.253
3385.05 334.014
3385.10 300.841
3385.20 211.784
3385.30 143.219
3385.41 102.939
3385.51 78.7997
3385.62 63.5823
3385.72 53.2310
3385.83 45.9843
3386.03 36.5478
3386.24 30.7942
3386.45 27.0011
3386.87 22.3279
3387.29 19.5625
3387.71 17.7299
3388.54 15.3881
3389.38 13.8714
3390.22 12.7264
3391.89 10.8733
3393.57 9.11831
3394.40 8.19950
3395.24 7.29768
3396.08 6.68993
3396.49 6.81202
3396.91 7.75278
3397.33 10.7441
3397.54 13.9427
3397.75 19.4498
3397.96 29.2258
3398.17 47.3785
3398.27 62.1770
3398.38 82.9328
3398.48 112.841
3398.58 154.908
3398.79 285.207
3399.00 410.475
3399.11 414.216
3399.21 377.158
3399.42 270.014
3399.55 212.953
3399.69 171.044
3399.97 118.600
3400.24 89.4320
3400.51 71.7963
3400.79 60.2220
3401.06 52.1973
3401.61 41.9823
3402.16 35.8309
3402.70 31.7762
3403.80 26.7849
3404.89 23.8452
3405.99 21.9058
3408.18 19.4862
3410.37 18.0089
3412.56 16.9853
3414.75 16.1906
3415.84 15.8072
3416.39 15.5891
3416.52 15.5463
3416.66 15.5681
3416.73 15.6731
3416.80 15.9914
3416.87 17.0326
3416.90 18.3757
3416.93 21.1895
3416.97 26.0249
3417.00 30.6501
3417.03 29.2187
3417.07 25.1519
3417.11 21.3362
3417.16 19.3529
3417.24 17.6389
3417.33 16.9261
3417.42 16.5492
3417.60 16.1567
3417.78 15.9492
3418.14 15.7110
3418.49 15.5589
3419.21 15.3399
3419.92 15.1657
3422.78 14.6171
3428.49 13.7720
3431.35 13.3917
3434.20 12.9888
3435.63 12.7493
3436.34 12.6062
3437.06 12.4337
3437.77 12.2090
3438.13 12.0633
3438.49 11.8826
3438.84 11.6549
3439.02 11.5243
3439.20 11.3998
3439.38 11.3451
3439.47 11.4126
3439.56 11.6559
3439.65 12.3285
3439.69 13.0287
3439.73 14.1851
3439.78 16.2586
3439.82 19.9875
3439.87 27.4258
3439.91 42.3381
3439.93 53.8854
3439.96 68.6422
3440.00 93.7397
3440.04 86.1323
3440.09 64.1202
3440.12 52.9191
3440.14 44.4809
3440.20 33.8577
3440.26 27.9205
3440.31 24.3144
3440.37 21.9582
3440.42 20.3258
3440.54 18.2491
3440.65 17.0052
3440.76 16.1866
3440.98 15.1870
3441.21 14.5971
3441.43 14.2099
3441.88 13.7235
3442.32 13.4227
3442.77 13.2120
3443.67 12.9197
3444.56 12.7098
3445.45 12.5394
3447.24 12.2519
3450.82 11.7369
3454.40 11.1832
3457.98 10.4780
3459.77 10.0117
3461.55 9.41020
3462.45 9.03327
3463.34 8.58654
3464.24 8.05094
3465.13 7.41768
3465.58 7.07397
3466.03 6.74315
3466.47 6.49709
3466.92 6.53738
3467.37 7.47809
3467.59 8.83243
3467.81 11.5477
3468.04 17.2004
3468.15 22.1864
3468.26 29.7030
3468.37 41.5916
3468.49 60.8979
3468.60 93.2451
3468.71 147.352
3468.85 265.096
3469.00 374.040
3469.15 338.164
3469.29 238.682
3469.44 165.538
3469.58 121.155
3469.73 93.5468
3469.87 75.7597
3470.02 63.5351
3470.17 54.8752
3470.46 43.5535
3470.75 36.6072
3471.04 31.9974
3471.62 26.3516
3472.20 23.0587
3472.78 20.9239
3473.36 19.4293
3473.94 18.3240
3475.11 16.7918
3476.27 15.7699
3478.59 14.4496
3480.92 13.5629
3483.25 12.8128
3484.41 12.4074
3484.99 12.1714
3485.57 11.8916
3486.15 11.5371
3486.44 11.3185
3486.73 11.0687
3487.02 10.8096
3487.17 10.7166
3487.31 10.7286
3487.46 11.0634
3487.53 11.5405
3487.61 12.4729
3487.68 14.3899
3487.75 18.4554
3487.79 22.2978
3487.82 28.1974
3487.86 37.6730
3487.90 53.2272
3487.92 69.6987
3487.95 89.8881
3488.00 124.064
3488.05 113.995
3488.10 83.4366
3488.15 62.1188
3488.20 48.6649
3488.25 39.9028
3488.30 34.2058
3488.40 27.3109
3488.49 23.5164
3488.59 21.1378
3488.69 19.5449
3488.88 17.5799
3489.07 16.4162
3489.27 15.6567
3489.65 14.7181
3490.04 14.1532
3490.42 13.7707
3491.20 13.2673
3491.97 12.9338
3492.74 12.6828
3494.29 12.3016
3497.38 11.7278
3500.47 11.2164
3503.57 10.6594
3505.11 10.3266
3506.66 9.92047
3508.21 9.38197
3508.98 9.02792
3509.75 8.58416
3510.14 8.31764
3510.52 8.01817
3510.91 7.68968
3511.30 7.37057
3511.68 7.22190
3511.88 7.38910
3512.07 8.02055
3512.26 9.84518
3512.36 11.7852
3512.46 15.1316
3512.55 21.3140
3512.60 26.2512
3512.65 33.2654
3512.70 43.7069
3512.75 58.9478
3512.80 81.9539
3512.84 116.660
3512.92 205.954
3513.00 285.203
3513.04 283.394
3513.08 254.769
3513.16 179.064
3513.23 125.754
3513.31 93.0794
3513.38 72.3329
3513.46 58.9308
3513.60 43.0139
3513.75 34.3637
3513.90 29.0257
3514.05 25.4819
3514.35 21.1448
3514.65 18.6031
3514.94 16.9461
3515.54 14.8800
3516.13 13.5716
3516.73 12.5561
3517.02 12.0812
3517.32 11.6620
3517.47 11.5890
3517.54 11.6826
3517.62 11.9928
3517.69 12.8102
3517.77 14.8824
3517.80 17.0164
3517.84 20.7038
3517.88 27.3286
3517.91 39.6683
3517.94 50.5925
3517.96 63.9321
3518.00 87.2429
3518.04 80.4079
3518.09 60.1526
3518.13 45.0463
3518.17 35.6444
3518.21 29.8229
3518.26 26.1070
3518.30 23.4904
3518.34 21.6546
3518.43 19.1995
3518.51 17.6620
3518.60 16.6386
3518.77 15.3492
3518.94 14.5630
3519.11 14.0326
3519.45 13.3411
3519.79 12.8914
3520.13 12.5631
3520.81 12.0914
3522.17 11.4679
3523.54 11.0191
3526.26 10.3066
3528.99 9.66403
3531.71 8.99057
3534.44 8.19978
3535.80 7.71980
3536.48 7.44780
3537.16 7.15107
3537.84 6.84044
3538.18 6.70147
3538.52 6.62128
3538.87 6.73913
3539.04 7.00632
3539.21 7.62877
3539.38 9.11768
3539.46 10.5828
3539.55 13.0698
3539.63 17.5814
3539.72 26.5522
3539.76 34.5793
3539.80 46.6792
3539.84 66.3916
3539.89 97.2058
3539.94 161.980
3540.00 214.015
3540.06 183.200
3540.11 123.699
3540.18 78.6328
3540.24 54.1005
3540.31 40.2152
3540.37 31.7647
3540.44 26.2685
3540.50 22.4918
3540.63 17.7551
3540.76 14.9763
3540.89 13.1813
3541.15 11.0265
3541.41 9.78245
3541.67 8.96439
3542.19 7.92367
3543.23 6.77855
3544.27 6.21735
3545.31 6.46069
3545.83 7.30759
3546.35 9.31322
3546.87 13.9252
3547.13 18.2511
3547.39 25.1562
3547.65 36.5877
3547.91 56.3780
3548.17 92.2893
3548.43 158.687
3548.72 284.340
3549.00 398.142
3549.29 356.961
3549.57 249.950
3549.81 181.924
3550.05 137.229
3550.29 107.688
3550.52 87.7052
3551.00 63.2547
3551.48 49.4792
3551.95 40.8524
3552.43 35.0519
3553.38 27.8150
3554.34 23.5105
3555.29 20.6474
3557.20 16.9583
3559.10 14.4433
3560.06 13.3311
3561.01 12.1953
3561.96 10.9262
3562.44 10.1990
3562.91 9.40112
3563.39 8.60131
3563.63 8.31824
3563.87 8.34628
3564.11 9.30081
3564.23 10.6424
3564.34 13.2794
3564.46 18.5624
3564.52 23.1177
3564.58 29.7438
3564.64 39.9461
3564.70 55.4983
3564.76 80.5328
3564.82 119.557
3564.91 216.039
3565.00 307.711
3565.05 309.692
3565.09 281.639
3565.18 201.506
3565.24 161.730
3565.29 132.352
3565.40 94.0047
3565.51 71.9886
3565.62 58.3727
3565.73 49.3634
3565.83 43.0641
3566.05 34.9725
3566.27 30.0767
3566.49 26.8285
3566.92 22.8102
3567.36 20.4204
3567.80 18.8244
3568.67 16.7890
3569.54 15.4971
3570.41 14.5676
3572.15 13.2317
3575.64 11.3719
3579.13 9.79927
3582.61 8.17246
3584.36 7.31229
3586.10 6.50081
3587.84 6.08554
3588.71 6.39304
3589.58 7.64156
3590.02 8.97205
3590.46 11.1569
3590.89 14.7534
3591.33 20.7595
3591.76 31.1467
3592.20 49.8416
3592.64 85.0957
3592.85 113.668
3593.07 153.086
3593.54 282.630
3594.00 407.307
3594.47 374.555
3594.93 267.962
3595.26 207.870
3595.58 164.849
3595.91 134.305
3596.24 112.410
3596.89 84.0378
3597.54 67.1184
3598.20 56.1749
3598.85 48.6344
3600.15 39.0727
3601.46 33.3349
3602.77 29.5421
3605.38 24.8525
3607.99 22.0467
3610.60 20.1498
3613.21 18.7467
3615.82 17.6317
3621.05 15.8218
3623.66 14.9733
3626.27 14.0546
3628.88 12.9257
3630.19 12.2002
3631.49 11.2823
3632.80 10.0535
3633.45 9.27395
3634.10 8.37938
3634.76 7.48625
3635.08 7.21614
3635.41 7.40371
3635.74 8.90152
3635.90 10.8332
3636.06 14.4746
3636.22 21.4662
3636.31 27.2709
3636.39 35.5023
3636.47 47.6712
3636.55 65.5146
3636.63 92.6644
3636.71 132.856
3636.86 247.214
3637.00 358.849
3637.07 364.131
3637.14 333.281
3637.29 241.382
3637.39 186.092
3637.50 147.038
3637.61 119.833
3637.71 100.672
3637.93 75.9341
3638.14 61.4054
3638.36 52.0184
3638.57 45.6036
3638.99 37.4812
3639.42 32.6122
3639.85 29.4101
3640.70 25.4669
3641.55 23.1404
3642.41 21.6013
3644.11 19.6709
3645.82 18.4814
3647.52 17.6434
3649.23 16.9669
3650.08 16.6092
3650.51 16.3859
3650.62 16.3437
3650.72 16.3780
3650.83 16.8495
3650.88 17.8683
3650.91 19.0675
3650.94 21.1733
3650.97 25.7116
3651.00 30.2513
3651.03 29.3358
3651.06 25.6915
3651.10 22.4261
3651.14 20.5849
3651.22 18.8566
3651.30 18.0813
3651.37 17.6647
3651.68 16.9859
3651.99 16.7211
3652.30 16.5587
3652.92 16.3343
3653.54 16.1632
3656.02 15.6412
3660.98 14.8298
3663.45 14.4372
3664.69 14.2215
3665.93 13.9741
3667.17 13.6638
3667.79 13.4646
3668.41 13.2146
3669.03 12.8810
3669.34 12.6686
3669.65 12.4217
3669.96 12.1625
3670.11 12.0695
3670.27 12.0861
3670.42 12.4380
3670.50 12.9393
3670.58 13.9205
3670.66 15.9395
3670.73 20.2343
3670.77 24.2283
3670.81 30.3360
3670.85 40.4122
3670.89 56.2387
3670.94 94.2355
3671.00 130.179
3671.06 119.699
3671.11 88.0609
3671.15 70.5322
3671.19 57.9613
3671.23 49.0693
3671.27 42.8198
3671.34 34.5850
3671.42 29.6626
3671.50 26.4433
3671.58 24.2594
3671.73 21.4924
3671.89 19.8309
3672.04 18.7464
3672.35 17.4165
3672.66 16.6324
3672.97 16.1148
3673.58 15.4659
3674.20 15.0631
3674.82 14.7794
3676.05 14.3819
3677.29 14.0906
3678.52 13.8460
3680.99 13.3992
3683.46 12.9113
3684.70 12.6100
3685.93 12.2291
3687.16 11.6981
3687.78 11.3324
3688.40 10.8555
3688.71 10.5571
3689.02 10.2074
3689.33 9.79988
3689.63 9.34863
3689.94 8.95394
3690.10 8.90963
3690.25 9.20576
3690.41 10.4370
3690.48 11.8721
3690.56 14.4801
3690.64 19.3744
3690.68 23.4275
3690.71 29.0688
3690.75 37.5008
3690.79 49.6793
3690.83 68.4725
3690.87 95.9217
3690.90 129.332
3690.93 171.142
3691.00 242.722
3691.03 244.225
3691.07 222.232
3691.13 160.151
3691.19 117.194
3691.25 89.8289
3691.31 71.7981
3691.37 59.8894
3691.49 45.3432
3691.61 37.1884
3691.73 32.1089
3691.85 28.6932
3692.08 24.4657
3692.32 21.9647
3692.56 20.3352
3692.80 19.1834
3693.03 18.3311
3693.51 17.1360
3693.98 16.3163
3694.46 15.6934
3694.58 15.5835
3694.70 15.5734
3694.76 15.6942
3694.82 16.0741
3694.88 17.2437
3694.91 18.6625
3694.93 21.2349
3694.97 26.3374
3695.00 31.1720
3695.03 29.7464
3695.07 25.4595
3695.09 22.6535
3695.12 20.8396
3695.18 18.7726
3695.23 17.7106
3695.28 17.0880
3695.39 16.3991
3695.50 16.0216
3695.72 15.5946
3695.93 15.3378
3696.37 14.9990
3696.80 14.7589
3697.66 14.4019
3698.53 14.1291
3700.26 13.7027
3701.99 13.3486
3703.72 13.0083
3704.59 12.8262
3705.45 12.6211
3706.32 12.3695
3706.75 12.2120
3707.18 12.0189
3707.61 11.7696
3708.05 11.4480
3708.26 11.2906
3708.37 11.2563
3708.48 11.3248
3708.59 11.6787
3708.64 12.1124
3708.70 12.9182
3708.75 14.4603
3708.80 17.5794
3708.86 24.3884
3708.88 30.6464
3708.91 40.4353
3708.93 51.8615
3708.96 65.8489
3709.00 89.6572
3709.04 82.9350
3709.09 61.8571
3709.12 49.0584
3709.16 40.3602
3709.19 34.2590
3709.23 30.1266
3709.30 24.8573
3709.36 21.8078
3709.43 19.8723
3709.50 18.5553
3709.64 16.9028
3709.78 15.9209
3709.92 15.2746
3710.19 14.4786
3710.47 14.0000
3710.74 13.6762
3711.29 13.2519
3711.85 12.9687
3712.40 12.7527
3713.50 12.4116
3715.71 11.8349
3717.91 11.2155
3719.01 10.8443
3720.12 10.4028
3721.22 9.85720
3722.32 9.15882
3722.87 8.73120
3723.42 8.24303
3723.98 7.69738
3724.53 7.14712
3725.08 6.82827
3725.36 7.01719
3725.63 7.87518
3725.91 10.4145
3726.04 13.0910
3726.18 17.6386
3726.32 25.7563
3726.46 40.8888
3726.53 53.2181
3726.60 70.7641
3726.66 95.9479
3726.73 131.308
3726.87 238.934
3727.00 341.297
3727.07 343.507
3727.14 312.155
3727.27 223.093
3727.40 158.190
3727.53 117.610
3727.66 92.0927
3727.79 75.3156
3727.92 63.7490
3728.05 55.4324
3728.31 44.4797
3728.57 37.7260
3728.83 33.2129
3729.35 27.6394
3729.87 24.3734
3730.39 22.2439
3730.91 20.7499
3731.43 19.6461
3732.47 18.1150
3733.51 17.0984
3734.55 16.3632
3735.59 15.7977
3737.67 14.9449
3739.74 14.2452
3740.78 13.8757
3741.30 13.6627
3741.82 13.4122
3742.34 13.0972
3742.60 12.9044
3742.86 12.6852
3743.12 12.4634
3743.25 12.3887
3743.38 12.4130
3743.51 12.7316
3743.58 13.1673
3743.64 14.0178
3743.71 15.7176
3743.77 19.3158
3743.84 27.6206
3743.87 35.4707
3743.90 47.8437
3743.95 78.5132
3744.00 107.632
3744.05 99.3184
3744.10 73.8401
3744.16 52.2326
3744.21 40.0962
3744.27 33.0648
3744.33 28.6917
3744.39 25.7884
3744.45 23.7545
3744.56 21.1562
3744.68 19.5682
3744.79 18.5173
3745.02 17.2282
3745.26 16.4646
3745.49 15.9622
3745.95 15.3307
3746.41 14.9415
3746.88 14.6694
3747.80 14.2965
3748.73 14.0342
3749.65 13.8254
3751.50 13.4800
3753.36 13.1586
3754.28 12.9849
3755.21 12.7852
3756.13 12.5325
3756.60 12.3697
3757.06 12.1657
3757.52 11.8955
3757.75 11.7250
3757.98 11.5300
3758.22 11.3315
3758.33 11.2665
3758.45 11.2932
3758.56 11.5906
3758.62 11.9921
3758.68 12.7514
3758.74 14.2731
3758.79 17.4525
3758.85 24.6478
3758.88 31.4531
3758.91 41.6347
3758.93 53.5604
3758.96 68.5421
3759.00 93.6218
3759.05 86.4835
3759.09 64.7603
3759.14 48.4544
3759.18 38.5207
3759.23 32.1443
3759.27 28.0515
3759.31 25.1654
3759.36 23.1360
3759.45 20.4471
3759.54 18.7599
3759.62 17.6373
3759.80 16.2225
3759.98 15.3669
3760.16 14.7906
3760.51 14.0225
3760.86 13.4711
3761.22 12.9907
3761.40 12.7880
3761.57 12.7738
3761.66 13.0739
3761.75 14.1479
3761.79 15.5209
3761.84 18.2343
3761.88 24.0904
3761.90 29.4164
3761.93 37.7178
3761.95 47.4081
3761.96 59.1927
3762.00 79.8756
3762.04 73.8211
3762.07 55.9104
3762.10 44.9700
3762.13 37.5413
3762.16 32.4396
3762.19 28.8565
3762.24 24.2706
3762.30 21.6528
3762.36 19.9551
3762.41 18.8171
3762.52 17.3784
3762.75 15.9360
3762.98 15.2260
3763.20 14.7966
3763.43 14.5072
3763.88 14.1305
3764.33 13.8882
3764.78 13.7133
3765.68 13.4666
3766.58 13.2910
3767.49 13.1529
3769.29 12.9364
3772.90 12.6108
3776.51 12.3411
3783.72 11.8339
3787.33 11.5505
3789.13 11.3708
3790.03 11.2390
3790.49 11.1501
3790.71 11.1935
3790.82 11.5621
3790.88 12.3121
3790.91 13.1709
3790.94 14.7882
3790.97 18.0162
3791.00 21.0435
3791.03 20.2204
3791.06 17.5520
3791.10 15.6533
3791.13 14.4350
3791.19 13.1583
3791.31 12.2227
3791.56 11.6926
3792.05 11.4073
3793.04 11.2026
3795.01 10.9377
3796.98 10.6635
3798.95 10.3256
3800.92 9.86013
3801.90 9.54097
3802.89 9.12388
3803.38 8.86173
3803.88 8.55179
3804.37 8.18497
3804.86 7.76460
3805.11 7.54788
3805.35 7.35827
3805.60 7.26129
3805.85 7.43198
3806.09 8.38920
3806.22 9.60157
3806.34 11.9242
3806.46 16.5504
3806.52 20.5596
3806.58 26.4498
3806.65 35.6474
3806.71 49.9674
3806.77 73.6395
3806.83 111.725
3806.92 197.871
3807.00 276.842
3807.04 276.439
3807.09 249.213
3807.17 176.252
3807.24 132.707
3807.30 103.306
3807.37 82.9886
3807.43 69.0477
3807.56 51.4460
3807.70 41.2938
3807.83 34.8778
3807.96 30.5329
3808.22 25.1219
3808.48 21.9434
3808.74 19.8772
3809.01 18.4357
3809.27 17.3798
3809.79 15.9289
3810.31 14.9841
3810.84 14.3156
3811.36 13.8166
3812.41 13.1109
3813.45 12.6254
3815.55 11.9682
3817.64 11.5057
3819.74 11.1274
3823.92 10.4469
3828.11 9.70418
3830.21 9.24718
3832.30 8.67883
3834.39 7.92429
3835.44 7.44265
3836.49 6.87751
3837.01 6.57216
3837.54 6.27756
3838.06 6.05471
3838.58 6.07757
3839.11 6.87962
3839.37 8.04935
3839.63 10.4158
3839.89 15.3895
3840.02 19.8176
3840.15 26.6276
3840.28 37.4475
3840.42 55.2896
3840.55 85.7807
3840.68 138.059
3840.84 246.466
3841.00 345.372
3841.16 310.142
3841.33 217.879
3841.49 148.338
3841.66 106.963
3841.83 81.9236
3842.00 65.9884
3842.17 55.1488
3842.34 47.5149
3842.67 37.5808
3843.01 31.5339
3843.35 27.5482
3844.02 22.6697
3844.70 19.8257
3845.37 17.9766
3846.05 16.6738
3846.72 15.7052
3848.07 14.3438
3849.42 13.4122
3852.12 12.1479
3854.82 11.2268
3857.51 10.3931
3858.86 9.94246
3860.21 9.39984
3860.89 9.04889
3861.22 8.83560
3861.56 8.58364
3861.90 8.28128
3862.24 7.96006
3862.40 7.89157
3862.49 7.96739
3862.57 8.23979
3862.66 8.99110
3862.74 10.9851
3862.78 13.1106
3862.83 16.8957
3862.87 23.9492
3862.89 29.6124
3862.91 37.4136
3862.93 48.9995
3862.96 63.5442
3863.00 87.8407
3863.05 80.8175
3863.09 59.6763
3863.13 47.0542
3863.16 38.2131
3863.19 32.0925
3863.23 27.7678
3863.30 22.2715
3863.36 19.0829
3863.43 17.0023
3863.50 15.5939
3863.63 13.7908
3863.77 12.6967
3863.90 11.9716
3864.17 11.0527
3864.44 10.4766
3864.71 10.0679
3865.26 9.48271
3866.34 8.65264
3867.42 7.92395
3868.50 7.17611
3869.04 6.81297
3869.58 6.54464
3870.12 6.66066
3870.40 7.14912
3870.67 8.37540
3870.94 11.3556
3871.07 14.2539
3871.21 19.0353
3871.34 27.2795
3871.48 42.3281
3871.54 54.5684
3871.61 71.6466
3871.68 96.4485
3871.75 131.257
3871.87 231.242
3872.00 320.459
3872.13 285.358
3872.25 198.866
3872.38 138.771
3872.50 101.842
3872.62 78.7144
3872.74 63.5684
3872.98 45.6723
3873.22 35.9457
3873.46 29.9677
3873.70 26.0124
3874.18 21.1453
3874.66 18.2862
3875.14 16.4081
3876.10 14.0604
3877.06 12.5931
3878.02 11.5305
3879.95 9.91316
3881.87 8.48496
3882.83 7.74778
3883.79 6.99006
3884.75 6.32608
3885.24 6.18813
3885.72 6.47771
3886.20 7.94508
3886.44 9.75070
3886.68 13.1128
3886.92 19.6576
3887.04 25.1269
3887.16 33.1321
3887.28 45.1344
3887.40 63.5885
3887.52 92.5633
3887.64 138.164
3887.82 248.445
3888.00 350.232
3888.18 316.243
3888.36 222.863
3888.56 149.687
3888.76 107.173
3888.95 81.7775
3889.15 65.6707
3889.34 54.8443
3889.54 47.2000
3889.93 37.3063
3890.32 31.2828
3890.72 27.2983
3891.50 22.3841
3892.29 19.4768
3893.07 17.5493
3894.64 15.0984
3896.21 13.5367
3897.78 12.3850
3900.91 10.5995
3904.05 8.98963
3905.62 8.13896
3907.19 7.22686
3908.76 6.31440
3909.54 5.97255
3910.33 5.94757
3911.11 6.88215
3911.51 8.26728
3911.90 11.0594
3912.29 16.8241
3912.49 21.8490
3912.68 29.4340
3912.88 41.2017
3913.07 60.0214
3913.27 90.9576
3913.47 142.171
3913.73 256.738
3914.00 362.958
3914.27 328.160
3914.54 231.531
3914.72 178.291
3914.91 140.514
3915.10 113.750
3915.28 94.6781
3915.65 70.0370
3916.03 55.4476
3916.40 46.0185
3916.77 39.5562
3917.52 31.3614
3918.26 26.4476
3919.01 23.1863
3920.50 19.0986
3921.99 16.5719
3923.48 14.7778
3926.46 12.1463
3929.44 9.92532
3930.93 8.79793
3932.42 7.62177
3933.91 6.49936
3934.65 6.12609
3935.40 6.20831
3936.14 7.58023
3936.52 9.44350
3936.89 13.0107
3937.26 19.9877
3937.45 25.7929
3937.63 34.2060
3937.82 46.7082
3938.01 65.4380
3938.19 94.0304
3938.38 137.617
3938.69 254.509
3939.00 367.593
3939.16 371.555
3939.31 338.715
3939.62 242.920
3939.81 195.169
3940.00 159.121
3940.38 112.410
3940.76 85.4850
3941.14 68.7746
3941.51 57.6810
3941.89 49.8998
3942.65 39.8697
3943.40 33.7525
3944.16 29.6668
3945.67 24.5592
3947.18 21.4591
3948.69 19.3336
3951.71 16.4535
3954.74 14.3453
3956.25 13.3702
3957.76 12.3521
3959.27 11.1854
3960.03 10.4919
3960.78 9.67908
3961.54 8.70456
3961.92 8.16524
3962.29 7.65782
3962.67 7.42612
3962.86 7.66902
3963.05 8.56586
3963.24 11.0341
3963.33 13.5631
3963.43 17.7519
3963.52 25.0802
3963.62 38.1971
3963.66 48.5956
3963.71 63.0686
3963.76 83.3414
3963.80 111.587
3963.90 201.739
3964.00 287.268
3964.05 289.020
3964.10 262.723
3964.20 187.764
3964.26 146.816
3964.33 117.231
3964.40 96.1598
3964.46 80.9340
3964.60 61.1398
3964.73 49.3531
3964.87 41.6409
3965.00 36.3530
3965.27 29.5954
3965.53 25.5289
3965.80 22.8291
3966.33 19.4623
3966.87 17.4155
3967.40 16.0104
3968.47 14.1112
3969.54 12.7770
3970.61 11.6922
3972.74 9.78620
3974.88 7.90867
3975.95 6.97004
3977.02 6.16799
3978.09 5.98259
3978.62 6.58570
3979.16 8.35705
3979.42 10.0698
3979.69 12.7343
3979.96 16.8980
3980.22 23.4961
3980.49 34.1836
3980.76 51.9741
3981.02 82.3853
3981.29 134.768
3981.65 253.970
3982.00 372.158
3982.18 378.591
3982.36 347.291
3982.71 251.715
3983.11 170.803
3983.51 123.532
3983.91 95.1997
3984.32 77.1902
3984.72 64.9374
3985.12 56.1702
3985.32 52.6627
3985.52 49.7036
3985.62 48.5561
3985.72 48.0390
3985.77 48.3821
3985.82 49.7503
3985.87 53.5669
3985.90 57.4202
3985.92 63.7493
3985.96 79.9424
3986.00 95.1773
3986.04 90.5536
3986.08 76.4618
3986.11 68.8148
3986.13 63.1008
3986.19 55.9146
3986.24 51.7919
3986.29 49.1469
3986.40 45.8700
3986.51 43.7924
3986.73 41.0127
3986.94 39.0240
3987.37 36.0283
3987.80 33.7308
3988.67 30.2819
3989.53 27.7542
3991.25 24.2050
3992.98 21.7180
3994.70 19.7043
3995.56 18.7416
3996.42 17.7202
3997.29 16.5210
3997.72 15.7861
3998.15 14.8938
3998.58 13.7647
3998.79 13.0888
3999.01 12.3693
3999.23 11.7667
3999.33 11.7028
3999.44 12.1144
3999.55 13.7222
3999.66 18.5688
3999.71 23.9108
3999.76 33.4651
3999.79 40.9088
3999.82 51.0772
3999.85 64.9976
3999.87 83.1202
3999.90 114.435
3999.94 153.550
4000.00 225.233
4000.03 231.124
4000.07 214.470
4000.13 160.514
4000.20 114.891
4000.27 87.4842
4000.34 70.5699
4000.41 59.5655
4000.48 52.0134
4000.54 46.5872
4000.68 39.4176
4000.82 34.9581
4000.96 31.9442
4001.23 28.1535
4001.51 25.8634
4001.79 24.3334
4002.34 22.3850
4002.89 21.1655
4003.44 20.3087
4004.55 19.1318
4005.65 18.3133
4006.76 17.6777
4008.97 16.6891
4013.39 15.1885
4017.81 13.8619
4022.22 12.4082
4024.43 11.5253
4026.64 10.4421
4028.85 9.03307
4029.96 8.15917
4031.06 7.17601
4032.17 6.23339
4032.72 5.98432
4033.27 6.26749
4033.82 8.02164
4034.10 10.1962
4034.38 14.2046
4034.65 21.7258
4034.79 27.8116
4034.93 36.4177
4035.07 48.7650
4035.20 66.7273
4035.34 93.0996
4035.48 131.664
4035.74 247.027
4036.00 361.613
4036.13 367.772
4036.26 337.319
4036.52 244.638
4036.82 166.366
4037.11 120.716
4037.40 93.4441
4037.70 76.1094
4037.99 64.4156
4038.29 56.1232
4038.87 45.3206
4039.46 38.6905
4040.05 34.2667
4041.23 28.7638
4042.40 25.4789
4043.58 23.2764
4044.17 22.4072
4044.76 21.6322
4045.35 20.9021
4045.49 20.7350
4045.64 20.6315
4045.71 20.6761
4045.79 20.9508
4045.86 22.0673
4045.90 23.6435
4045.93 26.9531
4045.97 32.7866
4046.00 38.1599
4046.03 36.5509
4046.07 31.8249
4046.09 28.8970
4046.12 26.9346
4046.17 24.5974
4046.27 22.5844
4046.37 21.7390
4046.47 21.2700
4046.67 20.7331
4046.88 20.3995
4047.28 19.9382
4047.68 19.5865
4048.49 19.0172
4049.30 18.5423
4052.53 17.1023
4055.76 16.0374
4058.99 15.1428
4062.22 14.3113
4065.46 13.4558
4067.07 12.9806
4068.69 12.4272
4069.49 12.0891
4070.30 11.6607
4070.71 11.3827
4071.11 11.0405
4071.31 10.8676
4071.51 10.8355
4071.62 11.0763
4071.72 12.0018
4071.77 13.1987
4071.82 15.5967
4071.87 20.8299
4071.89 25.6259
4071.92 32.9365
4071.94 41.6566
4071.96 52.6091
4072.00 70.8769
4072.04 65.6085
4072.08 49.7352
4072.11 41.2957
4072.14 35.2771
4072.19 27.5953
4072.24 23.2301
4072.29 20.5438
4072.40 17.5079
4072.50 15.9166
4072.71 14.2859
4072.92 13.4604
4073.13 12.9455
4073.34 12.5849
4073.75 12.0805
4074.59 11.4089
4075.42 10.8774
4077.09 9.86322
4078.76 8.73501
4080.43 7.41640
4081.26 6.72988
4082.09 6.18186
4082.93 6.27011
4083.35 7.01976
4083.76 8.93627
4083.97 10.7174
4084.18 13.4207
4084.39 17.5990
4084.60 24.0985
4084.81 34.5409
4085.01 51.6083
4085.22 80.5007
4085.43 129.247
4085.72 242.632
4086.00 354.798
4086.14 360.798
4086.29 330.958
4086.57 240.104
4086.87 166.495
4087.18 122.274
4087.48 95.2635
4087.79 77.8391
4088.09 65.9671
4088.39 57.4904
4089.00 46.3778
4089.61 39.5214
4090.22 34.9335
4091.44 29.2183
4092.65 25.8116
4093.87 23.5473
4096.30 20.6831
4098.73 18.8886
4101.17 17.5965
4106.03 15.6640
4110.90 13.9491
4113.33 12.9971
4115.76 11.8611
4118.20 10.3828
4119.41 9.43722
4120.63 8.30744
4121.85 7.02057
4122.46 6.42314
4123.06 6.09870
4123.67 6.71283
4123.98 7.94615
4124.28 10.5919
4124.43 12.8507
4124.58 16.1243
4124.74 20.9112
4124.89 28.0042
4125.04 38.6878
4125.19 55.0629
4125.34 80.5069
4125.50 119.980
4125.75 227.933
4126.00 336.908
4126.13 344.419
4126.25 317.537
4126.51 232.196
4126.67 186.757
4126.83 152.594
4127.15 108.793
4127.47 83.6494
4127.79 68.1414
4128.11 57.8171
4128.44 50.5898
4129.08 41.2169
4129.72 35.4726
4130.36 31.6014
4131.65 26.6585
4132.94 23.4838
4133.58 22.2025
4134.22 21.0175
4134.87 19.8887
4135.19 19.3646
4135.51 18.9445
4135.83 18.8607
4135.99 19.1651
4136.15 20.0212
4136.31 22.1020
4136.47 27.1052
4136.55 32.1097
4136.63 40.3346
4136.71 54.3818
4136.79 78.5834
4136.90 131.779
4137.00 182.211
4137.10 168.571
4137.21 124.772
4137.32 90.7182
4137.43 70.3454
4137.53 57.8418
4137.64 49.7451
4137.75 44.2114
4137.86 40.2491
4138.07 35.0325
4138.29 31.7829
4138.51 29.5967
4138.94 26.8295
4139.37 25.1338
4139.80 23.9758
4140.67 22.4516
4141.53 21.4526
4142.40 20.7197
4144.13 19.6656
4145.86 18.8990
4147.59 18.2855
4151.04 17.2890
4154.50 16.4011
4156.23 15.9363
4157.96 15.4121
4159.69 14.7596
4160.56 14.3426
4161.42 13.8183
4162.29 13.1086
4162.72 12.6398
4163.15 12.0526
4163.58 11.3025
4163.80 10.8654
4164.02 10.4254
4164.23 10.1479
4164.34 10.2456
4164.45 10.7882
4164.56 12.4067
4164.66 16.9092
4164.72 21.7710
4164.77 30.4548
4164.80 37.2544
4164.83 46.6078
4164.85 59.5312
4164.88 77.6698
4164.91 105.121
4164.94 139.309
4165.00 199.362
4165.03 202.241
4165.06 185.874
4165.12 135.974
4165.16 111.031
4165.19 91.8943
4165.27 67.1159
4165.34 52.8480
4165.42 43.9935
4165.49 38.1110
4165.56 33.9792
4165.71 28.6600
4165.86 25.3757
4166.01 23.1655
4166.30 20.3628
4166.60 18.5958
4166.89 17.3230
4167.48 15.3961
4168.07 13.6763
4168.37 12.7676
4168.66 11.7988
4168.96 10.8617
4169.11 10.5541
4169.26 10.6314
4169.40 11.7631
4169.55 15.9703
4169.62 21.0924
4169.70 30.9007
4169.74 38.9558
4169.77 50.4187
4169.81 66.8129
4169.85 89.3799
4169.88 123.277
4169.92 166.957
4170.00 246.085
4170.04 252.657
4170.08 234.172
4170.16 174.533
4170.22 135.723
4170.28 108.858
4170.34 89.9288
4170.40 76.7610
4170.52 59.8154
4170.64 49.8823
4170.76 43.4151
4170.88 38.9900
4171.12 33.3217
4171.36 29.8852
4171.60 27.6078
4172.09 24.7693
4172.57 23.0641
4173.05 21.9240
4174.02 20.4744
4174.98 19.5760
4175.95 18.9526
4177.88 18.1208
4179.81 17.5701
4181.74 17.1635
4185.60 16.5740
4189.46 16.1395
4193.32 15.7853
4201.04 15.1949
4208.76 14.6621
4216.48 14.1011
4220.34 13.7720
4224.20 13.3605
4226.13 13.0878
4227.09 12.9175
4228.06 12.7073
4229.02 12.4263
4229.50 12.2388
4229.99 11.9979
4230.47 11.6679
4230.71 11.4525
4230.95 11.1925
4231.19 10.8965
4231.31 10.7615
4231.43 10.7001
4231.55 10.8913
4231.61 11.2392
4231.67 11.9815
4231.73 13.5952
4231.79 17.1481
4231.82 20.4739
4231.85 25.7790
4231.88 34.4449
4231.91 48.9766
4231.94 64.0896
4231.96 82.6631
4232.00 115.730
4232.04 107.263
4232.09 79.6115
4232.12 63.6982
4232.15 52.1663
4232.18 44.0846
4232.21 38.4798
4232.27 31.1104
4232.33 26.7273
4232.39 23.8965
4232.45 21.9480
4232.57 19.4784
4232.70 17.9999
4232.82 17.0243
4233.06 15.8214
4233.31 15.1073
4233.55 14.6301
4234.04 14.0185
4234.53 13.6253
4235.02 13.3364
4235.99 12.9007
4237.94 12.2051
4239.90 11.4766
4240.87 11.0407
4241.85 10.5227
4242.83 9.88478
4243.80 9.07496
4244.29 8.58602
4244.78 8.03806
4245.27 7.44666
4245.75 6.89354
4246.24 6.70116
4246.49 7.06534
4246.73 8.24987
4246.97 11.3460
4247.10 14.3966
4247.22 19.3637
4247.34 27.6613
4247.46 41.9905
4247.58 67.6031
4247.71 114.038
4247.85 211.700
4248.00 308.179
4248.07 313.066
4248.15 286.814
4248.30 208.127
4248.39 167.069
4248.48 136.596
4248.66 97.3788
4248.85 74.8348
4249.03 60.9923
4249.22 51.7837
4249.40 45.3773
4249.77 37.1149
4250.14 32.1135
4250.51 28.7982
4251.25 24.7141
4251.99 22.3113
4252.72 20.7317
4253.46 19.6121
4254.20 18.7751
4255.67 17.5937
4257.15 16.7869
4260.10 15.7095
4263.05 14.9566
4266.00 14.3115
4267.48 13.9741
4268.22 13.7848
4268.96 13.5667
4269.69 13.2954
4270.06 13.1250
4270.43 12.9172
4270.80 12.6565
4271.17 12.3498
4271.36 12.2468
4271.54 12.4555
4271.63 13.0166
4271.72 14.6371
4271.77 16.4468
4271.82 19.7915
4271.86 26.3058
4271.91 39.6119
4271.95 63.8791
4272.00 86.9393
4272.05 80.9498
4272.09 61.0093
4272.13 49.8290
4272.16 41.6988
4272.19 35.9751
4272.22 31.9844
4272.29 26.6652
4272.35 23.5501
4272.49 20.1209
4272.62 18.3482
4272.75 17.2852
4272.88 16.5819
4273.14 15.7127
4273.40 15.1890
4273.66 14.8347
4274.19 14.3720
4274.71 14.0654
4275.23 13.8340
4276.28 13.4757
4278.37 12.9002
4280.47 12.3299
4282.56 11.6444
4283.61 11.2101
4284.65 10.6668
4285.70 9.94010
4286.22 9.46946
4286.75 8.89826
4287.27 8.22285
4287.53 7.88399
4287.79 7.64912
4288.05 7.83221
4288.19 8.37684
4288.32 9.65553
4288.45 12.5957
4288.51 15.3526
4288.58 19.6280
4288.64 26.6719
4288.71 38.3191
4288.77 58.4755
4288.84 93.8051
4288.92 168.648
4289.00 239.920
4289.04 241.433
4289.08 219.926
4289.16 157.871
4289.25 110.614
4289.33 82.1483
4289.41 64.3779
4289.49 52.9923
4289.58 45.1171
4289.66 39.5572
4289.82 32.2531
4289.99 27.7273
4290.15 24.7002
4290.48 20.9461
4290.81 18.7013
4291.14 17.2047
4291.80 15.2780
4292.46 14.0240
4293.12 13.0710
4294.43 11.5051
4295.75 9.95658
4296.41 9.08770
4297.07 8.13380
4297.73 7.18495
4298.06 6.86182
4298.39 6.93286
4298.72 8.13288
4298.88 9.75797
4299.05 12.8369
4299.21 18.8087
4299.29 23.7002
4299.37 30.7007
4299.46 41.0245
4299.54 56.1092
4299.62 78.6092
4299.70 112.060
4299.85 209.456
4300.00 305.597
4300.08 310.799
4300.15 285.258
4300.30 207.551
4300.41 159.347
4300.52 125.816
4300.64 102.563
4300.75 86.1072
4300.98 65.1396
4301.20 52.7882
4301.43 44.8439
4301.65 39.3802
4302.11 32.4406
4302.56 28.2581
4303.01 25.4709
4303.91 21.9702
4304.82 19.8158
4305.72 18.3015
4307.53 16.1270
4309.34 14.3073
4310.24 13.3389
4311.15 12.2166
4312.05 10.8129
4312.50 9.95839
4312.96 9.00257
4313.41 8.08053
4313.63 7.81550
4313.86 8.01782
4314.09 9.48612
4314.20 11.3176
4314.31 14.6625
4314.42 20.8264
4314.48 25.7721
4314.54 32.5245
4314.59 42.1820
4314.65 55.6389
4314.71 75.1769
4314.76 102.396
4314.82 142.888
4314.88 194.027
4315.00 287.254
4315.06 294.416
4315.12 272.265
4315.24 201.074
4315.37 140.921
4315.50 104.704
4315.63 82.6385
4315.76 68.4179
4315.89 58.7262
4316.02 51.7994
4316.28 42.6993
4316.54 37.0732
4316.80 33.2889
4317.32 28.5565
4317.84 25.7268
4318.36 23.8418
4319.40 21.4655
4320.44 19.9979
4321.48 18.9705
4323.56 17.5377
4325.64 16.4354
4326.68 15.8947
4327.72 15.2938
4328.76 14.5398
4329.28 14.0488
4329.80 13.4215
4330.06 13.0318
4330.32 12.5722
4330.58 12.0255
4330.84 11.3829
4331.10 10.6990
4331.23 10.4362
4331.36 10.4162
4331.49 11.1173
4331.55 12.1274
4331.62 14.0859
4331.68 17.8799
4331.75 25.4454
4331.78 31.9846
4331.81 41.2488
4331.84 54.8113
4331.88 74.5733
4331.91 102.445
4331.94 137.143
4332.00 200.345
4332.03 205.230
4332.06 190.166
4332.13 142.017
4332.17 111.939
4332.22 90.8826
4332.27 75.7476
4332.31 65.1506
4332.40 51.3195
4332.50 43.1500
4332.59 37.7879
4332.68 34.1180
4332.87 29.4039
4333.05 26.5451
4333.24 24.6575
4333.61 22.3140
4333.98 20.9131
4334.35 19.9809
4334.72 19.3081
4335.09 18.7981
4335.83 18.0625
4336.57 17.5463
4338.05 16.8384
4339.53 16.3426
4341.02 15.9496
4343.98 15.2988
4346.94 14.6840
4348.43 14.3461
4349.91 13.9543
4351.39 13.4583
4352.13 13.1420
4352.87 12.7517
4353.61 12.2515
4353.98 11.9501
4354.35 11.6265
4354.72 11.3542
4354.91 11.3278
4355.09 11.5342
4355.28 12.3525
4355.37 13.2986
4355.46 14.9735
4355.56 18.0962
4355.65 24.0750
4355.74 36.5420
4355.79 47.3203
4355.83 63.1045
4355.92 108.289
4356.00 151.480
4356.09 139.470
4356.17 102.227
4356.23 81.0460
4356.29 65.9330
4356.35 55.2920
4356.41 47.6711
4356.53 37.8508
4356.65 32.0123
4356.77 28.2400
4356.89 25.6396
4357.13 22.3417
4357.37 20.3393
4357.61 18.9998
4358.09 17.3011
4358.57 16.2236
4359.05 15.4344
4360.00 14.1984
4360.96 13.0151
4361.44 12.3346
4361.92 11.5306
4362.40 10.5591
4362.64 10.0288
4362.88 9.55881
4363.12 9.44547
4363.24 9.81503
4363.36 10.8995
4363.48 13.6170
4363.54 16.2127
4363.60 20.3340
4363.66 27.0151
4363.72 38.1313
4363.78 57.0944
4363.84 88.9468
4363.88 122.259
4363.92 163.739
4364.00 239.312
4364.04 244.193
4364.08 225.431
4364.16 166.041
4364.26 114.856
4364.35 85.2077
4364.44 67.4600
4364.53 56.1584
4364.62 48.4523
4364.72 43.0474
4364.90 35.9899
4365.09 31.6352
4365.27 28.7385
4365.64 25.1278
4366.01 22.9860
4366.38 21.5702
4366.75 20.5629
4367.11 19.8072
4367.85 18.7414
4368.59 18.0162
4370.07 17.0671
4371.54 16.4435
4373.02 15.9772
4375.97 15.2541
4378.92 14.6051
4380.39 14.2497
4381.87 13.8313
4383.35 13.2892
4384.08 12.9387
4384.82 12.5088
4385.56 11.9833
4385.93 11.7017
4386.30 11.4684
4386.67 11.4835
4386.85 11.7781
4387.03 12.5564
4387.22 14.4438
4387.40 19.0727
4387.50 23.7249
4387.59 31.5916
4387.68 45.3393
4387.77 69.6669
4387.89 122.009
4388.00 172.464
4388.12 159.985
4388.23 117.676
4388.36 82.0049
4388.49 61.4001
4388.62 49.2188
4388.75 41.5360
4388.88 36.3841
4389.02 32.7482
4389.28 28.0510
4389.54 25.1764
4389.80 23.2710
4390.32 20.9104
4390.85 19.5143
4391.37 18.5950
4391.89 17.9404
4392.42 17.4476
4393.46 16.7462
4394.51 16.2609
4396.60 15.6008
4398.69 15.1356
4400.79 14.7565
4404.97 14.0771
4409.16 13.3254
4411.25 12.8477
4413.34 12.2297
4414.39 11.8346
4415.43 11.3527
4416.48 10.7462
4417.53 9.95772
4418.05 9.46995
4418.57 8.90825
4419.10 8.27258
4419.62 7.60799
4420.14 7.14096
4420.40 7.23263
4420.67 7.95883
4420.93 10.2646
4421.06 12.7151
4421.19 16.8460
4421.32 24.0916
4421.45 37.1884
4421.58 61.8478
4421.65 81.5699
4421.71 108.756
4421.86 202.621
4422.00 295.323
4422.07 300.531
4422.15 276.149
4422.29 201.042
4422.39 159.006
4422.49 128.540
4422.59 106.388
4422.68 90.4088
4422.88 69.3092
4423.08 56.5378
4423.28 48.1916
4423.47 42.3979
4423.87 35.0092
4424.26 30.5394
4424.65 27.5777
4425.44 23.9202
4426.23 21.7423
4427.02 20.2860
4427.80 19.2225
4428.59 18.3920
4430.17 17.0821
4430.95 16.4886
4431.74 15.8620
4432.53 15.1109
4432.92 14.6379
4433.32 14.0507
4433.71 13.2822
4433.91 12.8084
4434.10 12.2829
4434.30 11.8022
4434.40 11.6992
4434.50 11.9009
4434.60 12.9075
4434.69 16.1506
4434.74 19.8616
4434.79 26.6955
4434.82 32.2775
4434.84 39.7340
4434.87 50.5918
4434.89 65.4200
4434.92 88.3357
4434.95 117.253
4435.00 171.378
4435.03 175.627
4435.06 163.178
4435.11 122.653
4435.15 99.8445
4435.18 82.6754
4435.26 61.2757
4435.33 49.0889
4435.40 41.7388
4435.48 36.8296
4435.55 33.4470
4435.70 29.0815
4435.84 26.4057
4435.99 24.6224
4436.28 22.4107
4436.58 21.0857
4436.87 20.2049
4437.16 19.5695
4437.46 19.0892
4438.04 18.3992
4438.63 17.9193
4439.80 17.2729
4440.98 16.8354
4442.15 16.5036
4444.50 15.9954
4446.85 15.5709
4448.02 15.3575
4449.19 15.1211
4450.37 14.8284
4450.95 14.6402
4451.54 14.4021
4452.13 14.0802
4452.42 13.8718
4452.71 13.6253
4453.01 13.3560
4453.15 13.2475
4453.30 13.2297
4453.45 13.4987
4453.52 13.9066
4453.59 14.7282
4453.67 16.4292
4453.74 20.0196
4453.81 28.2827
4453.85 36.3285
4453.89 48.8906
4453.94 80.6297
4454.00 111.900
4454.06 104.285
4454.11 78.3768
4454.18 56.3789
4454.24 43.8041
4454.31 36.3696
4454.37 31.6798
4454.44 28.5343
4454.50 26.3142
4454.63 23.4380
4454.76 21.6864
4454.89 20.5222
4455.15 19.0859
4455.42 18.2381
4455.68 17.6836
4456.20 16.9973
4456.72 16.5843
4457.24 16.3049
4458.28 15.9402
4459.32 15.7022
4460.36 15.5271
4462.44 15.2712
4464.52 15.0792
4466.60 14.9201
4470.77 14.6526
4479.09 14.1979
4487.42 13.7504
4495.74 13.2232
4499.91 12.8884
4504.07 12.4603
4508.23 11.8579
4510.31 11.4369
4512.39 10.8721
4513.43 10.5056
4514.48 10.0552
4515.52 9.48639
4516.56 8.74709
4517.08 8.29007
4517.60 7.76443
4518.12 7.17080
4518.64 6.55260
4519.16 6.12492
4519.42 6.22184
4519.68 6.92507
4519.94 9.12940
4520.07 11.4673
4520.20 15.4488
4520.33 22.4044
4520.46 35.0221
4520.52 45.0254
4520.59 58.9192
4520.65 78.3146
4520.72 105.239
4520.86 195.732
4521.00 285.291
4521.07 289.809
4521.14 265.872
4521.28 192.899
4521.40 143.566
4521.52 110.589
4521.65 88.7044
4521.77 73.8351
4522.01 55.3422
4522.25 44.8207
4522.49 38.1519
4522.73 33.6419
4523.21 27.9681
4523.70 24.5877
4524.18 22.3539
4525.15 19.5788
4526.11 17.8929
4527.08 16.7274
4529.01 15.0999
4530.94 13.8120
4531.90 13.1649
4532.87 12.4556
4533.84 11.6351
4534.32 11.1803
4534.80 10.7328
4535.28 10.4413
4535.53 10.5131
4535.77 10.9860
4536.01 12.4282
4536.25 16.4287
4536.37 20.7585
4536.49 28.4026
4536.61 42.6887
4536.73 69.4462
4536.87 122.654
4537.00 173.860
4537.14 161.054
4537.27 117.542
4537.35 95.8186
4537.43 79.4010
4537.60 58.0767
4537.76 45.7199
4537.93 38.0224
4538.09 32.8072
4538.25 29.0989
4538.58 24.0848
4538.91 20.7367
4539.07 19.4101
4539.23 18.3115
4539.40 17.6142
4539.48 17.6250
4539.56 18.1836
4539.64 19.9470
4539.72 24.5947
4539.77 29.2777
4539.81 37.0687
4539.85 50.2903
4539.89 72.0834
4539.92 95.7666
4539.94 124.959
4540.00 177.119
4540.06 166.712
4540.11 125.183
4540.15 101.344
4540.19 84.2846
4540.27 62.8439
4540.34 50.7005
4540.42 43.3754
4540.50 38.4720
4540.57 35.0741
4540.73 30.6201
4540.88 27.8598
4541.03 25.9769
4541.34 23.5559
4541.64 22.0287
4541.95 20.9588
4542.56 19.5199
4543.17 18.5583
4543.78 17.8469
4545.01 16.8032
4546.23 15.9898
4547.45 15.1970
4548.06 14.7243
4548.37 14.4405
4548.67 14.1071
4548.98 13.7092
4549.29 13.3032
4549.44 13.2469
4549.52 13.3805
4549.59 13.7836
4549.67 14.8091
4549.74 17.3111
4549.78 19.7867
4549.82 23.8866
4549.86 30.8441
4549.90 42.9288
4549.92 54.9816
4549.95 70.6673
4550.00 98.9642
4550.05 93.5999
4550.10 71.4925
4550.15 56.8514
4550.19 46.9225
4550.23 40.1704
4550.27 35.4622
4550.36 29.4953
4550.44 26.0718
4550.53 23.8596
4550.61 22.3620
4550.78 20.4582
4550.95 19.3016
4551.12 18.5292
4551.45 17.5581
4551.79 16.9587
4552.13 16.5440
4552.80 15.9827
4553.48 15.5977
4554.15 15.2995
4555.50 14.8302
4558.20 14.0763
4560.90 13.3347
4563.60 12.4241
4564.95 11.8258
4566.30 11.0544
4566.97 10.5716
4567.65 10.0001
4568.32 9.31921
4569.00 8.52306
4569.67 7.69280
4570.01 7.40021
4570.35 7.45866
4570.69 8.54897
4570.85 10.0416
4571.02 12.8870
4571.19 18.4340
4571.28 22.9934
4571.36 29.5336
4571.44 39.1965
4571.53 53.3499
4571.61 74.5072
4571.70 106.033
4571.85 197.695
4572.00 289.571
4572.08 295.122
4572.15 271.529
4572.30 198.315
4572.44 146.101
4572.58 112.121
4572.72 89.7822
4572.85 74.7949
4573.13 56.4585
4573.40 46.1142
4573.68 39.5918
4573.95 35.1768
4574.50 29.6585
4575.05 26.3722
4575.60 24.2103
4576.15 22.6772
4576.70 21.5356
4577.80 19.9364
4578.90 18.8563
4580.00 18.0606
4581.10 17.4322
4583.29 16.4287
4584.39 15.9692
4585.49 15.4805
4586.59 14.8889
4587.14 14.5097
4587.69 14.0270
4587.97 13.7248
4588.24 13.3642
4588.52 12.9258
4588.79 12.3904
4589.06 11.7562
4589.20 11.4424
4589.34 11.2382
4589.48 11.4417
4589.55 11.9643
4589.61 13.1207
4589.68 15.6459
4589.75 21.1007
4589.79 26.2326
4589.82 33.9722
4589.85 46.0861
4589.89 65.0215
4589.92 87.6239
4589.94 116.630
4590.00 169.548
4590.03 173.583
4590.06 161.052
4590.11 120.538
4590.15 96.0352
4590.19 78.4190
4590.24 65.9735
4590.28 57.2237
4590.36 45.6946
4590.44 38.7769
4590.52 34.2296
4590.60 31.1230
4590.76 27.1517
4590.93 24.7397
4591.09 23.1488
4591.41 21.1716
4591.74 19.9971
4592.06 19.2168
4592.39 18.6578
4592.71 18.2363
4593.36 17.6326
4594.01 17.2149
4595.31 16.6551
4596.61 16.2776
4597.91 15.9913
4600.51 15.5524
4603.11 15.1888
4605.71 14.8174
4607.01 14.5871
4607.66 14.4428
4608.31 14.2619
4608.96 14.0152
4609.28 13.8502
4609.60 13.6430
4609.93 13.3794
4610.25 13.0898
4610.42 13.0411
4610.58 13.4295
4610.66 14.2050
4610.74 16.2143
4610.78 18.3295
4610.82 21.8970
4610.86 28.4547
4610.90 40.0817
4610.95 64.9455
4611.00 88.8551
4611.05 83.2634
4611.10 63.5857
4611.13 52.5556
4611.16 44.4998
4611.20 38.7146
4611.23 34.5063
4611.30 28.9943
4611.36 25.6663
4611.49 21.9918
4611.62 20.0848
4611.76 18.9268
4611.89 18.1663
4612.15 17.2242
4612.41 16.6674
4612.68 16.2988
4613.20 15.8363
4613.73 15.5517
4614.25 15.3535
4615.31 15.0835
4616.36 14.8954
4617.41 14.7473
4619.52 14.5076
4623.72 14.0847
4624.78 13.9618
4625.83 13.8046
4626.35 13.6951
4626.88 13.5367
4627.14 13.4230
4627.41 13.2801
4627.54 13.2181
4627.67 13.2611
4627.74 13.4480
4627.80 14.0306
4627.87 15.9527
4627.90 18.4131
4627.93 23.2774
4627.97 32.4276
4628.00 41.6686
4628.03 39.6672
4628.07 32.2832
4628.10 26.4932
4628.14 22.8819
4628.21 19.2373
4628.28 17.5367
4628.34 16.5991
4628.48 15.6277
4628.62 15.1400
4628.90 14.6542
4629.17 14.4106
4629.73 14.1533
4630.28 14.0067
4631.39 13.8183
4632.49 13.6793
4636.91 13.2152
4641.34 12.7171
4645.76 12.0847
4647.97 11.6803
4650.18 11.1842
4652.39 10.5538
4654.60 9.72108
4655.71 9.19657
4656.81 8.57850
4657.92 7.85181
4659.02 7.03157
4660.13 6.26854
4660.68 6.10664
4661.24 6.44967
4661.79 8.15187
4662.07 10.1874
4662.34 13.8495
4662.62 20.6083
4662.89 33.4561
4663.03 44.0293
4663.17 59.1420
4663.31 80.8962
4663.45 112.059
4663.72 210.890
4664.00 310.249
4664.14 316.419
4664.28 291.212
4664.55 212.454
4664.86 147.425
4665.16 108.450
4665.46 84.7770
4665.76 69.5617
4666.06 59.2195
4666.37 51.8467
4666.97 42.2068
4667.57 36.2626
4668.18 32.2815
4669.38 27.3319
4670.59 24.3842
4671.80 22.4234
4673.01 21.0079
4674.21 19.9175
4676.63 18.2539
4677.84 17.5351
4679.04 16.8026
4680.25 15.9533
4680.85 15.4252
4681.46 14.7643
4682.06 13.8682
4682.36 13.2784
4682.66 12.5565
4682.97 11.6897
4683.12 11.2456
4683.27 10.9132
4683.42 11.0386
4683.50 11.5843
4683.57 12.8657
4683.65 15.7251
4683.72 21.9511
4683.76 27.6831
4683.80 36.2441
4683.83 49.8912
4683.87 70.4360
4683.90 97.0108
4683.94 130.374
4684.00 192.293
4684.03 198.031
4684.07 184.445
4684.13 139.094
4684.18 109.632
4684.23 88.7427
4684.28 74.1886
4684.33 63.8510
4684.43 50.6181
4684.53 42.7760
4684.63 37.7054
4684.73 34.2027
4684.93 29.7504
4685.13 27.0416
4685.33 25.2453
4685.73 22.9985
4686.13 21.6490
4686.52 20.7416
4687.32 19.5792
4688.12 18.8439
4688.92 18.3179
4690.51 17.5689
4692.11 16.9951
4693.71 16.4381
4694.50 16.1036
4694.90 15.8996
4695.30 15.6533
4695.70 15.3443
4696.10 14.9722
4696.30 14.8295
4696.50 15.0098
4696.60 15.5892
4696.70 17.3186
4696.75 19.2734
4696.80 22.9049
4696.85 29.9925
4696.90 43.8384
4696.95 69.9585
4697.00 95.5167
4697.05 89.4976
4697.10 68.2516
4697.14 56.9991
4697.17 48.6551
4697.23 38.2156
4697.30 32.2296
4697.36 28.6204
4697.43 26.2076
4697.50 24.5511
4697.63 22.4075
4697.76 21.1108
4697.89 20.2498
4698.15 19.1831
4698.41 18.5478
4698.67 18.1235
4699.20 17.5827
4699.72 17.2415
4700.25 16.9977
4701.29 16.6526
4702.34 16.4003
4703.39 16.1921
4705.49 15.8297
4707.58 15.4657
4708.63 15.2552
4709.68 14.9998
4710.73 14.6576
4711.25 14.4281
4711.77 14.1334
4712.30 13.7410
4712.56 13.4986
4712.82 13.2341
4713.08 13.0124
4713.21 12.9954
4713.35 13.1781
4713.48 13.8802
4713.54 14.6822
4713.61 16.0758
4713.67 18.6359
4713.74 23.3807
4713.80 32.7171
4713.87 51.6439
4713.93 86.9778
4714.00 121.980
4714.07 114.444
4714.13 85.9704
4714.21 62.1768
4714.28 48.3433
4714.35 39.9239
4714.43 34.6315
4714.50 31.0059
4714.57 28.4682
4714.72 25.1533
4714.87 23.1071
4715.01 21.7427
4715.31 20.0588
4715.60 19.0610
4715.89 18.4065
4716.19 17.9421
4716.48 17.5945
4717.07 17.1047
4717.65 16.7719
4718.83 16.3353
4720.00 16.0457
4721.17 15.8264
4723.52 15.4799
4725.87 15.1635
4727.04 14.9886
4728.21 14.7798
4729.39 14.4987
4729.98 14.3056
4730.56 14.0480
4731.15 13.6749
4731.44 13.4147
4731.74 13.0786
4732.03 12.6366
4732.18 12.3763
4732.32 12.1205
4732.47 11.9829
4732.54 12.0791
4732.62 12.4742
4732.69 13.5924
4732.76 16.5191
4732.80 19.6050
4732.84 24.7598
4732.87 34.1413
4732.91 50.4469
4732.93 66.4040
4732.95 86.8151
4733.00 123.743
4733.05 117.250
4733.09 88.4868
4733.13 71.0534
4733.16 58.9037
4733.19 50.2781
4733.23 44.0576
4733.29 35.9758
4733.36 31.1269
4733.42 27.9732
4733.49 25.7898
4733.62 23.0051
4733.75 21.3279
4733.89 20.2176
4734.15 18.8487
4734.41 18.0414
4734.68 17.5093
4735.21 16.8486
4735.73 16.4498
4736.26 16.1797
4737.32 15.8274
4738.38 15.5976
4739.43 15.4282
4741.54 15.1777
4743.66 14.9832
4745.77 14.8136
4749.99 14.4947
4754.22 14.1484
4756.33 13.9423
4758.44 13.6929
4760.56 13.3640
4761.61 13.1460
4762.67 12.8637
4763.73 12.4669
4764.25 12.1933
4764.78 11.8338
4765.31 11.3354
4765.57 11.0087
4765.84 10.6178
4766.10 10.1869
4766.23 10.0077
4766.37 9.96277
4766.50 10.3458
4766.56 10.9483
4766.63 12.1700
4766.70 14.6514
4766.76 19.9025
4766.79 24.6043
4766.83 31.8102
4766.86 43.0289
4766.89 60.4881
4766.92 81.0664
4766.95 107.198
4767.00 152.432
4767.03 154.750
4767.05 142.249
4767.11 105.332
4767.15 80.1107
4767.20 63.2611
4767.25 52.0854
4767.29 44.5812
4767.38 35.1043
4767.47 29.7460
4767.57 26.3241
4767.66 24.0250
4767.84 21.1317
4768.02 19.3960
4768.20 18.2499
4768.57 16.8308
4768.94 15.9727
4769.30 15.3887
4770.03 14.6091
4770.76 14.0686
4771.49 13.6299
4772.95 12.8299
4773.68 12.4021
4774.41 11.9159
4775.15 11.3327
4775.88 10.5990
4776.24 10.1509
4776.61 9.63724
4776.97 9.05435
4777.34 8.43339
4777.70 7.94816
4777.89 7.95764
4778.07 8.47084
4778.25 10.2557
4778.34 12.1860
4778.43 15.4968
4778.52 21.3779
4778.62 31.9407
4778.66 40.3893
4778.71 51.8174
4778.75 68.0419
4778.80 89.9434
4778.85 123.805
4778.90 166.978
4779.00 243.591
4779.05 248.572
4779.10 229.032
4779.20 167.944
4779.29 127.668
4779.37 100.427
4779.45 81.9386
4779.54 69.0657
4779.70 52.8498
4779.87 43.4993
4780.04 37.5014
4780.20 33.4243
4780.54 28.2652
4780.87 25.1591
4781.20 23.1025
4781.87 20.5274
4782.53 18.9538
4783.20 17.8604
4784.53 16.3144
4785.86 15.0430
4786.52 14.3683
4787.19 13.5787
4787.85 12.5621
4788.19 11.9163
4788.52 11.1505
4788.85 10.2855
4789.02 9.89303
4789.18 9.69434
4789.35 10.1428
4789.43 10.9870
4789.52 12.7526
4789.60 16.3501
4789.64 19.4401
4789.68 23.8259
4789.72 30.4465
4789.77 40.0898
4789.81 54.9744
4789.85 76.7662
4789.89 105.513
4789.92 142.594
4790.00 211.128
4790.04 217.064
4790.08 201.735
4790.15 150.672
4790.22 113.366
4790.29 88.9419
4790.36 72.6059
4790.43 61.6426
4790.56 48.0536
4790.70 40.2910
4790.84 35.3798
4790.97 32.0331
4791.25 27.8108
4791.52 25.2783
4791.80 23.5968
4792.07 22.3992
4792.34 21.5013
4792.89 20.2382
4793.44 19.3828
4794.54 18.2669
4795.63 17.5207
4796.73 16.9071
4797.28 16.5896
4797.82 16.2096
4798.10 15.9742
4798.37 15.7231
4798.51 15.6588
4798.65 15.8767
4798.71 16.3697
4798.78 17.6594
4798.82 19.0021
4798.85 21.3268
4798.88 25.4892
4798.92 33.0459
4798.96 48.9827
4799.00 64.7538
4799.04 61.3232
4799.08 48.4575
4799.11 41.2747
4799.14 36.1880
4799.19 29.7777
4799.25 26.1801
4799.30 23.9812
4799.41 21.5232
4799.52 20.2224
4799.73 18.8957
4799.95 18.2311
4800.38 17.5480
4800.81 17.1818
4801.68 16.7591
4802.55 16.4925
4804.28 16.1246
4806.01 15.8482
4809.47 15.3926
4812.94 14.9543
4816.40 14.4273
4818.13 14.0776
4819.87 13.6107
4820.73 13.3047
4821.60 12.9228
4822.46 12.4284
4823.33 11.7602
4823.76 11.3302
4824.20 10.8120
4824.63 10.1838
4825.06 9.43289
4825.50 8.62123
4825.71 8.30408
4825.93 8.27520
4826.15 9.11416
4826.25 10.3273
4826.36 12.6860
4826.47 17.3252
4826.52 21.1219
4826.58 26.5442
4826.63 34.3885
4826.69 45.8790
4826.74 62.8497
4826.79 87.8060
4826.85 121.767
4826.90 164.549
4827.00 243.573
4827.05 249.753
4827.10 231.415
4827.21 171.387
4827.29 131.133
4827.38 103.730
4827.46 84.8704
4827.54 71.8808
4827.71 55.4572
4827.88 45.9498
4828.05 39.8369
4828.22 35.6550
4828.56 30.3865
4828.89 27.2263
4829.23 25.1480
4829.57 23.6764
4829.91 22.5880
4830.58 21.0817
4831.26 20.0915
4831.93 19.3909
4832.61 18.8685
4833.96 18.1392
4835.31 17.6519
4836.66 17.3008
4838.01 17.0342
4840.71 16.6521
4843.41 16.3871
4848.81 16.0341
4854.21 15.8010
4859.61 15.6300
4870.41 15.3861
4881.21 15.2125
4892.00 15.0777
4913.60 14.8737
4956.80 14.5963
5000.00 14.4020
5000.00 17.2200
5250.00 17.1023
5500.00 16.9973
5750.00 16.8875
6000.00 16.7858
6250.00 16.6914
6500.00 16.6031
6750.00 16.5088
7000.00 16.4222
7250.00 16.3420
7500.00 16.2668
7750.00 16.1845
8000.00 16.1089
8250.00 16.0389
8500.00 15.9737
8750.00 15.9042
9000.00 15.8372
9250.00 15.7727
9500.00 15.7112
9750.00 15.6486
10000.0 15.5896
10250.0 15.5336
10500.0 15.4794
10750.0 15.4272
10875.0 15.4019
11000.0 15.3745
11250.0 15.3213
11500.0 15.2699
11750.0 15.2200
12000.0 15.1716
12250.0 15.1248
12500.0 15.0751
12750.0 15.0267
13000.0 14.9797
13250.0 14.9340
13500.0 14.8897
13750.0 14.8465
14000.0 14.8046
14250.0 14.7638
14500.0 14.7241
14750.0 14.6855
15000.0 14.6480
15250.0 14.6077
15500.0 14.5683
15750.0 14.5296
16000.0 14.4917
16250.0 14.4547
16500.0 14.4184
16750.0 14.3829
17000.0 14.3483
17250.0 14.3145
17500.0 14.2814
17750.0 14.2468
18000.0 14.2130
18250.0 14.1800
18500.0 14.1478
18750.0 14.1165
19000.0 14.0859
19250.0 14.0562
19500.0 14.0273
19750.0 13.9993
20000.0 13.9720
20250.0 13.9438
20500.0 13.9158
20750.0 13.8880
21000.0 13.8603
21250.0 13.8328
21500.0 13.8055
21750.0 13.7783
22000.0 13.7514
22250.0 13.7247
22500.0 13.6981
22750.0 13.6717
23000.0 13.6455
23250.0 13.6195
23500.0 13.5938
23750.0 13.5683
24000.0 13.5430
24250.0 13.5171
24500.0 13.4915
24750.0 13.4660
25000.0 13.4408
25250.0 13.4159
25500.0 13.3912
25750.0 13.3668
26000.0 13.3426
26250.0 13.3187
26500.0 13.2951
26750.0 13.2716
27000.0 13.2486
27250.0 13.2258
27500.0 13.2033
27750.0 13.1811
28000.0 13.1592
28250.0 13.1376
28500.0 13.1164
28750.0 13.0955
29000.0 13.0749
29250.0 13.0547
29500.0 13.0347
29750.0 13.0152
30000.0 12.9960
30250.0 12.9762
30500.0 12.9566
30750.0 12.9371
31000.0 12.9177
31250.0 12.8983
31500.0 12.8791
31750.0 12.8601
32000.0 12.8412
32250.0 12.8224
32500.0 12.8037
32750.0 12.7852
33000.0 12.7668
33250.0 12.7486
33500.0 12.7305
33750.0 12.7126
34000.0 12.6947
34250.0 12.6771
34500.0 12.6596
34750.0 12.6422
35000.0 12.6250
35250.0 12.6080
35500.0 12.5911
35750.0 12.5744
36000.0 12.5579
36250.0 12.5416
36500.0 12.5254
36750.0 12.5094
37000.0 12.4935
37250.0 12.4779
37500.0 12.4625
37750.0 12.4465
38000.0 12.4308
38250.0 12.4152
38500.0 12.3999
38750.0 12.3847
39000.0 12.3699
39250.0 12.3551
39500.0 12.3406
39750.0 12.3263
40000.0 12.3122
40250.0 12.2982
40500.0 12.2844
40750.0 12.2705
41000.0 12.2566
41250.0 12.2428
41500.0 12.2292
41750.0 12.2154
42000.0 12.2018
42250.0 12.1882
42500.0 12.1747
42750.0 12.1612
43000.0 12.1478
43250.0 12.1346
43500.0 12.1212
43750.0 12.1081
44000.0 12.0949
44250.0 12.0818
44500.0 12.0689
44750.0 12.0560
45000.0 12.0432
45250.0 12.0300
45500.0 12.0170
45750.0 12.0040
46000.0 11.9911
46250.0 11.9783
46500.0 11.9656
46750.0 11.9530
47000.0 11.9404
47250.0 11.9280
47500.0 11.9156
47750.0 11.9035
48000.0 11.8913
48250.0 11.8793
48500.0 11.8674
48750.0 11.8557
49000.0 11.8439
49250.0 11.8324
49500.0 11.8210
49750.0 11.8097
50000.0 11.7985
50250.0 11.7874
50500.0 11.7763
50750.0 11.7652
51000.0 11.7542
51250.0 11.7432
51500.0 11.7322
51750.0 11.7212
52000.0 11.7104
52250.0 11.6994
52500.0 11.6886
52750.0 11.6778
53000.0 11.6670
53250.0 11.6563
53500.0 11.6456
53750.0 11.6349
54000.0 11.6243
54250.0 11.6137
54500.0 11.6031
54750.0 11.5927
55000.0 11.5823
55250.0 11.5716
55500.0 11.5611
55750.0 11.5506
56000.0 11.5401
56250.0 11.5297
56500.0 11.5193
56750.0 11.5090
57000.0 11.4989
57250.0 11.4887
57500.0 11.4787
57750.0 11.4686
58000.0 11.4587
58250.0 11.4488
58500.0 11.4390
58750.0 11.4293
59000.0 11.4196
59250.0 11.4101
59500.0 11.4006
59750.0 11.3912
60000.0 11.3819
60250.0 11.3726
60500.0 11.3634
60750.0 11.3541
61000.0 11.3450
61250.0 11.3358
61500.0 11.3266
61750.0 11.3175
62000.0 11.3084
62250.0 11.2993
62500.0 11.2902
62750.0 11.2812
63000.0 11.2722
63250.0 11.2632
63500.0 11.2543
63750.0 11.2454
64000.0 11.2365
64250.0 11.2276
64500.0 11.2188
64750.0 11.2101
65000.0 11.2014
65250.0 11.1925
65500.0 11.1837
65750.0 11.1749
66000.0 11.1662
66250.0 11.1575
66500.0 11.1489
66750.0 11.1404
67000.0 11.1317
67250.0 11.1233
67500.0 11.1149
67750.0 11.1064
68000.0 11.0981
68250.0 11.0898
68500.0 11.0816
68750.0 11.0734
69000.0 11.0653
69250.0 11.0572
69500.0 11.0492
69750.0 11.0413
70000.0 11.0334
70250.0 11.0256
70500.0 11.0177
70750.0 11.0099
71000.0 11.0022
71250.0 10.9944
71500.0 10.9866
71750.0 10.9788
72000.0 10.9711
72250.0 10.9634
72500.0 10.9557
72750.0 10.9480
73000.0 10.9403
73250.0 10.9327
73500.0 10.9251
73750.0 10.9176
74000.0 10.9099
74250.0 10.9025
74500.0 10.8949
74750.0 10.8875
75000.0 10.8800
75250.0 10.8725
75500.0 10.8650
75750.0 10.8575
76000.0 10.8501
76250.0 10.8427
76500.0 10.8354
76750.0 10.8281
77000.0 10.8209
77250.0 10.8137
77500.0 10.8065
77750.0 10.7993
77796.0 10.7980
77796.4 10.7980
78000.0 10.7922
78250.0 10.7851
78500.0 10.7780
78750.0 10.7709
79000.0 10.7638
79250.0 10.7568
79500.0 10.7498
79750.0 10.7429
80000.0 10.7360
80250.0 10.7291
80500.0 10.7222
80750.0 10.7153
81000.0 10.7085
81250.0 10.7016
81500.0 10.6948
81750.0 10.6879
82000.0 10.6811
82250.0 10.6744
82500.0 10.6676
82750.0 10.6609
83000.0 10.6541
83250.0 10.6474
83500.0 10.6408
83750.0 10.6341
84000.0 10.6274
84250.0 10.6208
84500.0 10.6141
84750.0 10.6076
85000.0 10.6010
85250.0 10.5944
85500.0 10.5879
85750.0 10.5814
86000.0 10.5749
86250.0 10.5685
86500.0 10.5620
86750.0 10.5556
87000.0 10.5492
87250.0 10.5429
87500.0 10.5366
87750.0 10.5304
88000.0 10.5241
88250.0 10.5179
88500.0 10.5118
88750.0 10.5056
89000.0 10.4995
89250.0 10.4933
89500.0 10.4872
89750.0 10.4811
90000.0 10.4750
90250.0 10.4689
90500.0 10.4629
90750.0 10.4568
91000.0 10.4508
91250.0 10.4448
91500.0 10.4388
91750.0 10.4328
92000.0 10.4267
92250.0 10.4208
92500.0 10.4149
92750.0 10.4090
93000.0 10.4032
93250.0 10.3973
93500.0 10.3914
93750.0 10.3856
94000.0 10.3797
94250.0 10.3739
94500.0 10.3681
94750.0 10.3624
95000.0 10.3566
95250.0 10.3509
95500.0 10.3451
95750.0 10.3394
96000.0 10.3337
96250.0 10.3280
96500.0 10.3224
96750.0 10.3167
97000.0 10.3111
97250.0 10.3055
97500.0 10.2999
97750.0 10.2944
98000.0 10.2888
98250.0 10.2833
98500.0 10.2777
98750.0 10.2722
99000.0 10.2668
99250.0 10.2613
99500.0 10.2558
100000 10.2450
100250 10.2396
100500 10.2341
100750 10.2287
101000 10.2233
102000 10.2018
103000 10.1804
104000 10.1591
105000 10.1381
106000 10.1171
107000 10.0963
108000 10.0757
109000 10.0553
110000 10.0350
111000 10.0149
112000 9.99492
113000 9.97512
114000 9.95547
115000 9.93598
116000 9.91667
117000 9.89751
118000 9.87851
119000 9.85967
120000 9.84100
121000 9.82221
122000 9.80349
123000 9.78485
124000 9.76628
125000 9.74778
126000 9.72937
127000 9.71104
128000 9.69279
129000 9.67464
130000 9.65658
131000 9.63862
132000 9.62075
133000 9.60299
134000 9.58533
135000 9.56779
136000 9.55035
137000 9.53303
138000 9.51583
139000 9.49876
140000 9.48180
141000 9.46484
142000 9.44792
143000 9.43103
144000 9.41420
145000 9.39741
146000 9.38069
147000 9.36401
148000 9.34739
149000 9.33083
150000 9.31433
151000 9.29785
152000 9.28145
153000 9.26510
154000 9.24884
155000 9.23266
156000 9.21655
157000 9.20054
158000 9.18460
159000 9.16875
160000 9.15300
161000 9.13728
162000 9.12163
163000 9.10604
164000 9.09050
165000 9.07501
166000 9.05958
167000 9.04419
168000 9.02885
169000 9.01355
170000 8.99830
171000 8.98306
172000 8.96786
173000 8.95268
174000 8.93754
175000 8.92242
176000 8.90733
177000 8.89227
178000 8.87723
179000 8.86220
180000 8.84720
181000 8.83220
182000 8.81726
183000 8.80238
184000 8.78756
185000 8.77281
186000 8.75812
187000 8.74351
188000 8.72896
189000 8.71449
190000 8.70009
191000 8.68572
192000 8.67143
193000 8.65723
194000 8.64308
195000 8.62903
196000 8.61505
197000 8.60117
198000 8.58735
199000 8.57363
200000 8.56000
210000 8.42672
220000 8.29885
230000 8.17628
235000 8.11761
240000 8.05895
245000 8.00286
250000 7.94677
260000 7.83964
270000 7.73749
270380 7.73370
280000 7.64251
280430 7.63860
290000 7.55205
300000 7.46740
310000 7.38818
320000 7.31219
325000 7.27568
330000 7.23898
340000 7.16836
350000 7.10037
360000 7.03433
370000 6.97051
375000 6.93959
380000 6.90851
390000 6.84809
400000 6.78920
410000 6.73431
411090 6.72890
411095 6.72888
420000 6.68534
425000 6.66117
430000 6.63687
440000 6.58896
450000 6.54186
460000 6.49529
470000 6.44959
475000 6.42719
480000 6.40473
490000 6.36082
500000 6.31800
505580 6.29620
520000 6.24576
540000 6.18177
550810 6.15030
560000 6.12534
570000 6.10136
580000 6.07719
600000 6.03870
650000 5.96037
700000 5.89880
740770 5.86060
740774 5.86059
750000 5.85305
800000 5.81500
850000 5.78590
859380 5.78170
892550 5.76970
900000 5.76750
940000 5.75916
940790 5.75900
940793 5.75899
950000 5.75770
960000 5.75716
980000 5.75608
1.00000E+06 5.75500
1.05000E+06 5.75830
1.05040E+06 5.75840
1.10000E+06 5.76700
1.12500E+06 5.77310
1.15000E+06 5.78020
1.15590E+06 5.78210
1.20000E+06 5.79740
1.22360E+06 5.80670
1.22364E+06 5.80670
1.25000E+06 5.81800
1.37500E+06 5.88550
1.40000E+06 5.91050
1.50000E+06 6.01050
1.60000E+06 6.14698
1.62500E+06 6.18110
1.75000E+06 6.34400
1.80000E+06 6.40384
1.87500E+06 6.49360
2.00000E+06 6.63500
2.12500E+06 6.76550
2.20000E+06 6.83900
2.25000E+06 6.88800
2.37500E+06 7.00100
2.40000E+06 7.02160
2.50000E+06 7.10400
2.60000E+06 7.17456
2.62500E+06 7.19220
2.75000E+06 7.26070
2.80000E+06 7.28194
2.87500E+06 7.31380
3.00000E+06 7.35500
3.12500E+06 7.38040
3.25000E+06 7.38750
3.37500E+06 7.38100
3.50000E+06 7.36500
3.58020E+06 7.35088
3.62500E+06 7.34160
3.75000E+06 7.31000
3.87500E+06 7.26980
4.00000E+06 7.22059
4.12500E+06 7.16390
4.25000E+06 7.10170
4.37500E+06 7.03460
4.50000E+06 6.96310
4.62500E+06 6.89030
4.75000E+06 6.81640
4.87500E+06 6.73860
5.00000E+06 6.65440
5.25000E+06 6.48080
5.25330E+06 6.47850
5.50000E+06 6.31880
5.75000E+06 6.17310
6.00000E+06 6.03620
6.00010E+06 6.03574
6.25000E+06 5.88611
6.35020E+06 5.82429
6.50000E+06 5.73920
6.75000E+06 5.61590
7.00000E+06 5.50680
7.25000E+06 5.40989
7.50000E+06 5.32350
7.75000E+06 5.24630
8.00000E+06 5.17700
8.10070E+06 5.15160
8.13480E+06 5.14388
8.25000E+06 5.11780
8.50000E+06 5.09742
8.69910E+06 5.04297
8.75000E+06 5.03580
9.00000E+06 5.01160
9.25000E+06 4.99780
9.50000E+06 4.99400
9.75000E+06 4.99650
1.00000E+07 5.00209
1.02500E+07 5.01060
1.05000E+07 5.02210
1.07500E+07 5.03640
1.10000E+07 5.05371
1.12500E+07 5.07200
1.15000E+07 5.08990
1.17500E+07 5.10770
1.20000E+07 5.12570
1.22500E+07 5.14440
1.25000E+07 5.16380
1.27500E+07 5.18430
1.30000E+07 5.20610
1.32500E+07 5.22850
1.35000E+07 5.25090
1.37500E+07 5.27300
1.40000E+07 5.29510
1.42500E+07 5.31700
1.45000E+07 5.33870
1.47500E+07 5.36030
1.47960E+07 5.36420
1.47964E+07 5.36423
1.48580E+07 5.36952
1.50000E+07 5.38170
1.52500E+07 5.40340
1.55000E+07 5.42530
1.57500E+07 5.44700
1.60000E+07 5.46800
1.62500E+07 5.48730
1.65000E+07 5.50450
1.67500E+07 5.51980
1.70000E+07 5.53340
1.72500E+07 5.54570
1.75000E+07 5.55670
1.77500E+07 5.56680
1.80000E+07 5.57600
1.85000E+07 5.58870
1.90000E+07 5.59240
1.95000E+07 5.58880
2.00000E+07 5.57920
2.05000E+07 5.56420
2.10000E+07 5.54410
2.15000E+07 5.51970
2.20000E+07 5.49180
2.25000E+07 5.46110
2.30000E+07 5.42730
2.32270E+07 5.41090
2.32620E+07 5.40822
2.35000E+07 5.39000
2.40000E+07 5.34870
2.45000E+07 5.30300
2.50000E+07 5.25380
2.55000E+07 5.20270
2.60000E+07 5.15100
2.65000E+07 5.09510
2.70000E+07 5.03520
2.75000E+07 4.97750
2.80000E+07 4.92710
2.85000E+07 4.88690
2.90000E+07 4.85550
2.95000E+07 4.83080
3.00000E+07 4.81130